Data from test_V78500241_910.txt Node
Date: Fri Mar 25 15:48:06 CST 2022
User: usil
Spectrometer: V785-0024
Trigger mode: 0
Integration Time (sec): 4.000000E-1
Scans to average: 1
Nonlinearity correction enabled: false
Boxcar width: 0
Storing dark spectrum: false
XAxis mode: Wavelengths
Number of Pixels in Spectrum: 1024
>>>>>Begin Spectral Data<<<<<
801.071	28284
801.214	27918
801.356	27926
801.499	27835
801.641	27739
801.783	27644
801.926	27819
802.068	27778
802.211	27504
802.353	27652
802.496	27367
802.638	27473
802.78	27329
802.923	27367
803.065	27481
803.208	27431
803.35	27454
803.492	27679
803.635	27618
803.777	27427
803.919	27629
804.061	28051
804.204	27701
804.346	27583
804.488	27435
804.63	27641
804.773	27526
804.915	27507
805.057	27690
805.199	27622
805.341	27587
805.483	27835
805.626	27694
805.768	27694
805.91	27660
806.052	27926
806.194	27690
806.336	27945
806.478	27793
806.62	27789
806.762	27991
806.904	27914
807.046	28322
807.188	28276
807.33	28188
807.472	28188
807.614	28063
807.756	28230
807.898	28078
808.04	27998
808.182	27983
808.324	28177
808.465	28048
808.607	28101
808.749	28386
808.891	28557
809.033	28618
809.174	28550
809.316	28443
809.458	28295
809.6	28337
809.741	28573
809.883	28493
810.025	28850
810.166	28634
810.308	28679
810.45	28637
810.591	28538
810.733	28489
810.875	28561
811.016	28428
811.158	28451
811.299	28584
811.441	28679
811.582	28630
811.724	28569
811.865	28417
812.007	28428
812.148	28417
812.29	28481
812.431	28679
812.573	28653
812.714	28934
812.855	28869
812.997	29090
813.138	29280
813.279	29056
813.421	29010
813.562	28942
813.703	28828
813.845	28630
813.986	28440
814.127	28363
814.268	28181
814.41	28306
814.551	28150
814.692	28158
814.833	28021
814.974	28158
815.115	28204
815.256	27918
815.397	28082
815.539	27964
815.68	27945
815.821	27850
815.962	27930
816.103	27926
816.244	27911
816.385	27816
816.526	27850
816.666	27492
816.807	27576
816.948	27705
817.089	27469
817.23	27663
817.371	27538
817.512	27462
817.653	27519
817.793	27374
817.934	27370
818.075	27500
818.216	27511
818.356	27492
818.497	27481
818.638	27264
818.778	27150
818.919	27184
819.06	27291
819.2	27378
819.341	27408
819.481	27310
819.622	27553
819.762	27781
819.903	27641
820.043	27587
820.184	27564
820.324	27450
820.465	27599
820.605	27561
820.746	27599
820.886	27572
821.026	27587
821.167	27450
821.307	27526
821.447	27294
821.588	27447
821.728	27348
821.868	27093
822.008	27028
822.149	26815
822.289	26842
822.429	26708
822.569	26629
822.709	26522
822.849	26370
822.99	26461
823.13	26469
823.27	26404
823.41	26248
823.55	26180
823.69	26301
823.83	26244
823.97	26218
824.11	26145
824.25	26130
824.389	26058
824.529	26107
824.669	26176
824.809	26168
824.949	26164
825.089	26187
825.228	26339
825.368	25913
825.508	25890
825.648	25928
825.787	26001
825.927	26039
826.067	26027
826.206	26016
826.346	26134
826.485	26233
826.625	25966
826.765	26081
826.904	25959
827.044	25727
827.183	25814
827.323	25689
827.462	25830
827.601	25590
827.741	25670
827.88	25803
828.02	25578
828.159	25666
828.298	25708
828.437	25750
828.577	25506
828.716	25772
828.855	25651
828.994	25365
829.134	25460
829.273	25422
829.412	25346
829.551	25392
829.69	25335
829.829	25377
829.968	25518
830.107	25384
830.246	25362
830.385	25225
830.524	25324
830.663	25213
830.802	25168
830.941	25015
831.08	24897
831.219	25031
831.357	25004
831.496	25324
831.635	24996
831.774	24791
831.913	24833
832.051	24882
832.19	24627
832.329	24745
832.467	24585
832.606	24589
832.744	24528
832.883	24494
833.022	24635
833.16	24730
833.299	24665
833.437	24768
833.576	24681
833.714	24688
833.852	24798
833.991	24867
834.129	24821
834.267	24783
834.406	24741
834.544	24696
834.682	24817
834.821	24681
834.959	24829
835.097	24589
835.235	24669
835.373	24559
835.511	24760
835.65	24642
835.788	24566
835.926	24372
836.064	24224
836.202	24311
836.34	24494
836.478	24608
836.615	24521
836.753	24536
836.891	24612
837.029	24380
837.167	24563
837.305	24483
837.443	24292
837.58	24441
837.718	24403
837.856	24399
837.993	24346
838.131	24353
838.269	24277
838.406	24251
838.544	24327
838.681	24110
838.819	23969
838.956	23824
839.094	23824
839.231	23939
839.369	23935
839.506	24163
839.643	24038
839.781	23824
839.918	23699
840.055	23821
840.193	23813
840.33	23832
840.467	23752
840.604	23691
840.742	24041
840.879	23630
841.016	23737
841.153	23710
841.29	23802
841.427	23703
841.564	23843
841.701	23897
841.838	23691
841.975	23642
842.112	23623
842.249	23520
842.385	23505
842.522	23604
842.659	23585
842.796	23547
842.933	23433
843.069	23463
843.206	23402
843.343	23551
843.479	23467
843.616	23478
843.752	23288
843.889	23254
844.025	23417
844.162	23311
844.298	23425
844.435	23341
844.571	23277
844.708	23376
844.844	23505
844.98	23315
845.117	23455
845.253	23265
845.389	23121
845.525	23223
845.661	23166
845.798	22957
845.934	23033
846.07	23075
846.206	23098
846.342	23006
846.478	22968
846.614	22801
846.75	22584
846.886	22782
847.022	22835
847.158	22706
847.294	22774
847.429	22820
847.565	22706
847.701	22927
847.837	22497
847.972	22455
848.108	22603
848.244	22599
848.379	22344
848.515	22299
848.65	22344
848.786	22325
848.921	22322
849.057	22356
849.192	22352
849.328	22295
849.463	22341
849.598	22280
849.734	22188
849.869	22139
850.004	22162
850.14	22135
850.275	22013
850.41	22032
850.545	21934
850.68	22017
850.815	22082
850.95	22082
851.085	22352
851.22	22173
851.355	22112
851.49	22200
851.625	22211
851.76	22128
851.895	22032
852.03	22021
852.165	22006
852.299	22048
852.434	22139
852.569	22116
852.703	22067
852.838	22143
852.973	22219
853.107	22276
853.242	22006
853.376	21892
853.511	21991
853.645	21831
853.78	22044
853.914	21972
854.048	21899
854.183	21884
854.317	21861
854.451	21994
854.585	21918
854.72	21907
854.854	21953
854.988	21766
855.122	21915
855.256	21739
855.39	21899
855.524	21926
855.658	21926
855.792	21888
855.926	21880
856.06	21960
856.194	21987
856.327	21964
856.461	21789
856.595	21785
856.729	21846
856.862	21983
856.996	21926
857.13	22093
857.263	22120
857.397	22040
857.53	21884
857.664	21907
857.797	21953
857.931	22147
858.064	21903
858.197	22067
858.331	21854
858.464	21808
858.597	21778
858.731	21854
858.864	21808
858.997	21953
859.13	21888
859.263	21869
859.396	22017
859.529	21846
859.662	21876
859.795	21873
859.928	21945
860.061	21964
860.194	22120
860.327	22029
860.46	21934
860.592	21949
860.725	21994
860.858	22036
860.99	21994
861.123	21808
861.256	21812
861.388	21873
861.521	22675
861.653	21739
861.786	21568
861.918	21759
862.05	21846
862.183	21816
862.315	21846
862.447	21926
862.58	21804
862.712	21660
862.844	21667
862.976	21724
863.108	21728
863.24	22029
863.372	21648
863.504	21606
863.636	21724
863.768	21610
863.9	21523
864.032	21469
864.164	21424
864.296	21675
864.428	21755
864.559	21732
864.691	21831
864.823	21648
864.954	21557
865.086	21542
865.217	21568
865.349	21477
865.48	21652
865.612	21652
865.743	21682
865.875	21549
866.006	21530
866.137	21637
866.269	21519
866.4	21507
866.531	21454
866.662	21321
866.793	21264
866.924	21412
867.055	21534
867.186	21595
867.317	21272
867.448	21294
867.579	21492
867.71	21294
867.841	21294
867.972	21488
868.103	21401
868.233	21367
868.364	21412
868.495	21625
868.625	21652
868.756	21747
868.886	21648
869.017	21717
869.147	21599
869.278	21819
869.408	21747
869.539	21736
869.669	21827
869.799	21736
869.929	21953
870.06	21701
870.19	22029
870.32	21865
870.45	22074
870.58	22112
870.71	22230
870.84	22158
870.97	22150
871.1	22048
871.23	22223
871.36	22272
871.489	22276
871.619	22169
871.749	22280
871.879	22272
872.008	22280
872.138	22196
872.267	22310
872.397	22116
872.526	22112
872.656	22150
872.785	22055
872.915	22238
873.044	22432
873.173	22287
873.303	22356
873.432	22386
873.561	22348
873.69	22291
873.819	22413
873.948	22360
874.077	22318
874.206	22348
874.335	22402
874.464	22436
874.593	22519
874.722	22470
874.851	22531
874.979	22500
875.108	22557
875.237	22405
875.365	22474
875.494	22474
875.623	22516
875.751	22421
875.88	22531
876.008	22603
876.136	22736
876.265	22991
876.393	23128
876.521	22999
876.65	23083
876.778	22858
876.906	22824
877.034	22801
877.162	22858
877.29	22793
877.418	22892
877.546	22786
877.674	22835
877.802	22740
877.93	22809
878.058	22881
878.185	22854
878.313	22816
878.441	22748
878.568	22634
878.696	22793
878.824	22755
878.951	22984
879.079	23162
879.206	23105
879.333	23010
879.461	22900
879.588	23018
879.715	22938
879.842	23197
879.97	22976
880.097	22599
880.224	22721
880.351	22786
880.478	22801
880.605	22584
880.732	22645
880.859	22877
880.986	22660
881.112	22698
881.239	22615
881.366	22493
881.493	22291
881.619	22246
881.746	22280
881.872	22226
881.999	22131
882.125	22154
882.252	22169
882.378	22219
882.505	22417
882.631	22082
882.757	21869
882.883	22002
883.01	21922
883.136	22006
883.262	21679
883.388	21747
883.514	22032
883.64	21873
883.766	21835
883.892	21694
884.018	21641
884.143	21915
884.269	21960
884.395	21686
884.52	21610
884.646	21492
884.772	21572
884.897	21500
885.023	21481
885.148	21663
885.274	21690
885.399	21804
885.524	21587
885.65	21587
885.775	21652
885.9	21686
886.025	21557
886.15	21660
886.275	21485
886.4	21485
886.525	21523
886.65	21447
886.775	21644
886.9	21633
887.025	21785
887.149	21553
887.274	21401
887.399	21389
887.523	21256
887.648	21256
887.773	21302
887.897	21439
888.021	21374
888.146	21256
888.27	21424
888.395	21408
888.519	21401
888.643	21340
888.767	21321
888.891	21207
889.015	21093
889.139	21150
889.263	21207
889.387	21283
889.511	21374
889.635	21321
889.759	21104
889.883	21127
890.006	21138
890.13	21233
890.254	21146
890.377	21108
890.501	20811
890.624	20956
890.748	20910
890.871	20845
890.995	20716
891.118	20625
891.241	20686
891.364	20731
891.488	20948
891.611	20667
891.734	20621
891.857	20693
891.98	20617
892.103	20746
892.226	20788
892.349	20556
892.471	20309
892.594	20659
892.717	20682
892.839	20621
892.962	20682
893.085	20659
893.207	20545
893.33	20522
893.452	20476
893.575	20640
893.697	20716
893.819	20762
893.941	20853
894.064	20750
894.186	20442
894.308	20492
894.43	20746
894.552	20705
894.674	20606
894.796	20518
894.918	20499
895.04	20594
895.161	20712
895.283	20560
895.405	20533
895.526	20552
895.648	20552
895.769	20617
895.891	20621
896.012	20644
896.134	20705
896.255	20549
896.376	20533
896.498	20571
896.619	20587
896.74	20507
896.861	20746
896.982	20895
897.103	20986
897.224	20815
897.345	20830
897.466	20830
897.587	20773
897.708	20861
897.828	20769
897.949	20750
898.07	20708
898.19	20724
898.311	20872
898.431	20842
898.552	20823
898.672	20864
898.792	20918
898.913	20727
899.033	20644
899.153	20480
899.273	20556
899.393	20556
899.513	20648
899.633	20533
899.753	20629
899.873	20507
899.993	20606
900.113	20541
900.232	20469
900.352	20514
900.472	20290
900.591	20267
900.711	20393
900.83	20176
900.95	20347
901.069	20511
901.189	20214
901.308	19982
901.427	20012
901.546	19875
901.665	19928
901.784	19890
901.904	19696
902.023	19712
902.141	19495
902.26	19457
902.379	19590
902.498	19388
902.617	19266
902.735	19270
902.854	19480
902.973	19316
903.091	19107
903.21	19012
903.328	19053
903.446	19031
903.565	18894
903.683	18905
903.801	18738
903.919	18757
904.038	18779
904.156	18555
904.274	18601
904.392	18540
904.51	18471
904.627	18665
904.745	18703
904.863	18631
904.981	18460
905.098	18308
905.216	18304
905.334	18281
905.451	18292
905.569	18247
905.686	18357
905.803	18292
905.921	18125
906.038	18247
906.155	18220
906.272	17969
906.389	18072
906.506	17817
906.623	17931
906.74	17855
906.857	17710
906.974	17779
907.091	17874
907.208	17882
907.324	17821
907.441	17737
907.557	17589
907.674	17463
907.79	17512
907.907	17383
908.023	17497
908.139	17573
908.256	17440
908.372	17391
908.488	17490
908.604	17277
908.72	17307
908.836	17235
908.952	17079
909.068	17311
909.184	17341
909.3	17307
909.415	17337
909.531	17296
909.647	17071
909.762	16869
909.878	16881
909.993	17052
910.108	16938
910.224	16915
910.339	16854
910.454	16793
910.57	16752
910.685	16698
910.8	17018
910.915	16949
911.03	16725
911.145	16577
911.259	16558
911.374	16611
911.489	16470
911.604	16459
911.718	16329
911.833	16158
911.947	16234
912.062	16166
912.176	16295
912.291	16386
912.405	16249
912.519	16500
912.633	16432
912.748	16272
912.862	16261
912.976	16192
913.09	15800
913.204	16093
913.318	16112
913.431	16166
913.545	16135
913.659	16101
913.772	16025
913.886	15926
914	15880
914.113	15991
914.226	15873
914.34	15911
914.453	15778
914.566	15892
914.68	15823
914.793	15781
914.906	15481
915.019	15526
915.132	15412
915.245	15515
915.358	15576
915.47	15507
915.583	15477
915.696	15488
915.809	15580
915.921	15648
916.034	15526
916.146	15382
916.259	15332
916.371	15412
916.483	15428
916.595	15310
916.708	15222
916.82	15264
916.932	15207
917.044	15313
917.156	15256
917.268	15039
917.38	15081
917.491	15020
917.603	15173
917.715	15252
917.826	15256
917.938	15077
918.049	14982
918.161	15017
918.272	15230
918.384	15138
918.495	15135
918.606	14849
918.717	14845
918.828	14910
918.939	14971
919.05	14743
919.161	14781
919.272	14708
919.383	14697
919.494	14906
919.604	15081
919.715	14876
919.826	14758
919.936	14830
920.047	14826
920.157	14857
920.267	15013
920.378	14880
920.488	14777
920.598	14994
920.708	15104
920.818	14925
920.928	14963
921.038	15085
921.148	14979
921.258	14712
921.368	14602
921.477	14678
921.587	14590
921.697	14457
921.806	14587
921.916	14473
922.025	14210
922.134	14286
922.244	14218
922.353	14237
922.462	14081
922.571	14043
922.68	13883
922.789	13753
922.898	13811
923.007	13814
923.116	13772
923.224	13849
923.333	13791
923.442	13677
923.55	13639
923.659	13647
923.767	13769
923.876	13540
923.984	13578
924.092	13616
924.201	13624
924.309	13601
924.417	13563
924.525	13449
924.633	13407
924.741	14431
924.849	13247
924.956	13373
925.064	13274
925.172	13198
925.279	13236
925.387	13304
925.494	13114
925.602	13304
925.709	13301
925.816	13206
925.924	13183
926.031	13301
926.138	13107
926.245	13213
926.352	13091
926.459	13209
926.566	13206
926.673	13099
926.779	12989
926.886	12996
926.993	12833
927.099	12890
927.206	12779
927.312	12692
927.419	12878
927.525	12886
927.631	12779
927.737	12722
927.843	12673
927.95	12479
928.056	12532
928.162	12669
928.267	12696
928.373	13179
928.479	12700
928.585	12369
928.69	12544
928.796	12536
928.901	12448
929.007	12327
929.112	12403
929.218	12407
929.323	12365
929.428	12258
929.533	12460
929.638	12251
929.743	12300
929.848	12327
929.953	12338
930.058	12178
930.163	11988
930.267	12076
930.372	12125
930.477	11984
930.581	12175
930.685	12053
930.79	11874
930.894	11958
930.998	11821
931.103	11954
931.207	11566
931.311	11558
931.415	11440
931.519	11239
931.623	11242
