Data from test_V78500241_105.txt Node
Date: Fri Mar 25 15:42:31 CST 2022
User: usil
Spectrometer: V785-0024
Trigger mode: 0
Integration Time (sec): 4.000000E-1
Scans to average: 1
Nonlinearity correction enabled: false
Boxcar width: 0
Storing dark spectrum: false
XAxis mode: Wavelengths
Number of Pixels in Spectrum: 1024
>>>>>Begin Spectral Data<<<<<
801.071	28976
801.214	29037
801.356	28942
801.499	28809
801.641	28580
801.783	28740
801.926	28790
802.068	28649
802.211	28710
802.353	28459
802.496	28188
802.638	28287
802.78	28131
802.923	28158
803.065	28131
803.208	27994
803.35	28325
803.492	28322
803.635	28485
803.777	28261
803.919	28322
804.061	28649
804.204	28417
804.346	28371
804.488	28341
804.63	28291
804.773	28139
804.915	28280
805.057	28268
805.199	28459
805.341	28371
805.483	28417
805.626	28401
805.768	28363
805.91	28481
806.052	28500
806.194	28310
806.336	28478
806.478	28519
806.62	28428
806.762	28421
806.904	28565
807.046	28908
807.188	28824
807.33	28915
807.472	28991
807.614	28519
807.756	28740
807.898	28557
808.04	28573
808.182	28538
808.324	28672
808.465	28580
808.607	28824
808.749	28911
808.891	29071
809.033	29117
809.174	28980
809.316	28896
809.458	28877
809.6	28946
809.741	28919
809.883	28938
810.025	29086
810.166	29109
810.308	29155
810.45	28976
810.591	29105
810.733	28984
810.875	28968
811.016	28873
811.158	28748
811.299	29033
811.441	28961
811.582	29060
811.724	28847
811.865	28915
812.007	28782
812.148	28847
812.29	28888
812.431	29147
812.573	29052
812.714	29212
812.855	29414
812.997	29459
813.138	29440
813.279	29501
813.421	29398
813.562	29322
813.703	29128
813.845	29086
813.986	28660
814.127	28584
814.268	28436
814.41	28375
814.551	28531
814.692	28717
814.833	28440
814.974	28360
815.115	28535
815.256	28268
815.397	28204
815.539	28295
815.68	28261
815.821	28036
815.962	28185
816.103	28120
816.244	28010
816.385	27949
816.526	27861
816.666	27857
816.807	27770
816.948	27701
817.089	27739
817.23	27568
817.371	27568
817.512	27401
817.653	27481
817.793	27332
817.934	27671
818.075	27660
818.216	27572
818.356	27538
818.497	27439
818.638	27268
818.778	27344
818.919	27355
819.06	27268
819.2	27241
819.341	27507
819.481	27397
819.622	27606
819.762	27797
819.903	27720
820.043	27557
820.184	27583
820.324	27504
820.465	27610
820.605	27606
820.746	27473
820.886	27367
821.026	27466
821.167	27462
821.307	27534
821.447	27416
821.588	27435
821.728	27298
821.868	27036
822.008	27028
822.149	27024
822.289	26914
822.429	26731
822.569	26522
822.709	26552
822.849	26423
822.99	26351
823.13	26415
823.27	26199
823.41	26168
823.55	26020
823.69	26130
823.83	26142
823.97	26103
824.11	25864
824.25	25951
824.389	25978
824.529	26016
824.669	25963
824.809	26058
824.949	26012
825.089	25898
825.228	25826
825.368	25795
825.508	25738
825.648	25761
825.787	25731
825.927	25738
826.067	25655
826.206	25864
826.346	25708
826.485	25674
826.625	25780
826.765	25814
826.904	25738
827.044	25430
827.183	25377
827.323	25419
827.462	25304
827.601	25430
827.741	25392
827.88	25453
828.02	25339
828.159	25312
828.298	25202
828.437	25441
828.577	25335
828.716	25426
828.855	25396
828.994	25004
829.134	25141
829.273	25080
829.412	24817
829.551	24996
829.69	24973
829.829	24954
829.968	25118
830.107	25069
830.246	25091
830.385	25008
830.524	24875
830.663	24696
830.802	24688
830.941	24696
831.08	24525
831.219	24597
831.357	24627
831.496	24722
831.635	24422
831.774	24407
831.913	24433
832.051	24395
832.19	24380
832.329	24254
832.467	24232
832.606	24060
832.744	24129
832.883	24190
833.022	24194
833.16	24224
833.299	24216
833.437	24247
833.576	24213
833.714	24190
833.852	24224
833.991	24254
834.129	24224
834.267	24353
834.406	24076
834.544	24213
834.682	23977
834.821	24007
834.959	24277
835.097	24011
835.235	24201
835.373	24110
835.511	24174
835.65	24038
835.788	24041
835.926	23870
836.064	23661
836.202	23767
836.34	24076
836.478	24098
836.615	23904
836.753	24068
836.891	23988
837.029	23904
837.167	23882
837.305	23832
837.443	23832
837.58	23786
837.718	23923
837.856	23847
837.993	23866
838.131	23786
838.269	23657
838.406	23703
838.544	23543
838.681	23429
838.819	23368
838.956	23246
839.094	23181
839.231	23208
839.369	23345
839.506	23497
839.643	23493
839.781	23136
839.918	23124
840.055	23246
840.193	23113
840.33	23140
840.467	23136
840.604	23204
840.742	23341
840.879	22968
841.016	22987
841.153	22927
841.29	23185
841.427	22995
841.564	23136
841.701	23041
841.838	23018
841.975	22980
842.112	22953
842.249	22904
842.385	22740
842.522	23071
842.659	22782
842.796	22748
842.933	22843
843.069	22744
843.206	22694
843.343	22790
843.479	22752
843.616	22812
843.752	22535
843.889	22466
844.025	22710
844.162	22493
844.298	22504
844.435	22500
844.571	22470
844.708	22352
844.844	22634
844.98	22497
845.117	22512
845.253	22398
845.389	22371
845.525	22325
845.661	22493
845.798	22116
845.934	22329
846.07	22246
846.206	22257
846.342	22421
846.478	22177
846.614	21983
846.75	21884
846.886	21823
847.022	22078
847.158	21888
847.294	21968
847.429	21987
847.565	21972
847.701	22116
847.837	21732
847.972	21610
848.108	21781
848.244	21641
848.379	21488
848.515	21526
848.65	21458
848.786	21519
848.921	21466
849.057	21557
849.192	21675
849.328	21591
849.463	21477
849.598	21378
849.734	21397
849.869	21291
850.004	21081
850.14	21222
850.275	21207
850.41	21169
850.545	21146
850.68	21233
850.815	21313
850.95	21093
851.085	21313
851.22	21146
851.355	21100
851.49	21199
851.625	21199
851.76	21165
851.895	21066
852.03	21062
852.165	21272
852.299	21192
852.434	21199
852.569	21146
852.703	21173
852.838	21116
852.973	21340
853.107	21150
853.242	21089
853.376	21036
853.511	20849
853.645	20990
853.78	21093
853.914	21005
854.048	20990
854.183	20929
854.317	21074
854.451	21142
854.585	21043
854.72	21013
854.854	21051
854.988	20895
855.122	20941
855.256	20842
855.39	20967
855.524	21157
855.658	20979
855.792	20971
855.926	21074
856.06	21036
856.194	21081
856.327	21047
856.461	20800
856.595	20948
856.729	20895
856.862	21039
856.996	20918
857.13	21066
857.263	21203
857.397	20979
857.53	20982
857.664	21066
857.797	20990
857.931	21081
858.064	21051
858.197	21081
858.331	20864
858.464	20834
858.597	20861
858.731	20929
858.864	20971
858.997	20773
859.13	20788
859.263	20979
859.396	20971
859.529	20868
859.662	20880
859.795	20895
859.928	20921
860.061	21081
860.194	21077
860.327	20891
860.46	20861
860.592	20895
860.725	20933
860.858	20899
860.99	20720
861.123	20834
861.256	20872
861.388	20891
861.521	21530
861.653	20796
861.786	20788
861.918	20701
862.05	20887
862.183	20857
862.315	21009
862.447	20956
862.58	20918
862.712	20663
862.844	20514
862.976	20765
863.108	20632
863.24	21028
863.372	20556
863.504	20613
863.636	20621
863.768	20609
863.9	20590
864.032	20469
864.164	20541
864.296	20522
864.428	20727
864.559	20632
864.691	20689
864.823	20575
864.954	20545
865.086	20526
865.217	20480
865.349	20495
865.48	20537
865.612	20442
865.743	20632
865.875	20511
866.006	20355
866.137	20549
866.269	20480
866.4	20492
866.531	20446
866.662	20495
866.793	20476
866.924	20381
867.055	20533
867.186	20514
867.317	20370
867.448	20290
867.579	20423
867.71	20412
867.841	20282
867.972	20396
868.103	20336
868.233	20427
868.364	20324
868.495	20393
868.625	20568
868.756	20754
868.886	20663
869.017	20693
869.147	20842
869.278	20712
869.408	20648
869.539	20587
869.669	20609
869.799	20625
869.929	20861
870.06	20750
870.19	20933
870.32	20979
870.45	21077
870.58	21146
870.71	21070
870.84	21211
870.97	21085
871.1	20998
871.23	21188
871.36	21192
871.489	21081
871.619	21142
871.749	21294
871.879	21302
872.008	21279
872.138	21203
872.267	21264
872.397	21013
872.526	21188
872.656	21154
872.785	21081
872.915	21279
873.044	21329
873.173	21298
873.303	21306
873.432	21272
873.561	21488
873.69	21363
873.819	21340
873.948	21306
874.077	21214
874.206	21233
874.335	21268
874.464	21412
874.593	21496
874.722	21405
874.851	21606
874.979	21625
875.108	21656
875.237	21549
875.365	21408
875.494	21511
875.623	21599
875.751	21583
875.88	21610
876.008	21671
876.136	21709
876.265	21937
876.393	22025
876.521	22040
876.65	22021
876.778	21994
876.906	21876
877.034	21838
877.162	21903
877.29	21819
877.418	21903
877.546	21934
877.674	21892
877.802	21819
877.93	21789
878.058	21922
878.185	21751
878.313	21861
878.441	21800
878.568	21633
878.696	21778
878.824	21850
878.951	21949
879.079	21979
879.206	22177
879.333	21930
879.461	21922
879.588	22059
879.715	22006
879.842	22177
879.97	21842
880.097	21675
880.224	21690
880.351	21816
880.478	21686
880.605	21720
880.732	21713
880.859	21861
880.986	21713
881.112	21743
881.239	21534
881.366	21435
881.493	21344
881.619	21313
881.746	21302
881.872	21268
881.999	21340
882.125	21195
882.252	21298
882.378	21260
882.505	21367
882.631	21161
882.757	21020
882.883	21131
883.01	21085
883.136	21020
883.262	20807
883.388	20971
883.514	20971
883.64	21024
883.766	20891
883.892	20880
884.018	20792
884.143	20887
884.269	21150
884.395	20716
884.52	20511
884.646	20583
884.772	20583
884.897	20507
885.023	20609
885.148	20758
885.274	20883
885.399	20678
885.524	20697
885.65	20659
885.775	20594
885.9	20598
886.025	20754
886.15	20712
886.275	20549
886.4	20423
886.525	20545
886.65	20530
886.775	20629
886.9	20739
887.025	20906
887.149	20511
887.274	20412
887.399	20351
887.523	20415
887.648	20298
887.773	20237
887.897	20465
888.021	20450
888.146	20442
888.27	20400
888.395	20556
888.519	20366
888.643	20507
888.767	20480
888.891	20275
889.015	20286
889.139	20229
889.263	20199
889.387	20377
889.511	20476
889.635	20263
889.759	20145
889.883	20122
890.006	20214
890.13	20168
890.254	20088
890.377	20031
890.501	19826
890.624	19932
890.748	20065
890.871	19765
890.995	19852
891.118	19533
891.241	19841
891.364	19860
891.488	19727
891.611	19689
891.734	19887
891.857	19803
891.98	19791
892.103	19795
892.226	19700
892.349	19712
892.471	19597
892.594	19586
892.717	19601
892.839	19632
892.962	19772
893.085	19662
893.207	19677
893.33	19544
893.452	19548
893.575	19712
893.697	19632
893.819	19761
893.941	19963
894.064	19852
894.186	19734
894.308	19670
894.43	19742
894.552	19799
894.674	19700
894.796	19533
894.918	19597
895.04	19586
895.161	19670
895.283	19765
895.405	19552
895.526	19571
895.648	19567
895.769	19757
895.891	19727
896.012	19727
896.134	19708
896.255	19666
896.376	19677
896.498	19693
896.619	19860
896.74	19814
896.861	19753
896.982	20149
897.103	20142
897.224	20043
897.345	19864
897.466	19871
897.587	20005
897.708	20122
897.828	20035
897.949	19849
898.07	19677
898.19	19784
898.311	19970
898.431	19883
898.552	19928
898.672	19970
898.792	19913
898.913	19856
899.033	19689
899.153	19696
899.273	19601
899.393	19750
899.513	19761
899.633	19597
899.753	19601
899.873	19567
899.993	19643
900.113	19449
900.232	19605
900.352	19499
900.472	19502
900.591	19339
900.711	19392
900.83	19343
900.95	19510
901.069	19537
901.189	19324
901.308	19034
901.427	18939
901.546	19061
901.665	19027
901.784	18985
901.904	18806
902.023	18757
902.141	18677
902.26	18498
902.379	18544
902.498	18509
902.617	18407
902.735	18483
902.854	18517
902.973	18391
903.091	18186
903.21	18174
903.328	18194
903.446	18011
903.565	18114
903.683	18068
903.801	17809
903.919	17946
904.038	17961
904.156	17786
904.274	17863
904.392	17653
904.51	17752
904.627	17824
904.745	17756
904.863	17783
904.981	17520
905.098	17414
905.216	17482
905.334	17383
905.451	17269
905.569	17444
905.686	17436
905.803	17395
905.921	17071
906.038	17265
906.155	17197
906.272	17064
906.389	17090
906.506	16881
906.623	16957
906.74	16881
906.857	16877
906.974	16881
907.091	16968
907.208	16999
907.324	16957
907.441	16786
907.557	16717
907.674	16615
907.79	16523
907.907	16550
908.023	16554
908.139	16637
908.256	16489
908.372	16504
908.488	16489
908.604	16306
908.72	16276
908.836	16303
908.952	16246
909.068	16257
909.184	16363
909.3	16303
909.415	16314
909.531	16272
909.647	16105
909.762	15979
909.878	15892
909.993	15949
910.108	16055
910.224	15926
910.339	15915
910.454	15770
910.57	15698
910.685	15713
910.8	16021
910.915	15838
911.03	15873
911.145	15637
911.259	15519
911.374	15428
911.489	15511
911.604	15534
911.718	15386
911.833	15279
911.947	15256
912.062	15180
912.176	15313
912.291	15397
912.405	15310
912.519	15545
912.633	15481
912.748	15260
912.862	15226
912.976	15138
913.09	15036
913.204	15184
913.318	15150
913.431	15256
913.545	15275
913.659	15226
913.772	15085
913.886	14967
914	14902
914.113	15047
914.226	15009
914.34	14990
914.453	14891
914.566	15001
914.68	14883
914.793	14765
914.906	14613
915.019	14518
915.132	14495
915.245	14602
915.358	14571
915.47	14541
915.583	14743
915.696	14674
915.809	14644
915.921	14670
916.034	14583
916.146	14533
916.259	14495
916.371	14533
916.483	14488
916.595	14431
916.708	14454
916.82	14427
916.932	14347
917.044	14396
917.156	14294
917.268	14138
917.38	14221
917.491	14252
917.603	14153
917.715	14199
917.826	14317
917.938	14153
918.049	14145
918.161	14221
918.272	14294
918.384	14271
918.495	14225
918.606	14046
918.717	13925
918.828	13982
918.939	13970
919.05	13936
919.161	13894
919.272	13700
919.383	13795
919.494	14012
919.604	14168
919.715	13986
919.826	13738
919.936	13837
920.047	14016
920.157	13868
920.267	14126
920.378	13875
920.488	13860
920.598	14142
920.708	14317
920.818	14126
920.928	13993
921.038	14252
921.148	14119
921.258	13746
921.368	13837
921.477	13681
921.587	13712
921.697	13575
921.806	13590
921.916	13594
922.025	13324
922.134	13312
922.244	13259
922.353	13324
922.462	13278
922.571	13209
922.68	12958
922.789	12966
922.898	12943
923.007	12840
923.116	13000
923.224	12985
923.333	12913
923.442	12795
923.55	12757
923.659	12806
923.767	12787
923.876	12715
923.984	12829
924.092	12646
924.201	12677
924.309	12779
924.417	12688
924.525	12559
924.633	12612
924.741	13377
924.849	12540
924.956	12593
925.064	12445
925.172	12342
925.279	12270
925.387	12372
925.494	12342
925.602	12555
925.709	12483
925.816	12270
925.924	12319
926.031	12460
926.138	12327
926.245	12445
926.352	12319
926.459	12380
926.566	12388
926.673	12251
926.779	12144
926.886	12136
926.993	11973
927.099	12041
927.206	11920
927.312	11950
927.419	11946
927.525	11954
927.631	11984
927.737	11843
927.843	11855
927.95	11691
928.056	11710
928.162	11798
928.267	11935
928.373	12502
928.479	11885
928.585	11619
928.69	11771
928.796	11767
928.901	11623
929.007	11509
929.112	11642
929.218	11570
929.323	11524
929.428	11467
929.533	11726
929.638	11406
929.743	11482
929.848	11520
929.953	11459
930.058	11353
930.163	11315
930.267	11208
930.372	11334
930.477	11204
930.581	11414
930.685	11296
930.79	11174
930.894	11170
930.998	11083
931.103	11311
931.207	10866
931.311	10824
931.415	10736
931.519	10546
931.623	10417
