Data from test_V78500241_2202.txt Node
Date: Fri Mar 25 15:57:03 CST 2022
User: usil
Spectrometer: V785-0024
Trigger mode: 0
Integration Time (sec): 4.000000E-1
Scans to average: 1
Nonlinearity correction enabled: false
Boxcar width: 0
Storing dark spectrum: false
XAxis mode: Wavelengths
Number of Pixels in Spectrum: 1024
>>>>>Begin Spectral Data<<<<<
801.071	28847
801.214	28824
801.356	28603
801.499	28519
801.641	28363
801.783	28386
801.926	28306
802.068	28367
802.211	28413
802.353	28287
802.496	28059
802.638	28040
802.78	27907
802.923	27876
803.065	27945
803.208	27880
803.35	28093
803.492	28325
803.635	28314
803.777	28067
803.919	28242
804.061	28538
804.204	28322
804.346	28390
804.488	28131
804.63	28325
804.773	28352
804.915	28398
805.057	28500
805.199	28417
805.341	28356
805.483	28451
805.626	28424
805.768	28310
805.91	28512
806.052	28546
806.194	28432
806.336	28459
806.478	28481
806.62	28382
806.762	28489
806.904	28664
807.046	29044
807.188	28778
807.33	28946
807.472	29086
807.614	28995
807.756	28911
807.898	28805
808.04	28812
808.182	28759
808.324	28721
808.465	28919
808.607	29071
808.749	29083
808.891	29235
809.033	29391
809.174	29231
809.316	29239
809.458	29147
809.6	29033
809.741	29113
809.883	29299
810.025	29482
810.166	29372
810.308	29406
810.45	29345
810.591	29383
810.733	29178
810.875	29155
811.016	29025
811.158	29227
811.299	29368
811.441	29246
811.582	29433
811.724	29117
811.865	29147
812.007	29258
812.148	29121
812.29	29197
812.431	29334
812.573	29478
812.714	29691
812.855	29718
812.997	29767
813.138	30007
813.279	29771
813.421	29756
813.562	29764
813.703	29478
813.845	29463
813.986	28976
814.127	28915
814.268	28877
814.41	28938
814.551	28949
814.692	28911
814.833	28797
814.974	28816
815.115	28831
815.256	28786
815.397	28911
815.539	28721
815.68	28748
815.821	28584
815.962	28645
816.103	28565
816.244	28557
816.385	28557
816.526	28459
816.666	28272
816.807	28173
816.948	28166
817.089	28211
817.23	28200
817.371	28219
817.512	28204
817.653	28196
817.793	28139
817.934	28181
818.075	28249
818.216	28093
818.356	28226
818.497	28086
818.638	27968
818.778	28120
818.919	27926
819.06	27930
819.2	28109
819.341	28299
819.481	28101
819.622	28424
819.762	28554
819.903	28508
820.043	28371
820.184	28371
820.324	28226
820.465	28287
820.605	28390
820.746	28344
820.886	28306
821.026	28306
821.167	28299
821.307	28447
821.447	28139
821.588	28090
821.728	28040
821.868	27918
822.008	27667
822.149	27743
822.289	27633
822.429	27447
822.569	27416
822.709	27237
822.849	27188
822.99	27249
823.13	27169
823.27	27184
823.41	27039
823.55	26819
823.69	27024
823.83	26921
823.97	27039
824.11	26800
824.25	26807
824.389	26765
824.529	26933
824.669	26830
824.809	27039
824.949	26895
825.089	26933
825.228	26788
825.368	26716
825.508	26762
825.648	26804
825.787	26785
825.927	26914
826.067	26720
826.206	26678
826.346	26724
826.485	26735
826.625	26720
826.765	26815
826.904	26750
827.044	26457
827.183	26415
827.323	26511
827.462	26442
827.601	26473
827.741	26446
827.88	26495
828.02	26377
828.159	26480
828.298	26465
828.437	26320
828.577	26480
828.716	26526
828.855	26252
828.994	26084
829.134	26168
829.273	26199
829.412	26046
829.551	25989
829.69	26145
829.829	26119
829.968	26122
830.107	26134
830.246	26134
830.385	26122
830.524	26119
830.663	26054
830.802	25871
830.941	25788
831.08	25620
831.219	25837
831.357	25799
831.496	26016
831.635	25772
831.774	25670
831.913	25647
832.051	25499
832.19	25476
832.329	25468
832.467	25449
832.606	25407
832.744	25419
832.883	25358
833.022	25274
833.16	25278
833.299	25449
833.437	25525
833.576	25487
833.714	25491
833.852	25590
833.991	25548
834.129	25597
834.267	25476
834.406	25430
834.544	25468
834.682	25571
834.821	25479
834.959	25571
835.097	25297
835.235	25521
835.373	25415
835.511	25384
835.65	25304
835.788	25343
835.926	25255
836.064	25148
836.202	25183
836.34	25255
836.478	25483
836.615	25225
836.753	25198
836.891	25422
837.029	25388
837.167	25331
837.305	25118
837.443	25202
837.58	25110
837.718	25202
837.856	25156
837.993	25034
838.131	25114
838.269	25038
838.406	24981
838.544	24897
838.681	24627
838.819	24840
838.956	24700
839.094	24620
839.231	24646
839.369	24722
839.506	24973
839.643	24890
839.781	24612
839.918	24486
840.055	24505
840.193	24574
840.33	24464
840.467	24437
840.604	24547
840.742	24852
840.879	24334
841.016	24532
841.153	24452
841.29	24669
841.427	24391
841.564	24540
841.701	24505
841.838	24490
841.975	24315
842.112	24342
842.249	24220
842.385	24163
842.522	24289
842.659	24136
842.796	24209
842.933	24144
843.069	24163
843.206	24106
843.343	24323
843.479	24266
843.616	24247
843.752	24064
843.889	23942
844.025	24254
844.162	23920
844.298	24186
844.435	23885
844.571	23984
844.708	24129
844.844	24254
844.98	24114
845.117	24129
845.253	24091
845.389	23805
845.525	23805
845.661	23790
845.798	23756
845.934	23847
846.07	23828
846.206	23718
846.342	23859
846.478	23676
846.614	23562
846.75	23398
846.886	23474
847.022	23471
847.158	23604
847.294	23440
847.429	23547
847.565	23398
847.701	23764
847.837	23250
847.972	23083
848.108	23223
848.244	23261
848.379	23037
848.515	23159
848.65	22961
848.786	23037
848.921	23166
849.057	23143
849.192	23121
849.328	22976
849.463	23121
849.598	22999
849.734	23064
849.869	22892
850.004	22767
850.14	22877
850.275	22873
850.41	22729
850.545	22664
850.68	22702
850.815	22733
850.95	22672
851.085	23075
851.22	22889
851.355	22892
851.49	22900
851.625	22767
851.76	22683
851.895	22843
852.03	22801
852.165	22569
852.299	22839
852.434	22889
852.569	22820
852.703	22782
852.838	22828
852.973	22896
853.107	22900
853.242	22725
853.376	22759
853.511	22474
853.645	22641
853.78	22683
853.914	22672
854.048	22546
854.183	22603
854.317	22672
854.451	22725
854.585	22577
854.72	22672
854.854	22630
854.988	22573
855.122	22459
855.256	22588
855.39	22645
855.524	22774
855.658	22698
855.792	22839
855.926	22736
856.06	22637
856.194	22752
856.327	22607
856.461	22588
856.595	22474
856.729	22630
856.862	22713
856.996	22603
857.13	22740
857.263	22717
857.397	22687
857.53	22653
857.664	22797
857.797	22698
857.931	22771
858.064	22706
858.197	22767
858.331	22748
858.464	22523
858.597	22504
858.731	22542
858.864	22561
858.997	22618
859.13	22489
859.263	22736
859.396	22820
859.529	22630
859.662	22561
859.795	22550
859.928	22649
860.061	22873
860.194	22839
860.327	22713
860.46	22733
860.592	22793
860.725	22694
860.858	22740
860.99	22554
861.123	22611
861.256	22561
861.388	22755
861.521	23277
861.653	22443
861.786	22363
861.918	22432
862.05	22462
862.183	22436
862.315	22554
862.447	22687
862.58	22626
862.712	22257
862.844	22238
862.976	22424
863.108	22379
863.24	22797
863.372	22257
863.504	22360
863.636	22386
863.768	22356
863.9	22287
864.032	22219
864.164	22382
864.296	22268
864.428	22379
864.559	22481
864.691	22382
864.823	22337
864.954	22402
865.086	22310
865.217	22268
865.349	22090
865.48	22166
865.612	22246
865.743	22291
865.875	22185
866.006	22249
866.137	22135
866.269	22314
866.4	22131
866.531	22158
866.662	22063
866.793	22124
866.924	22082
867.055	22112
867.186	22101
867.317	22131
867.448	22032
867.579	22219
867.71	22029
867.841	22139
867.972	22116
868.103	22131
868.233	22067
868.364	22070
868.495	22261
868.625	22337
868.756	22371
868.886	22329
869.017	22238
869.147	22527
869.278	22462
869.408	22447
869.539	22375
869.669	22508
869.799	22504
869.929	22584
870.06	22432
870.19	22634
870.32	22615
870.45	22622
870.58	22862
870.71	22797
870.84	22858
870.97	22782
871.1	22717
871.23	22961
871.36	22942
871.489	22801
871.619	22949
871.749	23060
871.879	22953
872.008	23132
872.138	23018
872.267	23041
872.397	22790
872.526	22847
872.656	22850
872.785	22816
872.915	22942
873.044	23094
873.173	22972
873.303	22961
873.432	23018
873.561	23117
873.69	23060
873.819	22911
873.948	23090
874.077	22946
874.206	22858
874.335	22965
874.464	23170
874.593	23223
874.722	23185
874.851	23216
874.979	23200
875.108	23269
875.237	23102
875.365	23060
875.494	23014
875.623	23231
875.751	23113
875.88	23280
876.008	23296
876.136	23376
876.265	23627
876.393	23649
876.521	23463
876.65	23790
876.778	23482
876.906	23448
877.034	23402
877.162	23573
877.29	23501
877.418	23573
877.546	23562
877.674	23490
877.802	23577
877.93	23482
878.058	23551
878.185	23478
878.313	23501
878.441	23585
878.568	23364
878.696	23455
878.824	23436
878.951	23691
879.079	23577
879.206	23707
879.333	23653
879.461	23592
879.588	23611
879.715	23589
879.842	23668
879.97	23687
880.097	23322
880.224	23277
880.351	23360
880.478	23356
880.605	23402
880.732	23372
880.859	23592
880.986	23326
881.112	23353
881.239	23170
881.366	23037
881.493	22953
881.619	22896
881.746	22927
881.872	22949
881.999	22801
882.125	22809
882.252	22984
882.378	22816
882.505	23083
882.631	22729
882.757	22580
882.883	22702
883.01	22641
883.136	22478
883.262	22550
883.388	22344
883.514	22569
883.64	22462
883.766	22656
883.892	22421
884.018	22451
884.143	22577
884.269	22656
884.395	22432
884.52	22215
884.646	22192
884.772	22166
884.897	22112
885.023	22223
885.148	22470
885.274	22341
885.399	22375
885.524	22238
885.65	22162
885.775	22303
885.9	22238
886.025	22325
886.15	22246
886.275	22128
886.4	22101
886.525	22150
886.65	22078
886.775	22128
886.9	22116
887.025	22481
887.149	22086
887.274	21994
887.399	22040
887.523	21975
887.648	21968
887.773	21949
887.897	21945
888.021	22032
888.146	21812
888.27	22093
888.395	22124
888.519	21956
888.643	22074
888.767	22044
888.891	21861
889.015	21895
889.139	21804
889.263	21690
889.387	21998
889.511	21960
889.635	21865
889.759	21709
889.883	21652
890.006	21736
890.13	21857
890.254	21667
890.377	21724
890.501	21507
890.624	21466
890.748	21530
890.871	21336
890.995	21344
891.118	21332
891.241	21252
891.364	21325
891.488	21466
891.611	21272
891.734	21310
891.857	21401
891.98	21306
892.103	21294
892.226	21211
892.349	21199
892.471	21070
892.594	21142
892.717	21260
892.839	21036
892.962	21180
893.085	21176
893.207	21180
893.33	20918
893.452	21108
893.575	21192
893.697	21127
893.819	21325
893.941	21256
894.064	21370
894.186	21146
894.308	21123
894.43	21237
894.552	21351
894.674	21291
894.796	21001
894.918	21195
895.04	21169
895.161	21184
895.283	21302
895.405	21180
895.526	21218
895.648	21283
895.769	21112
895.891	21157
896.012	21199
896.134	21195
896.255	21127
896.376	21039
896.498	21165
896.619	21157
896.74	21226
896.861	21165
896.982	21473
897.103	21576
897.224	21519
897.345	21447
897.466	21233
897.587	21321
897.708	21568
897.828	21363
897.949	21344
898.07	21180
898.19	21279
898.311	21363
898.431	21252
898.552	21462
898.672	21492
898.792	21279
898.913	21245
899.033	21351
899.153	21294
899.273	21173
899.393	21093
899.513	21058
899.633	21131
899.753	21184
899.873	21028
899.993	21199
900.113	21020
900.232	21001
900.352	20982
900.472	20956
900.591	20796
900.711	20826
900.83	20819
900.95	20929
901.069	20864
901.189	20697
901.308	20568
901.427	20400
901.546	20434
901.665	20473
901.784	20374
901.904	20233
902.023	20202
902.141	19970
902.26	20027
902.379	20050
902.498	19989
902.617	19944
902.735	19951
902.854	19826
902.973	19723
903.091	19563
903.21	19525
903.328	19609
903.446	19575
903.565	19384
903.683	19354
903.801	19247
903.919	19415
904.038	19324
904.156	19240
904.274	19247
904.392	19015
904.51	19061
904.627	19050
904.745	19133
904.863	19160
904.981	18897
905.098	18878
905.216	18840
905.334	18833
905.451	18772
905.569	18730
905.686	18863
905.803	18814
905.921	18650
906.038	18703
906.155	18582
906.272	18517
906.389	18471
906.506	18384
906.623	18433
906.74	18353
906.857	18247
906.974	18262
907.091	18334
907.208	18479
907.324	18330
907.441	18216
907.557	18117
907.674	18015
907.79	18038
907.907	18003
908.023	18022
908.139	17999
908.256	18102
908.372	17859
908.488	17893
908.604	17874
908.72	17722
908.836	17901
908.952	17794
909.068	17775
909.184	17809
909.3	17783
909.415	17771
909.531	17794
909.647	17429
909.762	17467
909.878	17410
909.993	17524
910.108	17524
910.224	17417
910.339	17421
910.454	17360
910.57	17261
910.685	17128
910.8	17452
910.915	17395
911.03	17311
911.145	17113
911.259	16980
911.374	17010
911.489	16934
911.604	16923
911.718	16850
911.833	16854
911.947	16744
912.062	16702
912.176	16782
912.291	16862
912.405	16797
912.519	16942
912.633	16961
912.748	16809
912.862	16767
912.976	16561
913.09	16538
913.204	16634
913.318	16622
913.431	16630
913.545	16641
913.659	16683
913.772	16588
913.886	16440
914	16291
914.113	16481
914.226	16489
914.34	16470
914.453	16276
914.566	16390
914.68	16280
914.793	16253
914.906	15975
915.019	15964
915.132	15956
915.245	15922
915.358	15895
915.47	15987
915.583	15888
915.696	16051
915.809	16116
915.921	16090
916.034	15991
916.146	15880
916.259	15884
916.371	15941
916.483	15873
916.595	15713
916.708	15759
916.82	15747
916.932	15770
917.044	15667
917.156	15629
917.268	15587
917.38	15599
917.491	15576
917.603	15530
917.715	15595
917.826	15625
917.938	15492
918.049	15443
918.161	15466
918.272	15603
918.384	15591
918.495	15564
918.606	15355
918.717	15268
918.828	15336
918.939	15336
919.05	15237
919.161	15272
919.272	15108
919.383	15138
919.494	15283
919.604	15519
919.715	15340
919.826	15199
919.936	15237
920.047	15252
920.157	15397
920.267	15397
920.378	15329
920.488	15226
920.598	15500
920.708	15610
920.818	15367
920.928	15393
921.038	15488
921.148	15496
921.258	15264
921.368	15089
921.477	15039
921.587	15047
921.697	14800
921.806	15017
921.916	14739
922.025	14693
922.134	14575
922.244	14549
922.353	14651
922.462	14526
922.571	14415
922.68	14271
922.789	14244
922.898	14240
923.007	14317
923.116	14313
923.224	14138
923.333	14271
923.442	14153
923.55	14008
923.659	13993
923.767	14103
923.876	14046
923.984	14077
924.092	13947
924.201	13959
924.309	13928
924.417	13978
924.525	13989
924.633	13883
924.741	14648
924.849	13693
924.956	13803
925.064	13674
925.172	13487
925.279	13620
925.387	13670
925.494	13666
925.602	13765
925.709	13613
925.816	13487
925.924	13502
926.031	13636
926.138	13556
926.245	13521
926.352	13472
926.459	13597
926.566	13457
926.673	13514
926.779	13400
926.886	13354
926.993	13400
927.099	13133
927.206	13107
927.312	13080
927.419	13266
927.525	13122
927.631	13217
927.737	13061
927.843	13072
927.95	12989
928.056	12913
928.162	13034
928.267	12947
928.373	13624
928.479	13031
928.585	12806
928.69	12935
928.796	12932
928.901	12863
929.007	12715
929.112	12844
929.218	12741
929.323	12741
929.428	12726
929.533	12837
929.638	12513
929.743	12604
929.848	12673
929.953	12574
930.058	12471
930.163	12395
930.267	12327
930.372	12486
930.477	12338
930.581	12631
930.685	12353
930.79	12220
930.894	12251
930.998	12232
931.103	12311
931.207	12019
931.311	11843
931.415	11756
931.519	11585
931.623	11566
