Data from test_V78500241_2562.txt Node
Date: Fri Mar 25 15:59:32 CST 2022
User: usil
Spectrometer: V785-0024
Trigger mode: 0
Integration Time (sec): 4.000000E-1
Scans to average: 1
Nonlinearity correction enabled: false
Boxcar width: 0
Storing dark spectrum: false
XAxis mode: Wavelengths
Number of Pixels in Spectrum: 1024
>>>>>Begin Spectral Data<<<<<
801.071	28896
801.214	28691
801.356	28554
801.499	28394
801.641	28394
801.783	28337
801.926	28557
802.068	28318
802.211	28295
802.353	28276
802.496	28120
802.638	27956
802.78	28029
802.923	28044
803.065	27907
803.208	27975
803.35	27968
803.492	28074
803.635	28253
803.777	28249
803.919	28246
804.061	28664
804.204	28204
804.346	28265
804.488	28219
804.63	28265
804.773	28131
804.915	28253
805.057	28481
805.199	28181
805.341	28497
805.483	28352
805.626	28432
805.768	28299
805.91	28394
806.052	28531
806.194	28303
806.336	28523
806.478	28367
806.62	28519
806.762	28569
806.904	28641
807.046	29025
807.188	28873
807.33	29044
807.472	28888
807.614	28881
807.756	28888
807.898	28675
808.04	28721
808.182	28736
808.324	28824
808.465	28824
808.607	28923
808.749	29124
808.891	29330
809.033	29242
809.174	29204
809.316	29166
809.458	29174
809.6	29029
809.741	29311
809.883	29296
810.025	29353
810.166	29452
810.308	29459
810.45	29490
810.591	29299
810.733	29174
810.875	29124
811.016	29033
811.158	29117
811.299	29261
811.441	29307
811.582	29364
811.724	28991
811.865	29204
812.007	29037
812.148	29239
812.29	29208
812.431	29349
812.573	29471
812.714	29577
812.855	29581
812.997	29775
813.138	30007
813.279	29756
813.421	29767
813.562	29630
813.703	29463
813.845	29334
813.986	29140
814.127	28919
814.268	28869
814.41	28915
814.551	28919
814.692	28892
814.833	28793
814.974	28873
815.115	29025
815.256	28569
815.397	28786
815.539	28649
815.68	28664
815.821	28645
815.962	28675
816.103	28759
816.244	28618
816.385	28398
816.526	28409
816.666	28257
816.807	27949
816.948	28249
817.089	28261
817.23	28318
817.371	28280
817.512	28215
817.653	28025
817.793	28223
817.934	28162
818.075	28226
818.216	28143
818.356	28090
818.497	28074
818.638	27861
818.778	27926
818.919	27934
819.06	28059
819.2	28063
819.341	28109
819.481	28120
819.622	28226
819.762	28432
819.903	28413
820.043	28314
820.184	28211
820.324	28363
820.465	28455
820.605	28284
820.746	28322
820.886	28185
821.026	28360
821.167	28253
821.307	28329
821.447	28253
821.588	28284
821.728	27903
821.868	27800
822.008	27728
822.149	27720
822.289	27606
822.429	27431
822.569	27287
822.709	27279
822.849	27275
822.99	27252
823.13	27222
823.27	27176
823.41	27062
823.55	26929
823.69	26971
823.83	26986
823.97	26929
824.11	26758
824.25	26883
824.389	26800
824.529	26876
824.669	26750
824.809	26963
824.949	27032
825.089	26720
825.228	26819
825.368	26724
825.508	26773
825.648	26678
825.787	26838
825.927	26735
826.067	26590
826.206	26804
826.346	26659
826.485	26834
826.625	26613
826.765	26887
826.904	26667
827.044	26507
827.183	26533
827.323	26469
827.462	26556
827.601	26465
827.741	26366
827.88	26598
828.02	26233
828.159	26385
828.298	26473
828.437	26503
828.577	26355
828.716	26476
828.855	26351
828.994	26138
829.134	26164
829.273	26081
829.412	25978
829.551	25993
829.69	26077
829.829	26176
829.968	26145
830.107	26282
830.246	26183
830.385	25989
830.524	26001
830.663	25894
830.802	25811
830.941	25658
831.08	25712
831.219	25921
831.357	25788
831.496	25803
831.635	25655
831.774	25693
831.913	25624
832.051	25354
832.19	25472
832.329	25487
832.467	25312
832.606	25346
832.744	25384
832.883	25278
833.022	25244
833.16	25381
833.299	25362
833.437	25422
833.576	25407
833.714	25521
833.852	25449
833.991	25575
834.129	25563
834.267	25586
834.406	25346
834.544	25400
834.682	25377
834.821	25381
834.959	25552
835.097	25396
835.235	25514
835.373	25400
835.511	25457
835.65	25183
835.788	25297
835.926	25187
836.064	25141
836.202	25072
836.34	25209
836.478	25304
836.615	25133
836.753	25270
836.891	25354
837.029	25259
837.167	25183
837.305	25156
837.443	25274
837.58	25072
837.718	25160
837.856	25107
837.993	24962
838.131	25114
838.269	24989
838.406	24996
838.544	24757
838.681	24707
838.819	24734
838.956	24490
839.094	24547
839.231	24700
839.369	24642
839.506	24859
839.643	24859
839.781	24566
839.918	24369
840.055	24650
840.193	24604
840.33	24391
840.467	24433
840.604	24471
840.742	24707
840.879	24216
841.016	24456
841.153	24308
841.29	24467
841.427	24475
841.564	24490
841.701	24380
841.838	24528
841.975	24350
842.112	24388
842.249	24273
842.385	24228
842.522	24441
842.659	24266
842.796	24117
842.933	24285
843.069	24201
843.206	24121
843.343	24304
843.479	24239
843.616	24159
843.752	24007
843.889	23939
844.025	23988
844.162	23988
844.298	24095
844.435	24060
844.571	23931
844.708	23851
844.844	24213
844.98	24045
845.117	24117
845.253	23866
845.389	23851
845.525	23950
845.661	23813
845.798	23707
845.934	23813
846.07	23726
846.206	23726
846.342	23771
846.478	23691
846.614	23429
846.75	23417
846.886	23425
847.022	23482
847.158	23474
847.294	23452
847.429	23406
847.565	23452
847.701	23596
847.837	23022
847.972	23132
848.108	23147
848.244	23250
848.379	23014
848.515	23014
848.65	22900
848.786	22980
848.921	23025
849.057	23094
849.192	23098
849.328	23083
849.463	22995
849.598	22889
849.734	22915
849.869	22957
850.004	22710
850.14	22828
850.275	22869
850.41	22603
850.545	22793
850.68	22763
850.815	22828
850.95	22812
851.085	22763
851.22	22965
851.355	22824
851.49	22835
851.625	22725
851.76	22717
851.895	22691
852.03	22694
852.165	22672
852.299	22873
852.434	22797
852.569	22930
852.703	22866
852.838	22862
852.973	22866
853.107	22850
853.242	22759
853.376	22542
853.511	22466
853.645	22637
853.78	22774
853.914	22607
854.048	22462
854.183	22618
854.317	22550
854.451	22679
854.585	22618
854.72	22656
854.854	22615
854.988	22527
855.122	22493
855.256	22641
855.39	22615
855.524	22717
855.658	22611
855.792	22596
855.926	22721
856.06	22603
856.194	22577
856.327	22462
856.461	22489
856.595	22512
856.729	22603
856.862	22672
856.996	22542
857.13	22694
857.263	22790
857.397	22793
857.53	22603
857.664	22641
857.797	22641
857.931	22649
858.064	22698
858.197	22744
858.331	22698
858.464	22634
858.597	22268
858.731	22611
858.864	22508
858.997	22527
859.13	22497
859.263	22683
859.396	22656
859.529	22531
859.662	22630
859.795	22481
859.928	22691
860.061	22782
860.194	22904
860.327	22736
860.46	22660
860.592	22736
860.725	22839
860.858	22831
860.99	22440
861.123	22500
861.256	22592
861.388	22546
861.521	23311
861.653	22466
861.786	22459
861.918	22443
862.05	22390
862.183	22565
862.315	22535
862.447	22596
862.58	22504
862.712	22181
862.844	22303
862.976	22257
863.108	22382
863.24	22725
863.372	22246
863.504	22363
863.636	22352
863.768	22382
863.9	22177
864.032	22196
864.164	22272
864.296	22398
864.428	22474
864.559	22352
864.691	22386
864.823	22459
864.954	22162
865.086	22188
865.217	22063
865.349	22223
865.48	22234
865.612	22291
865.743	22341
865.875	22249
866.006	22173
866.137	22131
866.269	22242
866.4	22204
866.531	22097
866.662	22105
866.793	22109
866.924	21960
867.055	22101
867.186	22124
867.317	22185
867.448	22006
867.579	22192
867.71	21991
867.841	22048
867.972	22139
868.103	22086
868.233	22067
868.364	22112
868.495	22169
868.625	22299
868.756	22443
868.886	22284
869.017	22329
869.147	22440
869.278	22519
869.408	22462
869.539	22314
869.669	22390
869.799	22428
869.929	22485
870.06	22546
870.19	22691
870.32	22542
870.45	22656
870.58	22812
870.71	22850
870.84	22869
870.97	22660
871.1	22645
871.23	22866
871.36	22991
871.489	22824
871.619	22877
871.749	22919
871.879	22847
872.008	23071
872.138	22915
872.267	22908
872.397	22892
872.526	22843
872.656	22877
872.785	22824
872.915	22999
873.044	23048
873.173	23014
873.303	23048
873.432	23033
873.561	23041
873.69	23041
873.819	22850
873.948	23003
874.077	22953
874.206	22915
874.335	22938
874.464	23098
874.593	23189
874.722	23159
874.851	23223
874.979	23235
875.108	23216
875.237	23117
875.365	23056
875.494	23105
875.623	23265
875.751	23090
875.88	23254
876.008	23288
876.136	23273
876.265	23467
876.393	23714
876.521	23638
876.65	23562
876.778	23547
876.906	23539
877.034	23379
877.162	23512
877.29	23531
877.418	23585
877.546	23535
877.674	23406
877.802	23455
877.93	23463
878.058	23486
878.185	23406
878.313	23512
878.441	23364
878.568	23288
878.696	23307
878.824	23539
878.951	23562
879.079	23676
879.206	23882
879.333	23737
879.461	23459
879.588	23623
879.715	23741
879.842	23775
879.97	23493
880.097	23406
880.224	23265
880.351	23448
880.478	23391
880.605	23383
880.732	23258
880.859	23585
880.986	23391
881.112	23387
881.239	23277
881.366	23067
881.493	22866
881.619	22892
881.746	22980
881.872	22869
881.999	22748
882.125	22904
882.252	22915
882.378	22847
882.505	22919
882.631	22809
882.757	22668
882.883	22592
883.01	22569
883.136	22588
883.262	22436
883.388	22440
883.514	22512
883.64	22603
883.766	22474
883.892	22272
884.018	22485
884.143	22519
884.269	22580
884.395	22261
884.52	22249
884.646	22188
884.772	22303
884.897	22154
885.023	22287
885.148	22310
885.274	22409
885.399	22344
885.524	22147
885.65	22196
885.775	22196
885.9	22139
886.025	22390
886.15	22367
886.275	22226
886.4	22105
886.525	22086
886.65	22078
886.775	22040
886.9	22188
887.025	22398
887.149	22097
887.274	22040
887.399	21888
887.523	21869
887.648	21846
887.773	21949
887.897	21918
888.021	22002
888.146	22010
888.27	21991
888.395	22070
888.519	21895
888.643	22002
888.767	21987
888.891	21854
889.015	21728
889.139	21854
889.263	21770
889.387	21789
889.511	21975
889.635	21854
889.759	21766
889.883	21808
890.006	21724
890.13	21762
890.254	21576
890.377	21648
890.501	21519
890.624	21397
890.748	21564
890.871	21275
890.995	21329
891.118	21237
891.241	21256
891.364	21424
891.488	21466
891.611	21420
891.734	21351
891.857	21386
891.98	21188
892.103	21233
892.226	21245
892.349	21332
892.471	21024
892.594	21192
892.717	21275
892.839	21222
892.962	21230
893.085	21291
893.207	21085
893.33	21173
893.452	21070
893.575	21313
893.697	21199
893.819	21252
893.941	21313
894.064	21214
894.186	21081
894.308	21066
894.43	21291
894.552	21245
894.674	21302
894.796	21036
894.918	21211
895.04	21089
895.161	21306
895.283	21154
895.405	21074
895.526	21192
895.648	21146
895.769	21203
895.891	21222
896.012	21214
896.134	21173
896.255	21150
896.376	21001
896.498	21188
896.619	21233
896.74	21108
896.861	21195
896.982	21462
897.103	21583
897.224	21412
897.345	21237
897.466	21401
897.587	21408
897.708	21511
897.828	21405
897.949	21268
898.07	21226
898.19	21165
898.311	21230
898.431	21260
898.552	21412
898.672	21329
898.792	21477
898.913	21363
899.033	21275
899.153	21302
899.273	21096
899.393	21135
899.513	20979
899.633	21112
899.753	21138
899.873	21123
899.993	20975
900.113	20975
900.232	21142
900.352	21039
900.472	20933
900.591	20853
900.711	20937
900.83	20876
900.95	20891
901.069	20895
901.189	20811
901.308	20587
901.427	20438
901.546	20431
901.665	20434
901.784	20450
901.904	20446
902.023	20240
902.141	20035
902.26	19944
902.379	20043
902.498	19898
902.617	19814
902.735	20046
902.854	19818
902.973	19776
903.091	19651
903.21	19556
903.328	19616
903.446	19563
903.565	19365
903.683	19480
903.801	19236
903.919	19434
904.038	19285
904.156	19217
904.274	19228
904.392	19190
904.51	19069
904.627	19015
904.745	19129
904.863	19141
904.981	19008
905.098	18848
905.216	18760
905.334	18817
905.451	18802
905.569	18787
905.686	18783
905.803	18741
905.921	18658
906.038	18688
906.155	18612
906.272	18528
906.389	18471
906.506	18243
906.623	18369
906.74	18365
906.857	18232
906.974	18190
907.091	18407
907.208	18445
907.324	18289
907.441	18281
907.557	18068
907.674	17988
907.79	17958
907.907	17946
908.023	18064
908.139	18079
908.256	18007
908.372	17942
908.488	17984
908.604	17764
908.72	17745
908.836	17745
908.952	17794
909.068	17790
909.184	17824
909.3	17809
909.415	17939
909.531	17707
909.647	17512
909.762	17501
909.878	17410
909.993	17425
910.108	17433
910.224	17315
910.339	17410
910.454	17269
910.57	17170
910.685	17223
910.8	17455
910.915	17372
911.03	17174
911.145	17105
911.259	17098
911.374	17018
911.489	16972
911.604	16919
911.718	16694
911.833	16797
911.947	16694
912.062	16641
912.176	16786
912.291	16774
912.405	16656
912.519	17041
912.633	16930
912.748	16828
912.862	16660
912.976	16615
913.09	16546
913.204	16672
913.318	16535
913.431	16721
913.545	16596
913.659	16569
913.772	16523
913.886	16462
914	16348
914.113	16481
914.226	16500
914.34	16379
914.453	16219
914.566	16428
914.68	16200
914.793	16211
914.906	15918
915.019	16029
915.132	15876
915.245	15975
915.358	15934
915.47	15915
915.583	15884
915.696	15915
915.809	16082
915.921	16116
916.034	15812
916.146	15880
916.259	15789
916.371	15873
916.483	15835
916.595	15686
916.708	15739
916.82	15720
916.932	15720
917.044	15679
917.156	15572
917.268	15568
917.38	15641
917.491	15644
917.603	15492
917.715	15591
917.826	15580
917.938	15458
918.049	15374
918.161	15466
918.272	15595
918.384	15713
918.495	15469
918.606	15268
918.717	15245
918.828	15226
918.939	15351
919.05	15214
919.161	15336
919.272	14952
919.383	15081
919.494	15348
919.604	15439
919.715	15214
919.826	15176
919.936	15294
920.047	15344
920.157	15211
920.267	15462
920.378	15310
920.488	15241
920.598	15408
920.708	15485
920.818	15363
920.928	15397
921.038	15485
921.148	15450
921.258	15226
921.368	15089
921.477	15009
921.587	14937
921.697	14750
921.806	15036
921.916	14864
922.025	14594
922.134	14587
922.244	14560
922.353	14701
922.462	14488
922.571	14396
922.68	14271
922.789	14187
922.898	14202
923.007	14202
923.116	14313
923.224	14275
923.333	14210
923.442	14077
923.55	14058
923.659	14035
923.767	14142
923.876	14046
923.984	14058
924.092	13909
924.201	14008
924.309	13989
924.417	13940
924.525	13871
924.633	13780
924.741	14895
924.849	13632
924.956	13894
925.064	13658
925.172	13616
925.279	13582
925.387	13689
925.494	13666
925.602	13727
925.709	13643
925.816	13518
925.924	13567
926.031	13636
926.138	13567
926.245	13563
926.352	13434
926.459	13563
926.566	13594
926.673	13411
926.779	13445
926.886	13263
926.993	13278
927.099	13156
927.206	13076
927.312	13088
927.419	13126
927.525	13164
927.631	13152
927.737	13107
927.843	13046
927.95	12894
928.056	12890
928.162	13004
928.267	13069
928.373	13491
928.479	13088
928.585	12882
928.69	12932
928.796	12951
928.901	12837
929.007	12673
929.112	12806
929.218	12783
929.323	12650
929.428	12730
929.533	12791
929.638	12574
929.743	12604
929.848	12753
929.953	12711
930.058	12536
930.163	12410
930.267	12441
930.372	12559
930.477	12426
930.581	12570
930.685	12395
930.79	12247
930.894	12292
930.998	12266
931.103	12346
931.207	11958
931.311	11939
931.415	11828
931.519	11653
931.623	11642
