Data from test_V78500241_3712.txt Node
Date: Fri Mar 25 16:07:30 CST 2022
User: usil
Spectrometer: V785-0024
Trigger mode: 0
Integration Time (sec): 4.000000E-1
Scans to average: 1
Nonlinearity correction enabled: false
Boxcar width: 0
Storing dark spectrum: false
XAxis mode: Wavelengths
Number of Pixels in Spectrum: 1024
>>>>>Begin Spectral Data<<<<<
801.071	28291
801.214	28226
801.356	27911
801.499	27895
801.641	27732
801.783	27903
801.926	27838
802.068	27785
802.211	27747
802.353	27728
802.496	27561
802.638	27583
802.78	27405
802.923	27416
803.065	27363
803.208	27363
803.35	27526
803.492	27526
803.635	27793
803.777	27431
803.919	27743
804.061	28097
804.204	27797
804.346	27595
804.488	27701
804.63	27663
804.773	27778
804.915	27759
805.057	27835
805.199	27660
805.341	27709
805.483	27918
805.626	27903
805.768	27907
805.91	27857
806.052	27975
806.194	27869
806.336	27983
806.478	27884
806.62	27660
806.762	28063
806.904	28177
807.046	28516
807.188	28291
807.33	28306
807.472	28497
807.614	28249
807.756	28310
807.898	28219
808.04	27975
808.182	28109
808.324	28181
808.465	28116
808.607	28341
808.749	28557
808.891	28774
809.033	28679
809.174	28527
809.316	28371
809.458	28611
809.6	28519
809.741	28660
809.883	28767
810.025	28858
810.166	28801
810.308	28812
810.45	28694
810.591	28759
810.733	28535
810.875	28592
811.016	28459
811.158	28546
811.299	28687
811.441	28706
811.582	28615
811.724	28641
811.865	28538
812.007	28546
812.148	28531
812.29	28675
812.431	28675
812.573	28968
812.714	28919
812.855	29071
812.997	29277
813.138	29269
813.279	29185
813.421	29018
813.562	29018
813.703	28900
813.845	28698
813.986	28504
814.127	28261
814.268	28223
814.41	28207
814.551	28207
814.692	28344
814.833	28166
814.974	28249
815.115	28284
815.256	27994
815.397	28230
815.539	28215
815.68	27991
815.821	28128
815.962	27968
816.103	28086
816.244	27922
816.385	27808
816.526	27827
816.666	27557
816.807	27488
816.948	27599
817.089	27587
817.23	27572
817.371	27424
817.512	27485
817.653	27679
817.793	27386
817.934	27572
818.075	27583
818.216	27553
818.356	27564
818.497	27382
818.638	27154
818.778	27302
818.919	27249
819.06	27355
819.2	27473
819.341	27519
819.481	27572
819.622	27614
819.762	27785
819.903	27819
820.043	27762
820.184	27732
820.324	27656
820.465	27816
820.605	27637
820.746	27572
820.886	27641
821.026	27675
821.167	27652
821.307	27644
821.447	27610
821.588	27504
821.728	27458
821.868	27192
822.008	27013
822.149	27058
822.289	27005
822.429	26724
822.569	26697
822.709	26743
822.849	26659
822.99	26583
823.13	26518
823.27	26590
823.41	26317
823.55	26145
823.69	26374
823.83	26423
823.97	26259
824.11	26107
824.25	26126
824.389	26183
824.529	26351
824.669	26161
824.809	26210
824.949	26305
825.089	26389
825.228	26199
825.368	25978
825.508	25978
825.648	26130
825.787	26077
825.927	26138
826.067	25959
826.206	26058
826.346	26195
826.485	26100
826.625	26088
826.765	26065
826.904	26096
827.044	25868
827.183	25849
827.323	25704
827.462	25807
827.601	25788
827.741	25715
827.88	25780
828.02	25563
828.159	25753
828.298	25746
828.437	25769
828.577	25708
828.716	25837
828.855	25651
828.994	25460
829.134	25453
829.273	25575
829.412	25479
829.551	25491
829.69	25514
829.829	25575
829.968	25483
830.107	25605
830.246	25426
830.385	25362
830.524	25164
830.663	25266
830.802	25122
830.941	25168
831.08	25012
831.219	25183
831.357	25099
831.496	25304
831.635	25057
831.774	24966
831.913	24928
832.051	24764
832.19	25004
832.329	24821
832.467	24734
832.606	24547
832.744	24669
832.883	24707
833.022	24555
833.16	24787
833.299	24840
833.437	24730
833.576	24897
833.714	24783
833.852	24882
833.991	24882
834.129	24810
834.267	24829
834.406	24806
834.544	24848
834.682	24886
834.821	24791
834.959	24920
835.097	24738
835.235	24848
835.373	24878
835.511	24715
835.65	24658
835.788	24616
835.926	24608
836.064	24498
836.202	24505
836.34	24582
836.478	24665
836.615	24635
836.753	24696
836.891	24776
837.029	24734
837.167	24589
837.305	24559
837.443	24589
837.58	24448
837.718	24642
837.856	24422
837.993	24509
838.131	24513
838.269	24342
838.406	24266
838.544	24182
838.681	24022
838.819	24091
838.956	24022
839.094	23950
839.231	23992
839.369	23999
839.506	24247
839.643	24247
839.781	23897
839.918	23916
840.055	23779
840.193	23798
840.33	23832
840.467	23908
840.604	23813
840.742	24125
840.879	23630
841.016	23996
841.153	23722
841.29	24041
841.427	23767
841.564	23939
841.701	23843
841.838	23783
841.975	23802
842.112	23802
842.249	23562
842.385	23627
842.522	23878
842.659	23729
842.796	23585
842.933	23623
843.069	23520
843.206	23668
843.343	23722
843.479	23535
843.616	23543
843.752	23417
843.889	23337
844.025	23558
844.162	23387
844.298	23547
844.435	23349
844.571	23318
844.708	23414
844.844	23589
844.98	23596
845.117	23425
845.253	23360
845.389	23220
845.525	23311
845.661	23227
845.798	23181
845.934	23181
846.07	23124
846.206	23159
846.342	23227
846.478	23064
846.614	22953
846.75	22782
846.886	22858
847.022	22900
847.158	22759
847.294	22976
847.429	22881
847.565	22854
847.701	23140
847.837	22508
847.972	22599
848.108	22683
848.244	22603
848.379	22474
848.515	22417
848.65	22348
848.786	22428
848.921	22459
849.057	22516
849.192	22455
849.328	22478
849.463	22310
849.598	22272
849.734	22215
849.869	22291
850.004	22173
850.14	22059
850.275	22284
850.41	22249
850.545	22078
850.68	22078
850.815	22078
850.95	22147
851.085	22356
851.22	22295
851.355	22268
851.49	22131
851.625	22173
851.76	22230
851.895	22116
852.03	22116
852.165	22147
852.299	22341
852.434	22207
852.569	22246
852.703	22188
852.838	22173
852.973	22424
853.107	22421
853.242	22158
853.376	22078
853.511	21835
853.645	22025
853.78	22143
853.914	21987
854.048	21930
854.183	21926
854.317	22082
854.451	22211
854.585	22070
854.72	21983
854.854	22078
854.988	21949
855.122	22162
855.256	21941
855.39	22051
855.524	22105
855.658	22181
855.792	22010
855.926	21968
856.06	22059
856.194	22070
856.327	22070
856.461	21926
856.595	21907
856.729	22006
856.862	22051
856.996	21915
857.13	22090
857.263	22112
857.397	22086
857.53	21915
857.664	22143
857.797	22059
857.931	22017
858.064	22090
858.197	21998
858.331	22040
858.464	21968
858.597	21873
858.731	22078
858.864	21892
858.997	21975
859.13	22013
859.263	21941
859.396	22040
859.529	21968
859.662	21987
859.795	21907
859.928	22070
860.061	22101
860.194	22192
860.327	22063
860.46	22059
860.592	22124
860.725	22112
860.858	22120
860.99	22131
861.123	22044
861.256	21994
861.388	21987
861.521	22683
861.653	21975
861.786	21835
861.918	21797
862.05	22093
862.183	21926
862.315	21911
862.447	22040
862.58	22006
862.712	21785
862.844	21701
862.976	21819
863.108	21869
863.24	22196
863.372	21701
863.504	21690
863.636	21622
863.768	21736
863.9	21606
864.032	21538
864.164	21705
864.296	21667
864.428	21736
864.559	21755
864.691	21770
864.823	21736
864.954	21781
865.086	21656
865.217	21679
865.349	21507
865.48	21473
865.612	21595
865.743	21728
865.875	21618
866.006	21572
866.137	21641
866.269	21603
866.4	21549
866.531	21557
866.662	21523
866.793	21542
866.924	21553
867.055	21504
867.186	21591
867.317	21545
867.448	21443
867.579	21591
867.71	21401
867.841	21511
867.972	21557
868.103	21545
868.233	21492
868.364	21629
868.495	21587
868.625	21713
868.756	21937
868.886	21633
869.017	21603
869.147	21926
869.278	21804
869.408	21774
869.539	21789
869.669	21861
869.799	21907
869.929	21785
870.06	21930
870.19	22101
870.32	22067
870.45	22025
870.58	22055
870.71	22299
870.84	22325
870.97	22101
871.1	22188
871.23	22363
871.36	22322
871.489	22295
871.619	22405
871.749	22417
871.879	22428
872.008	22516
872.138	22424
872.267	22424
872.397	22268
872.526	22135
872.656	22249
872.785	22204
872.915	22428
873.044	22432
873.173	22303
873.303	22447
873.432	22455
873.561	22527
873.69	22428
873.819	22394
873.948	22493
874.077	22287
874.206	22405
874.335	22341
874.464	22436
874.593	22596
874.722	22546
874.851	22733
874.979	22710
875.108	22679
875.237	22546
875.365	22554
875.494	22542
875.623	22698
875.751	22649
875.88	22542
876.008	22831
876.136	22828
876.265	23029
876.393	23200
876.521	23117
876.65	23200
876.778	22938
876.906	22904
877.034	22839
877.162	22991
877.29	22961
877.418	22896
877.546	23079
877.674	22972
877.802	22896
877.93	22953
878.058	22877
878.185	22968
878.313	22850
878.441	22987
878.568	22809
878.696	22748
878.824	23003
878.951	23025
879.079	23132
879.206	23299
879.333	23197
879.461	23006
879.588	22972
879.715	23231
879.842	23170
879.97	23071
880.097	22786
880.224	22706
880.351	22820
880.478	22820
880.605	22713
880.732	22679
880.859	23033
880.986	22839
881.112	22839
881.239	22790
881.366	22470
881.493	22512
881.619	22325
881.746	22459
881.872	22443
881.999	22223
882.125	22337
882.252	22382
882.378	22371
882.505	22413
882.631	22204
882.757	22040
882.883	22055
883.01	22139
883.136	21994
883.262	21994
883.388	21934
883.514	22067
883.64	22040
883.766	21907
883.892	21846
884.018	21937
884.143	21945
884.269	22055
884.395	21736
884.52	21637
884.646	21720
884.772	21526
884.897	21561
885.023	21800
885.148	21774
885.274	21956
885.399	21804
885.524	21694
885.65	21717
885.775	21724
885.9	21633
886.025	21656
886.15	21846
886.275	21637
886.4	21610
886.525	21633
886.65	21591
886.775	21629
886.9	21831
887.025	21816
887.149	21564
887.274	21492
887.399	21496
887.523	21511
887.648	21359
887.773	21256
887.897	21534
888.021	21454
888.146	21348
888.27	21507
888.395	21504
888.519	21473
888.643	21458
888.767	21500
888.891	21378
889.015	21241
889.139	21264
889.263	21131
889.387	21408
889.511	21393
889.635	21252
889.759	21207
889.883	21272
890.006	21222
890.13	21272
890.254	21119
890.377	21214
890.501	21017
890.624	21047
890.748	21104
890.871	20902
890.995	20705
891.118	20735
891.241	20743
891.364	20743
891.488	21009
891.611	20788
891.734	20746
891.857	20807
891.98	20712
892.103	20788
892.226	20769
892.349	20823
892.471	20648
892.594	20625
892.717	20853
892.839	20735
892.962	20632
893.085	20758
893.207	20663
893.33	20644
893.452	20689
893.575	20758
893.697	20705
893.819	20895
893.941	20842
894.064	20807
894.186	20705
894.308	20682
894.43	20830
894.552	20788
894.674	20807
894.796	20552
894.918	20758
895.04	20697
895.161	20868
895.283	20659
895.405	20613
895.526	20743
895.648	20689
895.769	20720
895.891	20743
896.012	20842
896.134	20720
896.255	20819
896.376	20686
896.498	20648
896.619	20693
896.74	20800
896.861	20785
896.982	20933
897.103	21268
897.224	20845
897.345	20906
897.466	20872
897.587	20830
897.708	20971
897.828	20948
897.949	20895
898.07	20686
898.19	20815
898.311	20982
898.431	20963
898.552	20941
898.672	21009
898.792	21062
898.913	20941
899.033	20811
899.153	20682
899.273	20469
899.393	20712
899.513	20716
899.633	20701
899.753	20617
899.873	20518
899.993	20720
900.113	20651
900.232	20674
900.352	20537
900.472	20560
900.591	20423
900.711	20522
900.83	20343
900.95	20560
901.069	20552
901.189	20256
901.308	20103
901.427	20005
901.546	20107
901.665	20020
901.784	20111
901.904	19921
902.023	19776
902.141	19655
902.26	19495
902.379	19651
902.498	19575
902.617	19567
902.735	19445
902.854	19430
902.973	19396
903.091	19145
903.21	19308
903.328	19141
903.446	19114
903.565	18993
903.683	18973
903.801	18844
903.919	18970
904.038	18939
904.156	18707
904.274	18764
904.392	18715
904.51	18821
904.627	18734
904.745	18734
904.863	18749
904.981	18547
905.098	18437
905.216	18433
905.334	18429
905.451	18418
905.569	18273
905.686	18441
905.803	18452
905.921	18148
906.038	18277
906.155	18315
906.272	18007
906.389	18022
906.506	17923
906.623	17935
906.74	17988
906.857	17764
906.974	17904
907.091	17901
907.208	17984
907.324	17954
907.441	17828
907.557	17756
907.674	17691
907.79	17604
907.907	17642
908.023	17657
908.139	17646
908.256	17547
908.372	17448
908.488	17478
908.604	17387
908.72	17318
908.836	17440
908.952	17410
909.068	17345
909.184	17493
909.3	17337
909.415	17493
909.531	17360
909.647	17056
909.762	17014
909.878	17060
909.993	17086
910.108	16995
910.224	16987
910.339	17048
910.454	16980
910.57	16892
910.685	16805
910.8	17136
910.915	17033
911.03	16828
911.145	16755
911.259	16603
911.374	16577
911.489	16554
911.604	16493
911.718	16356
911.833	16436
911.947	16352
912.062	16249
912.176	16417
912.291	16379
912.405	16379
912.519	16512
912.633	16550
912.748	16421
912.862	16318
912.976	16223
913.09	16139
913.204	16169
913.318	16207
913.431	16329
913.545	16246
913.659	16223
913.772	16067
913.886	16090
914	16002
914.113	16124
914.226	16158
914.34	15956
914.453	15907
914.566	16063
914.68	15808
914.793	15869
914.906	15618
915.019	15523
915.132	15526
915.245	15641
915.358	15644
915.47	15587
915.583	15625
915.696	15526
915.809	15648
915.921	15694
916.034	15492
916.146	15534
916.259	15469
916.371	15599
916.483	15389
916.595	15431
916.708	15416
916.82	15351
916.932	15382
917.044	15329
917.156	15374
917.268	15180
917.38	15272
917.491	15268
917.603	15180
917.715	15313
917.826	15291
917.938	15146
918.049	15062
918.161	15260
918.272	15268
918.384	15272
918.495	15074
918.606	15055
918.717	14891
918.828	15013
918.939	15051
919.05	14925
919.161	14952
919.272	14781
919.383	14853
919.494	15039
919.604	15119
919.715	15009
919.826	14785
919.936	14933
920.047	14937
920.157	14941
920.267	15100
920.378	14887
920.488	14868
920.598	15112
920.708	15169
920.818	15005
920.928	15100
921.038	15214
921.148	15256
921.258	14872
921.368	14792
921.477	14689
921.587	14640
921.697	14507
921.806	14621
921.916	14564
922.025	14286
922.134	14343
922.244	14298
922.353	14294
922.462	14164
922.571	14202
922.68	14031
922.789	13940
922.898	13871
923.007	13906
923.116	13906
923.224	13890
923.333	13955
923.442	13799
923.55	13715
923.659	13803
923.767	13868
923.876	13674
923.984	13788
924.092	13704
924.201	13715
924.309	13677
924.417	13700
924.525	13620
924.633	13514
924.741	14336
924.849	13339
924.956	13518
925.064	13411
925.172	13179
925.279	13358
925.387	13419
925.494	13327
925.602	13468
925.709	13365
925.816	13137
925.924	13225
926.031	13304
926.138	13308
926.245	13312
926.352	13213
926.459	13373
926.566	13358
926.673	13202
926.779	13122
926.886	13034
926.993	12829
927.099	12935
927.206	12863
927.312	12867
927.419	12928
927.525	12844
927.631	12856
927.737	12810
927.843	12779
927.95	12570
928.056	12741
928.162	12741
928.267	12734
928.373	13304
928.479	12719
928.585	12578
928.69	12646
928.796	12677
928.901	12471
929.007	12365
929.112	12471
929.218	12426
929.323	12384
929.428	12445
929.533	12601
929.638	12330
929.743	12350
929.848	12365
929.953	12384
930.058	12319
930.163	12045
930.267	12148
930.372	12251
930.477	11954
930.581	12311
930.685	12129
930.79	11973
930.894	11999
930.998	11977
931.103	12087
931.207	11657
931.311	11764
931.415	11490
931.519	11318
931.623	11440
