Data from test_V78500241_3598.txt Node
Date: Fri Mar 25 16:06:43 CST 2022
User: usil
Spectrometer: V785-0024
Trigger mode: 0
Integration Time (sec): 4.000000E-1
Scans to average: 1
Nonlinearity correction enabled: false
Boxcar width: 0
Storing dark spectrum: false
XAxis mode: Wavelengths
Number of Pixels in Spectrum: 1024
>>>>>Begin Spectral Data<<<<<
801.071	28957
801.214	28847
801.356	28687
801.499	28679
801.641	28660
801.783	28459
801.926	28630
802.068	28565
802.211	28599
802.353	28504
802.496	28272
802.638	28291
802.78	28284
802.923	28150
803.065	28169
803.208	28226
803.35	28306
803.492	28424
803.635	28535
803.777	28367
803.919	28417
804.061	28869
804.204	28516
804.346	28424
804.488	28485
804.63	28550
804.773	28379
804.915	28577
805.057	28637
805.199	28584
805.341	28546
805.483	28721
805.626	28626
805.768	28592
805.91	28618
806.052	28599
806.194	28672
806.336	28923
806.478	28736
806.62	28569
806.762	28881
806.904	29083
807.046	29307
807.188	29212
807.33	29121
807.472	29174
807.614	29060
807.756	29117
807.898	28987
808.04	28980
808.182	28999
808.324	28976
808.465	29033
808.607	29254
808.749	29341
808.891	29505
809.033	29554
809.174	29467
809.316	29596
809.458	29459
809.6	29269
809.741	29353
809.883	29566
810.025	29790
810.166	29733
810.308	29710
810.45	29642
810.591	29737
810.733	29516
810.875	29406
811.016	29307
811.158	29444
811.299	29463
811.441	29672
811.582	29531
811.724	29436
811.865	29292
812.007	29330
812.148	29478
812.29	29440
812.431	29566
812.573	29733
812.714	29847
812.855	29988
812.997	30121
813.138	30171
813.279	30102
813.421	30003
813.562	29958
813.703	29764
813.845	29718
813.986	29341
814.127	29197
814.268	29140
814.41	29090
814.551	29010
814.692	29136
814.833	29109
814.974	29041
815.115	29155
815.256	28999
815.397	29124
815.539	29029
815.68	29014
815.821	28805
815.962	29037
816.103	28854
816.244	28752
816.385	28763
816.526	28759
816.666	28721
816.807	28485
816.948	28538
817.089	28679
817.23	28447
817.371	28497
817.512	28455
817.653	28527
817.793	28401
817.934	28500
818.075	28497
818.216	28542
818.356	28375
818.497	28447
818.638	28109
818.778	28253
818.919	28226
819.06	28371
819.2	28337
819.341	28474
819.481	28459
819.622	28672
819.762	28881
819.903	28748
820.043	28691
820.184	28626
820.324	28645
820.465	28653
820.605	28767
820.746	28481
820.886	28489
821.026	28550
821.167	28694
821.307	28717
821.447	28394
821.588	28542
821.728	28413
821.868	28025
822.008	27907
822.149	27998
822.289	28036
822.429	27717
822.569	27671
822.709	27660
822.849	27488
822.99	27587
823.13	27416
823.27	27454
823.41	27363
823.55	27310
823.69	27454
823.83	27207
823.97	27207
824.11	27100
824.25	27039
824.389	27176
824.529	27188
824.669	26967
824.809	27062
824.949	27138
825.089	27332
825.228	27138
825.368	26940
825.508	27005
825.648	26990
825.787	27036
825.927	27203
826.067	26994
826.206	27154
826.346	26982
826.485	27017
826.625	27070
826.765	27104
826.904	27104
827.044	26872
827.183	26838
827.323	26720
827.462	26731
827.601	26746
827.741	26648
827.88	26670
828.02	26575
828.159	26667
828.298	26731
828.437	26857
828.577	26670
828.716	26769
828.855	26629
828.994	26556
829.134	26366
829.273	26374
829.412	26370
829.551	26442
829.69	26412
829.829	26469
829.968	26438
830.107	26473
830.246	26488
830.385	26229
830.524	26393
830.663	26290
830.802	26252
830.941	26210
831.08	25830
831.219	26138
831.357	26069
831.496	26214
831.635	25978
831.774	25947
831.913	25879
832.051	25826
832.19	25666
832.329	25719
832.467	25788
832.606	25666
832.744	25738
832.883	25841
833.022	25613
833.16	25750
833.299	25769
833.437	25624
833.576	25738
833.714	25917
833.852	25769
833.991	25780
834.129	25932
834.267	25887
834.406	25890
834.544	25723
834.682	25799
834.821	25674
834.959	25868
835.097	25704
835.235	25883
835.373	25681
835.511	25799
835.65	25689
835.788	25715
835.926	25438
836.064	25468
836.202	25578
836.34	25616
836.478	25582
836.615	25548
836.753	25495
836.891	25704
837.029	25552
837.167	25613
837.305	25453
837.443	25430
837.58	25339
837.718	25483
837.856	25434
837.993	25289
838.131	25384
838.269	25331
838.406	25236
838.544	25190
838.681	25118
838.819	25084
838.956	24825
839.094	24894
839.231	24966
839.369	25042
839.506	25232
839.643	25099
839.781	24913
839.918	24867
840.055	24905
840.193	24749
840.33	24798
840.467	24783
840.604	24844
840.742	25110
840.879	24620
841.016	24779
841.153	24509
841.29	24840
841.427	24791
841.564	24760
841.701	24814
841.838	24760
841.975	24658
842.112	24684
842.249	24597
842.385	24665
842.522	24753
842.659	24517
842.796	24604
842.933	24585
843.069	24361
843.206	24388
843.343	24623
843.479	24517
843.616	24547
843.752	24277
843.889	24338
844.025	24460
844.162	24346
844.298	24289
844.435	24311
844.571	24247
844.708	24422
844.844	24399
844.98	24445
845.117	24323
845.253	24380
845.389	24232
845.525	24209
845.661	24311
845.798	24076
845.934	24083
846.07	23969
846.206	24091
846.342	24102
846.478	24110
846.614	23786
846.75	23695
846.886	23828
847.022	23775
847.158	23745
847.294	23828
847.429	23779
847.565	23805
847.701	24007
847.837	23516
847.972	23573
848.108	23539
848.244	23585
848.379	23307
848.515	23372
848.65	23269
848.786	23330
848.921	23341
849.057	23467
849.192	23337
849.328	23311
849.463	23143
849.598	23178
849.734	23147
849.869	23204
850.004	23083
850.14	23162
850.275	23174
850.41	23037
850.545	22949
850.68	23029
850.815	23143
850.95	23197
851.085	23311
851.22	23155
851.355	23143
851.49	23109
851.625	23006
851.76	23071
851.895	23029
852.03	22987
852.165	23109
852.299	23181
852.434	23189
852.569	23162
852.703	23056
852.838	23117
852.973	23239
853.107	23299
853.242	22953
853.376	23052
853.511	22786
853.645	22938
853.78	23052
853.914	22881
854.048	22881
854.183	22850
854.317	22892
854.451	23159
854.585	22877
854.72	22854
854.854	23014
854.988	22805
855.122	23006
855.256	22805
855.39	22885
855.524	22892
855.658	23079
855.792	22961
855.926	22930
856.06	22961
856.194	22908
856.327	22850
856.461	22793
856.595	22843
856.729	22877
856.862	23033
856.996	22915
857.13	22908
857.263	23033
857.397	22968
857.53	22892
857.664	22999
857.797	22934
857.931	22919
858.064	23014
858.197	22987
858.331	22881
858.464	22896
858.597	22820
858.731	22923
858.864	22866
858.997	22858
859.13	22930
859.263	22873
859.396	23003
859.529	22908
859.662	22873
859.795	22885
859.928	22862
860.061	23128
860.194	23044
860.327	22980
860.46	22885
860.592	23067
860.725	23102
860.858	23022
860.99	22896
861.123	22892
861.256	22729
861.388	22877
861.521	23657
861.653	22831
861.786	22687
861.918	22767
862.05	22778
862.183	22862
862.315	22759
862.447	22949
862.58	22862
862.712	22675
862.844	22542
862.976	22752
863.108	22729
863.24	23155
863.372	22683
863.504	22649
863.636	22812
863.768	22569
863.9	22675
864.032	22687
864.164	22432
864.296	22675
864.428	22774
864.559	22691
864.691	22641
864.823	22519
864.954	22634
865.086	22508
865.217	22577
865.349	22466
865.48	22421
865.612	22428
865.743	22577
865.875	22500
866.006	22459
866.137	22535
866.269	22459
866.4	22580
866.531	22459
866.662	22478
866.793	22375
866.924	22268
867.055	22546
867.186	22516
867.317	22523
867.448	22371
867.579	22474
867.71	22196
867.841	22382
867.972	22424
868.103	22348
868.233	22459
868.364	22409
868.495	22535
868.625	22649
868.756	22698
868.886	22561
869.017	22752
869.147	22710
869.278	22763
869.408	22702
869.539	22622
869.669	22713
869.799	22649
869.929	22748
870.06	22809
870.19	22995
870.32	23014
870.45	22919
870.58	23052
870.71	23185
870.84	23079
870.97	23075
871.1	23098
871.23	23140
871.36	23307
871.489	23250
871.619	23261
871.749	23387
871.879	23337
872.008	23387
872.138	23220
872.267	23277
872.397	23147
872.526	23079
872.656	23033
872.785	23155
872.915	23326
873.044	23353
873.173	23197
873.303	23322
873.432	23265
873.561	23360
873.69	23280
873.819	23273
873.948	23345
874.077	23478
874.206	23280
874.335	23280
874.464	23425
874.593	23501
874.722	23433
874.851	23611
874.979	23402
875.108	23444
875.237	23421
875.365	23474
875.494	23395
875.623	23577
875.751	23356
875.88	23619
876.008	23695
876.136	23726
876.265	23821
876.393	23939
876.521	24022
876.65	23946
876.778	23870
876.906	23805
877.034	23809
877.162	23809
877.29	23813
877.418	23821
877.546	23779
877.674	23775
877.802	23714
877.93	23790
878.058	23809
878.185	23684
878.313	23707
878.441	23729
878.568	23604
878.696	23783
878.824	23813
878.951	23802
879.079	24003
879.206	24091
879.333	23935
879.461	23920
879.588	23923
879.715	24057
879.842	24201
879.97	23920
880.097	23604
880.224	23638
880.351	23668
880.478	23718
880.605	23585
880.732	23756
880.859	23828
880.986	23604
881.112	23638
881.239	23531
881.366	23330
881.493	23474
881.619	23223
881.746	23246
881.872	23239
881.999	23220
882.125	23060
882.252	23239
882.378	23064
882.505	23212
882.631	23033
882.757	23029
882.883	22961
883.01	22930
883.136	22778
883.262	22702
883.388	22618
883.514	22942
883.64	22908
883.766	22653
883.892	22656
884.018	22713
884.143	22866
884.269	22892
884.395	22577
884.52	22481
884.646	22611
884.772	22432
884.897	22356
885.023	22519
885.148	22577
885.274	22691
885.399	22516
885.524	22497
885.65	22508
885.775	22615
885.9	22440
886.025	22459
886.15	22588
886.275	22493
886.4	22367
886.525	22493
886.65	22432
886.775	22394
886.9	22493
887.025	22679
887.149	22519
887.274	22272
887.399	22363
887.523	22284
887.648	22078
887.773	22097
887.897	22314
888.021	22249
888.146	22181
888.27	22371
888.395	22268
888.519	22234
888.643	22265
888.767	22280
888.891	22200
889.015	22032
889.139	22124
889.263	22040
889.387	22109
889.511	22226
889.635	22166
889.759	21994
889.883	22017
890.006	21983
890.13	22150
890.254	21953
890.377	21960
890.501	21800
890.624	21770
890.748	21800
890.871	21641
890.995	21641
891.118	21473
891.241	21618
891.364	21622
891.488	21618
891.611	21633
891.734	21694
891.857	21701
891.98	21618
892.103	21641
892.226	21583
892.349	21587
892.471	21408
892.594	21572
892.717	21450
892.839	21435
892.962	21534
893.085	21568
893.207	21397
893.33	21408
893.452	21420
893.575	21542
893.697	21481
893.819	21545
893.941	21766
894.064	21633
894.186	21481
894.308	21359
894.43	21504
894.552	21534
894.674	21606
894.796	21481
894.918	21382
895.04	21420
895.161	21580
895.283	21439
895.405	21488
895.526	21466
895.648	21481
895.769	21450
895.891	21523
896.012	21481
896.134	21420
896.255	21492
896.376	21462
896.498	21534
896.619	21370
896.74	21416
896.861	21530
896.982	21686
897.103	21873
897.224	21797
897.345	21709
897.466	21538
897.587	21690
897.708	21637
897.828	21595
897.949	21656
898.07	21511
898.19	21690
898.311	21785
898.431	21561
898.552	21778
898.672	21800
898.792	21682
898.913	21652
899.033	21622
899.153	21439
899.273	21428
899.393	21386
899.513	21359
899.633	21264
899.753	21389
899.873	21298
899.993	21462
900.113	21332
900.232	21207
900.352	21283
900.472	21165
900.591	21184
900.711	21184
900.83	21108
900.95	21207
901.069	21089
901.189	21028
901.308	20746
901.427	20769
901.546	20724
901.665	20712
901.784	20701
901.904	20530
902.023	20514
902.141	20172
902.26	20336
902.379	20161
902.498	20084
902.617	20088
902.735	20244
902.854	20058
902.973	20073
903.091	19879
903.21	19879
903.328	19890
903.446	19784
903.565	19723
903.683	19548
903.801	19521
903.919	19540
904.038	19514
904.156	19468
904.274	19438
904.392	19407
904.51	19434
904.627	19362
904.745	19563
904.863	19350
904.981	19137
905.098	19141
905.216	19129
905.334	19171
905.451	19164
905.569	19019
905.686	19129
905.803	18977
905.921	18928
906.038	19042
906.155	18848
906.272	18730
906.389	18753
906.506	18551
906.623	18658
906.74	18589
906.857	18536
906.974	18494
907.091	18661
907.208	18639
907.324	18585
907.441	18555
907.557	18311
907.674	18296
907.79	18277
907.907	18220
908.023	18220
908.139	18239
908.256	18182
908.372	18213
908.488	18144
908.604	18030
908.72	17950
908.836	17958
908.952	18057
909.068	17950
909.184	18098
909.3	17923
909.415	17958
909.531	17965
909.647	17729
909.762	17615
909.878	17707
909.993	17779
910.108	17630
910.224	17619
910.339	17646
910.454	17592
910.57	17490
910.685	17455
910.8	17771
910.915	17729
911.03	17383
911.145	17376
911.259	17265
911.374	17330
911.489	17235
911.604	17166
911.718	17124
911.833	16961
911.947	16942
912.062	16862
912.176	16980
912.291	17075
912.405	16972
912.519	17128
912.633	17136
912.748	17022
912.862	16995
912.976	16820
913.09	16790
913.204	16820
913.318	16805
913.431	16980
913.545	16904
913.659	16934
913.772	16725
913.886	16618
914	16649
914.113	16634
914.226	16694
914.34	16577
914.453	16451
914.566	16653
914.68	16615
914.793	16379
914.906	16204
915.019	16310
915.132	16147
915.245	16204
915.358	16150
915.47	16143
915.583	16181
915.696	16166
915.809	16265
915.921	16207
916.034	16055
916.146	16063
916.259	16036
916.371	16112
916.483	16109
916.595	16032
916.708	15949
916.82	15991
916.932	16013
917.044	15895
917.156	15892
917.268	15930
917.38	15876
917.491	15766
917.603	15766
917.715	15808
917.826	15873
917.938	15648
918.049	15698
918.161	15663
918.272	15831
918.384	15819
918.495	15679
918.606	15504
918.717	15496
918.828	15481
918.939	15561
919.05	15424
919.161	15504
919.272	15203
919.383	15386
919.494	15618
919.604	15720
919.715	15542
919.826	15370
919.936	15355
920.047	15580
920.157	15507
920.267	15637
920.378	15416
920.488	15408
920.598	15663
920.708	15793
920.818	15526
920.928	15622
921.038	15724
921.148	15732
921.258	15397
921.368	15386
921.477	15291
921.587	15173
921.697	15028
921.806	15176
921.916	15058
922.025	14823
922.134	14933
922.244	14819
922.353	14796
922.462	14674
922.571	14575
922.68	14556
922.789	14408
922.898	14514
923.007	14396
923.116	14415
923.224	14412
923.333	14423
923.442	14339
923.55	14244
923.659	14286
923.767	14324
923.876	14263
923.984	14320
924.092	14206
924.201	14138
924.309	14115
924.417	14195
924.525	14016
924.633	14077
924.741	14952
924.849	13887
924.956	14008
925.064	13890
925.172	13715
925.279	13860
925.387	13871
925.494	13761
925.602	13921
925.709	13871
925.816	13731
925.924	13845
926.031	13757
926.138	13791
926.245	13803
926.352	13552
926.459	13830
926.566	13788
926.673	13651
926.779	13556
926.886	13499
926.993	13415
927.099	13365
927.206	13236
927.312	13343
927.419	13483
927.525	13335
927.631	13282
927.737	13221
927.843	13141
927.95	13061
928.056	13133
928.162	13175
928.267	13209
928.373	13780
928.479	13232
928.585	12977
928.69	13091
928.796	13183
928.901	12973
929.007	12821
929.112	12897
929.218	12924
929.323	12894
929.428	12856
929.533	12958
929.638	12738
929.743	12810
929.848	12878
929.953	12810
930.058	12623
930.163	12486
930.267	12612
930.372	12673
930.477	12566
930.581	12681
930.685	12593
930.79	12369
930.894	12433
930.998	12429
931.103	12479
931.207	12129
931.311	12057
931.415	11950
931.519	11798
931.623	11790
