Data from test_V78500241_2105.txt Node
Date: Fri Mar 25 15:56:23 CST 2022
User: usil
Spectrometer: V785-0024
Trigger mode: 0
Integration Time (sec): 4.000000E-1
Scans to average: 1
Nonlinearity correction enabled: false
Boxcar width: 0
Storing dark spectrum: false
XAxis mode: Wavelengths
Number of Pixels in Spectrum: 1024
>>>>>Begin Spectral Data<<<<<
801.071	29010
801.214	28820
801.356	28603
801.499	28607
801.641	28367
801.783	28500
801.926	28546
802.068	28497
802.211	28489
802.353	28504
802.496	28200
802.638	28131
802.78	28090
802.923	28143
803.065	28074
803.208	28051
803.35	28200
803.492	28337
803.635	28573
803.777	28379
803.919	28565
804.061	28736
804.204	28557
804.346	28382
804.488	28356
804.63	28440
804.773	28618
804.915	28550
805.057	28691
805.199	28401
805.341	28637
805.483	28577
805.626	28668
805.768	28443
805.91	28675
806.052	28580
806.194	28489
806.336	28744
806.478	28664
806.62	28554
806.762	28896
806.904	28888
807.046	29242
807.188	28942
807.33	29086
807.472	29216
807.614	29052
807.756	29090
807.898	28812
808.04	28828
808.182	28816
808.324	28980
808.465	29056
808.607	29178
808.749	29341
808.891	29330
809.033	29474
809.174	29452
809.316	29334
809.458	29356
809.6	29261
809.741	29528
809.883	29368
810.025	29684
810.166	29551
810.308	29589
810.45	29524
810.591	29482
810.733	29356
810.875	29296
811.016	29296
811.158	29212
811.299	29524
811.441	29539
811.582	29600
811.724	29322
811.865	29353
812.007	29448
812.148	29402
812.29	29356
812.431	29627
812.573	29627
812.714	29809
812.855	29889
812.997	29927
813.138	30186
813.279	30083
813.421	29870
813.562	29684
813.703	29619
813.845	29570
813.986	29265
814.127	29193
814.268	29117
814.41	28976
814.551	29189
814.692	29109
814.833	28930
814.974	28911
815.115	29029
815.256	29060
815.397	28999
815.539	28793
815.68	28919
815.821	28862
815.962	28843
816.103	28869
816.244	28736
816.385	28740
816.526	28668
816.666	28535
816.807	28386
816.948	28409
817.089	28405
817.23	28417
817.371	28284
817.512	28329
817.653	28291
817.793	28265
817.934	28401
818.075	28169
818.216	28310
818.356	28314
818.497	28272
818.638	28029
818.778	28139
818.919	28139
819.06	28253
819.2	28234
819.341	28394
819.481	28314
819.622	28531
819.762	28679
819.903	28653
820.043	28599
820.184	28622
820.324	28394
820.465	28546
820.605	28508
820.746	28341
820.886	28295
821.026	28531
821.167	28424
821.307	28504
821.447	28344
821.588	28246
821.728	28177
821.868	27949
822.008	27876
822.149	27903
822.289	27778
822.429	27561
822.569	27386
822.709	27332
822.849	27488
822.99	27321
823.13	27408
823.27	27222
823.41	27188
823.55	27032
823.69	27100
823.83	27192
823.97	27157
824.11	26963
824.25	26956
824.389	26940
824.529	27218
824.669	26914
824.809	27093
824.949	27116
825.089	27093
825.228	26998
825.368	26899
825.508	26857
825.648	26921
825.787	26986
825.927	27028
826.067	26849
826.206	26796
826.346	26880
826.485	26963
826.625	26777
826.765	27020
826.904	26910
827.044	26613
827.183	26743
827.323	26549
827.462	26712
827.601	26659
827.741	26636
827.88	26743
828.02	26431
828.159	26655
828.298	26590
828.437	26644
828.577	26465
828.716	26644
828.855	26587
828.994	26313
829.134	26240
829.273	26358
829.412	26294
829.551	26164
829.69	26275
829.829	26339
829.968	26446
830.107	26275
830.246	26214
830.385	26218
830.524	26256
830.663	26191
830.802	25989
830.941	25887
831.08	25955
831.219	26122
831.357	26035
831.496	26153
831.635	25856
831.774	25780
831.913	25712
832.051	25795
832.19	25719
832.329	25635
832.467	25620
832.606	25479
832.744	25403
832.883	25533
833.022	25343
833.16	25544
833.299	25658
833.437	25552
833.576	25685
833.714	25769
833.852	25761
833.991	25746
834.129	25696
834.267	25700
834.406	25803
834.544	25590
834.682	25487
834.821	25521
834.959	25727
835.097	25544
835.235	25715
835.373	25632
835.511	25666
835.65	25438
835.788	25521
835.926	25468
836.064	25190
836.202	25232
836.34	25495
836.478	25521
836.615	25449
836.753	25464
836.891	25487
837.029	25396
837.167	25365
837.305	25308
837.443	25156
837.58	25289
837.718	25419
837.856	25324
837.993	25221
838.131	25308
838.269	25088
838.406	25247
838.544	25057
838.681	25057
838.819	24863
838.956	24810
839.094	24707
839.231	24772
839.369	24848
839.506	25042
839.643	24909
839.781	24738
839.918	24707
840.055	24738
840.193	24722
840.33	24646
840.467	24574
840.604	24738
840.742	24764
840.879	24513
841.016	24544
841.153	24616
841.29	24703
841.427	24635
841.564	24673
841.701	24566
841.838	24604
841.975	24559
842.112	24585
842.249	24464
842.385	24327
842.522	24517
842.659	24388
842.796	24285
842.933	24395
843.069	24391
843.206	24251
843.343	24270
843.479	24346
843.616	24445
843.752	24098
843.889	24167
844.025	24300
844.162	24247
844.298	24266
844.435	24174
844.571	24148
844.708	24296
844.844	24372
844.98	24220
845.117	24213
845.253	24167
845.389	23954
845.525	24083
845.661	23973
845.798	23805
845.934	23927
846.07	23863
846.206	23946
846.342	23973
846.478	23946
846.614	23718
846.75	23402
846.886	23604
847.022	23687
847.158	23695
847.294	23562
847.429	23646
847.565	23368
847.701	23866
847.837	23414
847.972	23356
848.108	23345
848.244	23368
848.379	23162
848.515	23250
848.65	23265
848.786	23193
848.921	23292
849.057	23467
849.192	23303
849.328	23235
849.463	23200
849.598	23117
849.734	23105
849.869	23003
850.004	23033
850.14	22854
850.275	23003
850.41	22733
850.545	22927
850.68	22953
850.815	22946
850.95	22938
851.085	23231
851.22	23128
851.355	23041
851.49	22949
851.625	22919
851.76	22946
851.895	22881
852.03	22786
852.165	23010
852.299	22915
852.434	23204
852.569	23037
852.703	23003
852.838	23060
852.973	23003
853.107	23098
853.242	22965
853.376	22729
853.511	22691
853.645	22736
853.78	22858
853.914	22782
854.048	22771
854.183	22759
854.317	22805
854.451	22862
854.585	22793
854.72	22866
854.854	22927
854.988	22683
855.122	22729
855.256	22573
855.39	22828
855.524	22774
855.658	22847
855.792	22752
855.926	22771
856.06	22786
856.194	22793
856.327	22839
856.461	22729
856.595	22786
856.729	22858
856.862	22854
856.996	22790
857.13	22801
857.263	22938
857.397	22793
857.53	22656
857.664	22869
857.797	22733
857.931	22809
858.064	22755
858.197	22904
858.331	22691
858.464	22702
858.597	22599
858.731	22653
858.864	22679
858.997	22763
859.13	22725
859.263	22713
859.396	22892
859.529	22774
859.662	22744
859.795	22790
859.928	22767
860.061	22946
860.194	22847
860.327	22976
860.46	22847
860.592	22911
860.725	22961
860.858	22881
860.99	22729
861.123	22721
861.256	22805
861.388	22755
861.521	23570
861.653	22618
861.786	22542
861.918	22577
862.05	22710
862.183	22744
862.315	22755
862.447	22748
862.58	22653
862.712	22577
862.844	22413
862.976	22546
863.108	22588
863.24	22797
863.372	22352
863.504	22481
863.636	22618
863.768	22516
863.9	22462
864.032	22481
864.164	22527
864.296	22542
864.428	22569
864.559	22554
864.691	22557
864.823	22527
864.954	22512
865.086	22398
865.217	22356
865.349	22268
865.48	22363
865.612	22238
865.743	22565
865.875	22500
866.006	22223
866.137	22329
866.269	22295
866.4	22333
866.531	22185
866.662	22147
866.793	22173
866.924	22276
867.055	22409
867.186	22230
867.317	22314
867.448	22333
867.579	22162
867.71	22093
867.841	22204
867.972	22314
868.103	22268
868.233	22261
868.364	22211
868.495	22337
868.625	22531
868.756	22672
868.886	22436
869.017	22485
869.147	22596
869.278	22622
869.408	22588
869.539	22489
869.669	22561
869.799	22516
869.929	22672
870.06	22630
870.19	22702
870.32	22763
870.45	22816
870.58	22919
870.71	22976
870.84	22953
870.97	22911
871.1	22835
871.23	23124
871.36	23159
871.489	23105
871.619	23075
871.749	23147
871.879	23075
872.008	23159
872.138	23159
872.267	23052
872.397	22866
872.526	23121
872.656	22946
872.785	22911
872.915	23204
873.044	23170
873.173	23227
873.303	23239
873.432	23231
873.561	23292
873.69	23155
873.819	23044
873.948	23166
874.077	23140
874.206	23048
874.335	23064
874.464	23307
874.593	23258
874.722	23307
874.851	23258
874.979	23493
875.108	23383
875.237	23353
875.365	23318
875.494	23353
875.623	23414
875.751	23368
875.88	23398
876.008	23368
876.136	23467
876.265	23722
876.393	23965
876.521	23707
876.65	23805
876.778	23661
876.906	23596
877.034	23714
877.162	23710
877.29	23638
877.418	23646
877.546	23760
877.674	23668
877.802	23665
877.93	23649
878.058	23562
878.185	23512
878.313	23558
878.441	23634
878.568	23505
878.696	23615
878.824	23581
878.951	23821
879.079	23805
879.206	24038
879.333	23794
879.461	23764
879.588	23710
879.715	23843
879.842	24007
879.97	23707
880.097	23604
880.224	23455
880.351	23482
880.478	23516
880.605	23398
880.732	23433
880.859	23729
880.986	23474
881.112	23478
881.239	23383
881.366	23162
881.493	23132
881.619	23113
881.746	23105
881.872	22957
881.999	22976
882.125	23056
882.252	23208
882.378	23094
882.505	23140
882.631	22858
882.757	22843
882.883	22831
883.01	22694
883.136	22733
883.262	22645
883.388	22569
883.514	22691
883.64	22767
883.766	22634
883.892	22459
884.018	22478
884.143	22660
884.269	22683
884.395	22428
884.52	22261
884.646	22440
884.772	22344
884.897	22143
885.023	22394
885.148	22497
885.274	22402
885.399	22409
885.524	22272
885.65	22474
885.775	22299
885.9	22322
886.025	22390
886.15	22474
886.275	22261
886.4	22223
886.525	22287
886.65	22234
886.775	22352
886.9	22325
887.025	22550
887.149	22299
887.274	22074
887.399	22109
887.523	22063
887.648	22093
887.773	21983
887.897	22128
888.021	22185
888.146	22139
888.27	22188
888.395	22112
888.519	22051
888.643	22120
888.767	22074
888.891	22093
889.015	21983
889.139	21945
889.263	21846
889.387	21994
889.511	22036
889.635	21941
889.759	21770
889.883	21861
890.006	21899
890.13	21880
890.254	21797
890.377	21793
890.501	21610
890.624	21458
890.748	21603
890.871	21481
890.995	21458
891.118	21348
891.241	21504
891.364	21317
891.488	21485
891.611	21405
891.734	21405
891.857	21526
891.98	21443
892.103	21428
892.226	21378
892.349	21416
892.471	21291
892.594	21458
892.717	21294
892.839	21268
892.962	21283
893.085	21389
893.207	21306
893.33	21081
893.452	21089
893.575	21389
893.697	21310
893.819	21378
893.941	21523
894.064	21428
894.186	21279
894.308	21287
894.43	21507
894.552	21481
894.674	21344
894.796	21226
894.918	21344
895.04	21294
895.161	21526
895.283	21382
895.405	21127
895.526	21272
895.648	21272
895.769	21203
895.891	21462
896.012	21435
896.134	21359
896.255	21348
896.376	21287
896.498	21382
896.619	21374
896.74	21294
896.861	21348
896.982	21603
897.103	21690
897.224	21576
897.345	21469
897.466	21534
897.587	21530
897.708	21675
897.828	21466
897.949	21393
898.07	21260
898.19	21367
898.311	21629
898.431	21485
898.552	21393
898.672	21538
898.792	21545
898.913	21545
899.033	21329
899.153	21260
899.273	21211
899.393	21176
899.513	21264
899.633	21237
899.753	21340
899.873	21214
899.993	21294
900.113	21192
900.232	21252
900.352	21135
900.472	21081
900.591	20998
900.711	20921
900.83	20880
900.95	21112
901.069	21100
901.189	20823
901.308	20712
901.427	20530
901.546	20514
901.665	20522
901.784	20625
901.904	20286
902.023	20298
902.141	20180
902.26	20176
902.379	20100
902.498	19978
902.617	19944
902.735	20229
902.854	19959
902.973	19944
903.091	19791
903.21	19696
903.328	19685
903.446	19632
903.565	19506
903.683	19548
903.801	19396
903.919	19548
904.038	19499
904.156	19343
904.274	19373
904.392	19312
904.51	19228
904.627	19171
904.745	19301
904.863	19339
904.981	19122
905.098	18996
905.216	18821
905.334	18932
905.451	18954
905.569	18916
905.686	18875
905.803	18875
905.921	18817
906.038	18806
906.155	18684
906.272	18616
906.389	18551
906.506	18498
906.623	18467
906.74	18296
906.857	18292
906.974	18384
907.091	18578
907.208	18532
907.324	18418
907.441	18330
907.557	18216
907.674	18133
907.79	18022
907.907	18117
908.023	18209
908.139	18159
908.256	18190
908.372	18045
908.488	18003
908.604	17882
908.72	17821
908.836	17817
908.952	17973
909.068	17870
909.184	17977
909.3	17790
909.415	17935
909.531	17859
909.647	17577
909.762	17592
909.878	17558
909.993	17562
910.108	17520
910.224	17486
910.339	17539
910.454	17391
910.57	17353
910.685	17269
910.8	17455
910.915	17577
911.03	17315
911.145	17200
911.259	17174
911.374	17208
911.489	17029
911.604	17010
911.718	16881
911.833	16919
911.947	16778
912.062	16767
912.176	16908
912.291	16828
912.405	16862
912.519	16991
912.633	17056
912.748	16961
912.862	16831
912.976	16729
913.09	16561
913.204	16603
913.318	16660
913.431	16748
913.545	16748
913.659	16618
913.772	16725
913.886	16504
914	16554
914.113	16588
914.226	16645
914.34	16485
914.453	16394
914.566	16451
914.68	16344
914.793	16303
914.906	16067
915.019	16021
915.132	16059
915.245	16063
915.358	16120
915.47	15991
915.583	16044
915.696	15949
915.809	16226
915.921	16162
916.034	16029
916.146	15949
916.259	15895
916.371	16025
916.483	15968
916.595	15850
916.708	15835
916.82	15884
916.932	15732
917.044	15857
917.156	15755
917.268	15709
917.38	15682
917.491	15652
917.603	15595
917.715	15831
917.826	15762
917.938	15591
918.049	15500
918.161	15561
918.272	15671
918.384	15755
918.495	15538
918.606	15443
918.717	15389
918.828	15507
918.939	15393
919.05	15401
919.161	15363
919.272	15150
919.383	15264
919.494	15386
919.604	15610
919.715	15428
919.826	15252
919.936	15302
920.047	15397
920.157	15382
920.267	15542
920.378	15389
920.488	15214
920.598	15507
920.708	15557
920.818	15481
920.928	15576
921.038	15648
921.148	15553
921.258	15294
921.368	15146
921.477	15097
921.587	15074
921.697	14872
921.806	15131
921.916	14880
922.025	14823
922.134	14678
922.244	14667
922.353	14765
922.462	14655
922.571	14590
922.68	14389
922.789	14317
922.898	14301
923.007	14263
923.116	14336
923.224	14301
923.333	14221
923.442	14153
923.55	14103
923.659	14157
923.767	14214
923.876	14084
923.984	14134
924.092	14096
924.201	14039
924.309	14012
924.417	14103
924.525	13982
924.633	14054
924.741	14682
924.849	13628
924.956	13830
925.064	13761
925.172	13655
925.279	13723
925.387	13757
925.494	13594
925.602	13864
925.709	13765
925.816	13670
925.924	13525
926.031	13750
926.138	13582
926.245	13712
926.352	13487
926.459	13582
926.566	13616
926.673	13559
926.779	13403
926.886	13354
926.993	13251
927.099	13270
927.206	13179
927.312	13209
927.419	13255
927.525	13190
927.631	13343
927.737	13076
927.843	12996
927.95	13023
928.056	13019
928.162	13072
928.267	13122
928.373	13712
928.479	13076
928.585	12875
928.69	13023
928.796	13027
928.901	12958
929.007	12688
929.112	13027
929.218	12802
929.323	12825
929.428	12783
929.533	12859
929.638	12692
929.743	12673
929.848	12715
929.953	12669
930.058	12563
930.163	12403
930.267	12448
930.372	12517
930.477	12376
930.581	12673
930.685	12445
930.79	12243
930.894	12380
930.998	12273
931.103	12467
931.207	12026
931.311	12007
931.415	11923
931.519	11726
931.623	11653
