Data from test_V78500241_3062.txt Node
Date: Fri Mar 25 16:03:00 CST 2022
User: usil
Spectrometer: V785-0024
Trigger mode: 0
Integration Time (sec): 4.000000E-1
Scans to average: 1
Nonlinearity correction enabled: false
Boxcar width: 0
Storing dark spectrum: false
XAxis mode: Wavelengths
Number of Pixels in Spectrum: 1024
>>>>>Begin Spectral Data<<<<<
801.071	28793
801.214	28637
801.356	28470
801.499	28462
801.641	28211
801.783	28242
801.926	28325
802.068	28421
802.211	28230
802.353	28177
802.496	28093
802.638	28025
802.78	27987
802.923	27972
803.065	27975
803.208	28025
803.35	28067
803.492	28257
803.635	28173
803.777	28139
803.919	28211
804.061	28504
804.204	28466
804.346	28272
804.488	28265
804.63	28238
804.773	28265
804.915	28207
805.057	28424
805.199	28325
805.341	28390
805.483	28344
805.626	28390
805.768	28352
805.91	28417
806.052	28470
806.194	28265
806.336	28580
806.478	28531
806.62	28470
806.762	28683
806.904	28660
807.046	29064
807.188	29060
807.33	28839
807.472	29064
807.614	28782
807.756	28843
807.898	28675
808.04	28660
808.182	28630
808.324	28778
808.465	28888
808.607	28938
808.749	29018
808.891	29083
809.033	29353
809.174	29204
809.316	29083
809.458	29064
809.6	29064
809.741	29143
809.883	29326
810.025	29334
810.166	29547
810.308	29528
810.45	29231
810.591	29402
810.733	29254
810.875	29197
811.016	29117
811.158	29033
811.299	29223
811.441	29341
811.582	29307
811.724	29216
811.865	29140
812.007	29189
812.148	29204
812.29	29246
812.431	29414
812.573	29429
812.714	29493
812.855	29619
812.997	29908
813.138	29855
813.279	29714
813.421	29729
813.562	29581
813.703	29429
813.845	29345
813.986	29147
814.127	29117
814.268	28911
814.41	28831
814.551	28938
814.692	28911
814.833	28679
814.974	28949
815.115	28896
815.256	28733
815.397	28710
815.539	28786
815.68	28694
815.821	28618
815.962	28755
816.103	28668
816.244	28569
816.385	28512
816.526	28470
816.666	28322
816.807	28128
816.948	28314
817.089	28204
817.23	28147
817.371	28124
817.512	28173
817.653	28215
817.793	28044
817.934	28105
818.075	28169
818.216	28109
818.356	28158
818.497	27972
818.638	27937
818.778	27812
818.919	28032
819.06	27926
819.2	28025
819.341	28196
819.481	28131
819.622	28356
819.762	28580
819.903	28432
820.043	28398
820.184	28421
820.324	28363
820.465	28287
820.605	28394
820.746	28363
820.886	28207
821.026	28196
821.167	28280
821.307	28219
821.447	28093
821.588	28215
821.728	28131
821.868	27918
822.008	27739
822.149	27675
822.289	27682
822.429	27435
822.569	27218
822.709	27275
822.849	27279
822.99	27173
823.13	27001
823.27	27066
823.41	27051
823.55	26906
823.69	26975
823.83	27074
823.97	26982
824.11	26727
824.25	26792
824.389	26823
824.529	26834
824.669	26876
824.809	27005
824.949	27001
825.089	26830
825.228	26826
825.368	26689
825.508	26716
825.648	26773
825.787	26644
825.927	26868
826.067	26701
826.206	26648
826.346	26807
826.485	26838
826.625	26640
826.765	26815
826.904	26727
827.044	26438
827.183	26571
827.323	26495
827.462	26461
827.601	26579
827.741	26446
827.88	26492
828.02	26221
828.159	26377
828.298	26465
828.437	26469
828.577	26419
828.716	26492
828.855	26221
828.994	26126
829.134	26092
829.273	26336
829.412	26240
829.551	25974
829.69	26092
829.829	26187
829.968	26183
830.107	26065
830.246	26218
830.385	26031
830.524	26054
830.663	25826
830.802	25803
830.941	25734
831.08	25784
831.219	26001
831.357	25849
831.496	25993
831.635	25651
831.774	25670
831.913	25613
832.051	25556
832.19	25590
832.329	25639
832.467	25407
832.606	25472
832.744	25316
832.883	25350
833.022	25449
833.16	25472
833.299	25320
833.437	25343
833.576	25510
833.714	25575
833.852	25491
833.991	25544
834.129	25510
834.267	25502
834.406	25506
834.544	25563
834.682	25403
834.821	25381
834.959	25727
835.097	25506
835.235	25487
835.373	25487
835.511	25415
835.65	25213
835.788	25346
835.926	25270
836.064	25118
836.202	25103
836.34	25441
836.478	25388
836.615	25228
836.753	25285
836.891	25445
837.029	25168
837.167	25247
837.305	25304
837.443	25244
837.58	25110
837.718	25072
837.856	25129
837.993	25080
838.131	25236
838.269	24897
838.406	25027
838.544	25080
838.681	24795
838.819	24863
838.956	24673
839.094	24627
839.231	24597
839.369	24696
839.506	25015
839.643	24787
839.781	24544
839.918	24692
840.055	24551
840.193	24494
840.33	24593
840.467	24559
840.604	24604
840.742	24852
840.879	24479
841.016	24498
841.153	24407
841.29	24646
841.427	24570
841.564	24357
841.701	24418
841.838	24445
841.975	24388
842.112	24338
842.249	24357
842.385	24357
842.522	24513
842.659	24372
842.796	24281
842.933	24369
843.069	24201
843.206	24155
843.343	24308
843.479	24292
843.616	24296
843.752	23939
843.889	24064
844.025	24216
844.162	23931
844.298	24072
844.435	24064
844.571	24022
844.708	24098
844.844	24262
844.98	24159
845.117	24216
845.253	23927
845.389	23969
845.525	23965
845.661	23802
845.798	23817
845.934	23855
846.07	23798
846.206	23786
846.342	23912
846.478	23703
846.614	23630
846.75	23330
846.886	23539
847.022	23615
847.158	23554
847.294	23429
847.429	23528
847.565	23543
847.701	23745
847.837	23322
847.972	23246
848.108	23360
848.244	23311
848.379	23223
848.515	23083
848.65	23151
848.786	23121
848.921	23147
849.057	23155
849.192	23151
849.328	23216
849.463	23098
849.598	22965
849.734	22915
849.869	22968
850.004	22843
850.14	22786
850.275	22877
850.41	22816
850.545	22721
850.68	22721
850.815	22927
850.95	22869
851.085	22953
851.22	23025
851.355	22892
851.49	22797
851.625	22847
851.76	22687
851.895	22782
852.03	22660
852.165	22771
852.299	22953
852.434	23064
852.569	22904
852.703	22778
852.838	22843
852.973	22953
853.107	23041
853.242	22805
853.376	22615
853.511	22554
853.645	22523
853.78	22713
853.914	22748
854.048	22565
854.183	22668
854.317	22577
854.451	22904
854.585	22672
854.72	22752
854.854	22748
854.988	22637
855.122	22649
855.256	22542
855.39	22596
855.524	22797
855.658	22649
855.792	22672
855.926	22653
856.06	22793
856.194	22710
856.327	22588
856.461	22580
856.595	22664
856.729	22694
856.862	22687
856.996	22672
857.13	22698
857.263	22641
857.397	22767
857.53	22653
857.664	22561
857.797	22854
857.931	22835
858.064	22721
858.197	22782
858.331	22615
858.464	22592
858.597	22527
858.731	22626
858.864	22691
858.997	22588
859.13	22611
859.263	22691
859.396	22729
859.529	22740
859.662	22504
859.795	22523
859.928	22694
860.061	22843
860.194	22843
860.327	22725
860.46	22656
860.592	22873
860.725	22771
860.858	22786
860.99	22679
861.123	22519
861.256	22607
861.388	22531
861.521	23349
861.653	22615
861.786	22527
861.918	22622
862.05	22588
862.183	22664
862.315	22599
862.447	22637
862.58	22580
862.712	22375
862.844	22367
862.976	22402
863.108	22489
863.24	22900
863.372	22314
863.504	22367
863.636	22379
863.768	22386
863.9	22379
864.032	22257
864.164	22352
864.296	22329
864.428	22485
864.559	22443
864.691	22451
864.823	22447
864.954	22344
865.086	22337
865.217	22276
865.349	22322
865.48	22299
865.612	22299
865.743	22356
865.875	22207
866.006	22287
866.137	22375
866.269	22109
866.4	22238
866.531	22181
866.662	22147
866.793	22242
866.924	22147
867.055	22200
867.186	22162
867.317	22314
867.448	22242
867.579	22158
867.71	22166
867.841	22128
867.972	22150
868.103	22310
868.233	22177
868.364	22196
868.495	22344
868.625	22360
868.756	22519
868.886	22291
869.017	22363
869.147	22573
869.278	22382
869.408	22546
869.539	22325
869.669	22497
869.799	22531
869.929	22535
870.06	22557
870.19	22649
870.32	22771
870.45	22801
870.58	22725
870.71	22885
870.84	22968
870.97	22679
871.1	22805
871.23	22995
871.36	22991
871.489	22934
871.619	22927
871.749	23060
871.879	23094
872.008	23105
872.138	23003
872.267	23022
872.397	22854
872.526	22809
872.656	22896
872.785	22797
872.915	23117
873.044	23037
873.173	23044
873.303	23109
873.432	23006
873.561	23044
873.69	23075
873.819	23147
873.948	23079
874.077	23136
874.206	23064
874.335	22987
874.464	23117
874.593	23265
874.722	23261
874.851	23162
874.979	23193
875.108	23307
875.237	23212
875.365	23147
875.494	23223
875.623	23235
875.751	23185
875.88	23280
876.008	23383
876.136	23425
876.265	23493
876.393	23836
876.521	23748
876.65	23646
876.778	23623
876.906	23699
877.034	23646
877.162	23634
877.29	23573
877.418	23585
877.546	23596
877.674	23573
877.802	23570
877.93	23623
878.058	23539
878.185	23429
878.313	23611
878.441	23531
878.568	23478
878.696	23501
878.824	23573
878.951	23733
879.079	23672
879.206	23927
879.333	23611
879.461	23539
879.588	23581
879.715	23790
879.842	23866
879.97	23779
880.097	23562
880.224	23280
880.351	23436
880.478	23360
880.605	23307
880.732	23368
880.859	23653
880.986	23372
881.112	23372
881.239	23242
881.366	23170
881.493	23155
881.619	22991
881.746	22999
881.872	23022
881.999	23033
882.125	22938
882.252	23064
882.378	22987
882.505	23041
882.631	22927
882.757	22550
882.883	22763
883.01	22687
883.136	22710
883.262	22531
883.388	22409
883.514	22561
883.64	22573
883.766	22630
883.892	22265
884.018	22367
884.143	22573
884.269	22653
884.395	22405
884.52	22185
884.646	22261
884.772	22196
884.897	22185
885.023	22299
885.148	22325
885.274	22424
885.399	22303
885.524	22253
885.65	22352
885.775	22188
885.9	22314
886.025	22295
886.15	22291
886.275	22303
886.4	22185
886.525	22242
886.65	22219
886.775	22238
886.9	22348
887.025	22497
887.149	22261
887.274	21953
887.399	22143
887.523	21937
887.648	21994
887.773	21926
887.897	22082
888.021	22036
888.146	22025
888.27	22051
888.395	22051
888.519	22013
888.643	21991
888.767	22044
888.891	21903
889.015	21857
889.139	21865
889.263	21861
889.387	21869
889.511	22090
889.635	21953
889.759	21827
889.883	21762
890.006	21774
890.13	21907
890.254	21781
890.377	21873
890.501	21614
890.624	21408
890.748	21629
890.871	21443
890.995	21344
891.118	21283
891.241	21237
891.364	21416
891.488	21469
891.611	21405
891.734	21283
891.857	21363
891.98	21359
892.103	21336
892.226	21310
892.349	21298
892.471	21176
892.594	21192
892.717	21340
892.839	21351
892.962	21195
893.085	21173
893.207	21355
893.33	21127
893.452	21207
893.575	21329
893.697	21226
893.819	21340
893.941	21405
894.064	21249
894.186	21157
894.308	21127
894.43	21306
894.552	21386
894.674	21272
894.796	21093
894.918	21169
895.04	21127
895.161	21272
895.283	21275
895.405	21173
895.526	21294
895.648	21230
895.769	21329
895.891	21344
896.012	21310
896.134	21233
896.255	21207
896.376	21188
896.498	21249
896.619	21180
896.74	21252
896.861	21218
896.982	21557
897.103	21629
897.224	21564
897.345	21386
897.466	21393
897.587	21454
897.708	21583
897.828	21420
897.949	21488
898.07	21268
898.19	21355
898.311	21542
898.431	21344
898.552	21397
898.672	21500
898.792	21393
898.913	21416
899.033	21408
899.153	21142
899.273	21032
899.393	21237
899.513	21138
899.633	21047
899.753	21264
899.873	21154
899.993	21036
900.113	21089
900.232	21081
900.352	21195
900.472	20979
900.591	20838
900.711	20899
900.83	20823
900.95	21020
901.069	20998
901.189	20792
901.308	20587
901.427	20465
901.546	20442
901.665	20370
901.784	20461
901.904	20423
902.023	20324
902.141	19997
902.26	19974
902.379	20016
902.498	19970
902.617	19906
902.735	20050
902.854	19894
902.973	19852
903.091	19715
903.21	19601
903.328	19647
903.446	19514
903.565	19430
903.683	19438
903.801	19308
903.919	19381
904.038	19453
904.156	19160
904.274	19259
904.392	19217
904.51	19171
904.627	19266
904.745	19228
904.863	19213
904.981	18966
905.098	18894
905.216	18768
905.334	18951
905.451	18905
905.569	18844
905.686	18897
905.803	18795
905.921	18540
906.038	18779
906.155	18730
906.272	18608
906.389	18578
906.506	18311
906.623	18464
906.74	18353
906.857	18311
906.974	18262
907.091	18361
907.208	18422
907.324	18414
907.441	18197
907.557	18102
907.674	18133
907.79	18038
907.907	18045
908.023	18083
908.139	18068
908.256	18053
908.372	17973
908.488	17969
908.604	17885
908.72	17779
908.836	17847
908.952	17722
909.068	17878
909.184	17923
909.3	17843
909.415	17790
909.531	17813
909.647	17672
909.762	17459
909.878	17482
909.993	17558
910.108	17570
910.224	17402
910.339	17505
910.454	17334
910.57	17315
910.685	17322
910.8	17551
910.915	17436
911.03	17258
911.145	17200
911.259	17231
911.374	17056
911.489	17022
911.604	16946
911.718	16908
911.833	16904
911.947	16683
912.062	16683
912.176	16793
912.291	16900
912.405	16820
912.519	16972
912.633	16999
912.748	16843
912.862	16763
912.976	16729
913.09	16538
913.204	16584
913.318	16645
913.431	16782
913.545	16672
913.659	16713
913.772	16596
913.886	16379
914	16390
914.113	16481
914.226	16478
914.34	16512
914.453	16398
914.566	16550
914.68	16360
914.793	16299
914.906	16105
915.019	16044
915.132	15960
915.245	15937
915.358	16021
915.47	16032
915.583	15975
915.696	16032
915.809	16249
915.921	16207
916.034	15934
916.146	15968
916.259	15922
916.371	15983
916.483	16021
916.595	15903
916.708	15884
916.82	15804
916.932	15793
917.044	15739
917.156	15812
917.268	15610
917.38	15591
917.491	15568
917.603	15614
917.715	15717
917.826	15709
917.938	15610
918.049	15401
918.161	15705
918.272	15717
918.384	15549
918.495	15580
918.606	15367
918.717	15291
918.828	15359
918.939	15473
919.05	15321
919.161	15306
919.272	15233
919.383	15211
919.494	15431
919.604	15469
919.715	15405
919.826	15294
919.936	15310
920.047	15393
920.157	15336
920.267	15473
920.378	15283
920.488	15310
920.598	15481
920.708	15591
920.818	15378
920.928	15363
921.038	15496
921.148	15625
921.258	15283
921.368	15207
921.477	15047
921.587	15032
921.697	14960
921.806	14990
921.916	14887
922.025	14796
922.134	14693
922.244	14743
922.353	14625
922.462	14587
922.571	14492
922.68	14317
922.789	14221
922.898	14290
923.007	14305
923.116	14294
923.224	14271
923.333	14263
923.442	14134
923.55	14134
923.659	14161
923.767	14145
923.876	14103
923.984	14180
924.092	14012
924.201	14031
924.309	14058
924.417	14027
924.525	13818
924.633	13845
924.741	14686
924.849	13727
924.956	13811
925.064	13769
925.172	13636
925.279	13696
925.387	13734
925.494	13681
925.602	13780
925.709	13852
925.816	13567
925.924	13685
926.031	13765
926.138	13616
926.245	13689
926.352	13567
926.459	13670
926.566	13666
926.673	13491
926.779	13377
926.886	13392
926.993	13263
927.099	13221
927.206	13183
927.312	13168
927.419	13221
927.525	13274
927.631	13244
927.737	13103
927.843	13057
927.95	13008
928.056	13107
928.162	12973
928.267	13088
928.373	13582
928.479	13110
928.585	12901
928.69	12935
928.796	12958
928.901	12882
929.007	12798
929.112	12802
929.218	12749
929.323	12764
929.428	12703
929.533	12932
929.638	12734
929.743	12722
929.848	12696
929.953	12688
930.058	12551
930.163	12422
930.267	12498
930.372	12559
930.477	12361
930.581	12547
930.685	12441
930.79	12403
930.894	12258
930.998	12224
931.103	12403
931.207	12038
931.311	11942
931.415	11874
931.519	11608
931.623	11634
