Data from test_V78500241_3557.txt Node
Date: Fri Mar 25 16:06:26 CST 2022
User: usil
Spectrometer: V785-0024
Trigger mode: 0
Integration Time (sec): 4.000000E-1
Scans to average: 1
Nonlinearity correction enabled: false
Boxcar width: 0
Storing dark spectrum: false
XAxis mode: Wavelengths
Number of Pixels in Spectrum: 1024
>>>>>Begin Spectral Data<<<<<
801.071	28972
801.214	29022
801.356	28778
801.499	28763
801.641	28664
801.783	28710
801.926	28713
802.068	28687
802.211	28611
802.353	28561
802.496	28344
802.638	28344
802.78	28310
802.923	28204
803.065	28162
803.208	28166
803.35	28223
803.492	28421
803.635	28447
803.777	28493
803.919	28535
804.061	28949
804.204	28580
804.346	28424
804.488	28428
804.63	28622
804.773	28481
804.915	28451
805.057	28774
805.199	28653
805.341	28622
805.483	28649
805.626	28816
805.768	28554
805.91	28668
806.052	28679
806.194	28626
806.336	28752
806.478	28649
806.62	28637
806.762	28850
806.904	28942
807.046	29109
807.188	29041
807.33	29246
807.472	29208
807.614	29086
807.756	29151
807.898	29006
808.04	28896
808.182	28961
808.324	28968
808.465	29124
808.607	29254
808.749	29463
808.891	29463
809.033	29482
809.174	29414
809.316	29467
809.458	29391
809.6	29414
809.741	29486
809.883	29505
810.025	29710
810.166	29707
810.308	29695
810.45	29680
810.591	29611
810.733	29398
810.875	29482
811.016	29421
811.158	29417
811.299	29433
811.441	29608
811.582	29634
811.724	29433
811.865	29524
812.007	29425
812.148	29501
812.29	29486
812.431	29653
812.573	29897
812.714	29908
812.855	29901
812.997	30003
813.138	30201
813.279	30136
813.421	29901
813.562	29878
813.703	29733
813.845	29733
813.986	29463
814.127	29227
814.268	29025
814.41	29159
814.551	29083
814.692	29220
814.833	28987
814.974	29033
815.115	29048
815.256	28972
815.397	29010
815.539	29006
815.68	28930
815.821	28740
815.962	29052
816.103	28927
816.244	28767
816.385	28618
816.526	28626
816.666	28478
816.807	28348
816.948	28672
817.089	28580
817.23	28436
817.371	28375
817.512	28451
817.653	28459
817.793	28386
817.934	28360
818.075	28588
818.216	28497
818.356	28466
818.497	28367
818.638	28204
818.778	28135
818.919	28185
819.06	28211
819.2	28299
819.341	28352
819.481	28481
819.622	28561
819.762	28736
819.903	28774
820.043	28668
820.184	28641
820.324	28493
820.465	28656
820.605	28736
820.746	28523
820.886	28341
821.026	28569
821.167	28485
821.307	28626
821.447	28504
821.588	28371
821.728	28253
821.868	28059
822.008	27926
822.149	27857
822.289	27949
822.429	27568
822.569	27732
822.709	27686
822.849	27580
822.99	27427
823.13	27424
823.27	27511
823.41	27275
823.55	27123
823.69	27260
823.83	27218
823.97	27340
824.11	27116
824.25	26960
824.389	27154
824.529	27146
824.669	27096
824.809	27184
824.949	27291
825.089	27180
825.228	27093
825.368	26967
825.508	26975
825.648	26910
825.787	27043
825.927	26963
826.067	26849
826.206	26960
826.346	27043
826.485	27203
826.625	26796
826.765	27131
826.904	27131
827.044	26754
827.183	26838
827.323	26556
827.462	26735
827.601	26678
827.741	26541
827.88	26864
828.02	26549
828.159	26785
828.298	26815
828.437	26891
828.577	26571
828.716	26815
828.855	26640
828.994	26484
829.134	26320
829.273	26419
829.412	26324
829.551	26301
829.69	26385
829.829	26431
829.968	26450
830.107	26332
830.246	26309
830.385	26294
830.524	26370
830.663	26130
830.802	26187
830.941	26092
831.08	26043
831.219	26005
831.357	26073
831.496	26210
831.635	26081
831.774	25940
831.913	25837
832.051	25928
832.19	25814
832.329	25746
832.467	25765
832.606	25597
832.744	25609
832.883	25689
833.022	25738
833.16	25613
833.299	25696
833.437	25704
833.576	25753
833.714	25658
833.852	25727
833.991	25746
834.129	25769
834.267	25906
834.406	25685
834.544	25826
834.682	25708
834.821	25590
834.959	25894
835.097	25571
835.235	25887
835.373	25784
835.511	25765
835.65	25647
835.788	25651
835.926	25419
836.064	25403
836.202	25259
836.34	25571
836.478	25529
836.615	25578
836.753	25613
836.891	25578
837.029	25506
837.167	25647
837.305	25540
837.443	25415
837.58	25346
837.718	25464
837.856	25365
837.993	25304
838.131	25365
838.269	25247
838.406	25354
838.544	25076
838.681	25050
838.819	24970
838.956	24810
839.094	24837
839.231	24856
839.369	24962
839.506	25202
839.643	25198
839.781	24817
839.918	24650
840.055	24890
840.193	24741
840.33	24688
840.467	24734
840.604	24726
840.742	24977
840.879	24627
841.016	24635
841.153	24578
841.29	24867
841.427	24620
841.564	24814
841.701	24814
841.838	24711
841.975	24551
842.112	24627
842.249	24696
842.385	24346
842.522	24726
842.659	24536
842.796	24433
842.933	24486
843.069	24410
843.206	24429
843.343	24574
843.479	24532
843.616	24536
843.752	24224
843.889	24174
844.025	24407
844.162	24258
844.298	24228
844.435	24334
844.571	24232
844.708	24372
844.844	24380
844.98	24403
845.117	24486
845.253	24254
845.389	24098
845.525	24133
845.661	24091
845.798	23992
845.934	24068
846.07	23996
846.206	24034
846.342	24148
846.478	23935
846.614	23824
846.75	23760
846.886	23745
847.022	23722
847.158	23703
847.294	23714
847.429	23733
847.565	23752
847.701	23942
847.837	23440
847.972	23501
848.108	23573
848.244	23524
848.379	23273
848.515	23326
848.65	23254
848.786	23421
848.921	23246
849.057	23455
849.192	23337
849.328	23364
849.463	23223
849.598	23364
849.734	23212
849.869	23140
850.004	23098
850.14	23147
850.275	23048
850.41	23014
850.545	23067
850.68	22953
850.815	23102
850.95	23006
851.085	23181
851.22	23223
851.355	23090
851.49	23102
851.625	23044
851.76	23071
851.895	22904
852.03	22991
852.165	23136
852.299	23041
852.434	23121
852.569	23079
852.703	23044
852.838	23273
852.973	23083
853.107	23147
853.242	22904
853.376	22892
853.511	22752
853.645	22809
853.78	22976
853.914	22908
854.048	22919
854.183	22824
854.317	22904
854.451	23052
854.585	22976
854.72	22809
854.854	23067
854.988	22824
855.122	22828
855.256	22691
855.39	22771
855.524	22873
855.658	22949
855.792	22881
855.926	22862
856.06	22904
856.194	22862
856.327	22919
856.461	22900
856.595	22908
856.729	22816
856.862	22957
856.996	22908
857.13	22923
857.263	23029
857.397	22911
857.53	22862
857.664	22885
857.797	22911
857.931	23048
858.064	22881
858.197	23037
858.331	23041
858.464	22976
858.597	22763
858.731	22949
858.864	22938
858.997	22828
859.13	23006
859.263	22782
859.396	23037
859.529	22961
859.662	22824
859.795	22828
859.928	22976
860.061	23014
860.194	23052
860.327	23105
860.46	22938
860.592	22984
860.725	22980
860.858	22942
860.99	22934
861.123	22881
861.256	22774
861.388	22824
861.521	23459
861.653	22771
861.786	22721
861.918	22683
862.05	22831
862.183	22790
862.315	22824
862.447	22961
862.58	22713
862.712	22645
862.844	22653
862.976	22729
863.108	22607
863.24	23102
863.372	22603
863.504	22672
863.636	22538
863.768	22561
863.9	22702
864.032	22580
864.164	22580
864.296	22592
864.428	22656
864.559	22729
864.691	22577
864.823	22466
864.954	22634
865.086	22584
865.217	22565
865.349	22402
865.48	22348
865.612	22436
865.743	22584
865.875	22447
866.006	22428
866.137	22565
866.269	22375
866.4	22402
866.531	22352
866.662	22322
866.793	22348
866.924	22390
867.055	22455
867.186	22299
867.317	22329
867.448	22207
867.579	22447
867.71	22265
867.841	22303
867.972	22367
868.103	22344
868.233	22360
868.364	22375
868.495	22447
868.625	22645
868.756	22706
868.886	22436
869.017	22538
869.147	22759
869.278	22729
869.408	22615
869.539	22622
869.669	22725
869.799	22656
869.929	22763
870.06	22748
870.19	22972
870.32	22919
870.45	22972
870.58	22873
870.71	23151
870.84	23189
870.97	23071
871.1	22957
871.23	23193
871.36	23250
871.489	23086
871.619	23162
871.749	23090
871.879	23143
872.008	23440
872.138	23181
872.267	23220
872.397	23102
872.526	23090
872.656	23064
872.785	23105
872.915	23189
873.044	23334
873.173	23204
873.303	23269
873.432	23223
873.561	23250
873.69	23185
873.819	23318
873.948	23349
874.077	23299
874.206	23261
874.335	23246
874.464	23311
874.593	23497
874.722	23512
874.851	23471
874.979	23512
875.108	23596
875.237	23486
875.365	23376
875.494	23273
875.623	23520
875.751	23379
875.88	23581
876.008	23615
876.136	23611
876.265	23878
876.393	23847
876.521	23950
876.65	23946
876.778	23897
876.906	23710
877.034	23722
877.162	23722
877.29	23638
877.418	23973
877.546	23794
877.674	23672
877.802	23767
877.93	23745
878.058	23855
878.185	23718
878.313	23794
878.441	23699
878.568	23490
878.696	23726
878.824	23767
878.951	23882
879.079	23954
879.206	23950
879.333	23885
879.461	23931
879.588	23916
879.715	24045
879.842	23988
879.97	23794
880.097	23691
880.224	23661
880.351	23672
880.478	23562
880.605	23703
880.732	23623
880.859	23863
880.986	23665
881.112	23638
881.239	23376
881.366	23444
881.493	23223
881.619	23197
881.746	23143
881.872	23292
881.999	23155
882.125	23083
882.252	23147
882.378	23227
882.505	23322
882.631	22965
882.757	22866
882.883	22980
883.01	22889
883.136	22854
883.262	22698
883.388	22641
883.514	22847
883.64	22797
883.766	22725
883.892	22542
884.018	22717
884.143	22809
884.269	22820
884.395	22493
884.52	22375
884.646	22580
884.772	22398
884.897	22417
885.023	22516
885.148	22675
885.274	22470
885.399	22557
885.524	22462
885.65	22497
885.775	22485
885.9	22394
886.025	22451
886.15	22489
886.275	22379
886.4	22379
886.525	22447
886.65	22276
886.775	22322
886.9	22474
887.025	22660
887.149	22451
887.274	22310
887.399	22261
887.523	22200
887.648	22135
887.773	22044
887.897	22356
888.021	22211
888.146	22131
888.27	22390
888.395	22207
888.519	22207
888.643	22226
888.767	22211
888.891	22074
889.015	21998
889.139	22013
889.263	21956
889.387	22074
889.511	22070
889.635	22093
889.759	21987
889.883	21968
890.006	21994
890.13	22032
890.254	21934
890.377	21884
890.501	21804
890.624	21690
890.748	21869
890.871	21599
890.995	21492
891.118	21500
891.241	21466
891.364	21515
891.488	21610
891.611	21637
891.734	21466
891.857	21660
891.98	21583
892.103	21443
892.226	21583
892.349	21473
892.471	21310
892.594	21408
892.717	21458
892.839	21382
892.962	21348
893.085	21386
893.207	21439
893.33	21249
893.452	21344
893.575	21252
893.697	21370
893.819	21667
893.941	21686
894.064	21599
894.186	21306
894.308	21462
894.43	21401
894.552	21572
894.674	21405
894.796	21291
894.918	21447
895.04	21359
895.161	21397
895.283	21481
895.405	21412
895.526	21469
895.648	21386
895.769	21287
895.891	21439
896.012	21367
896.134	21408
896.255	21435
896.376	21268
896.498	21378
896.619	21405
896.74	21370
896.861	21408
896.982	21686
897.103	21728
897.224	21614
897.345	21587
897.466	21553
897.587	21553
897.708	21709
897.828	21561
897.949	21564
898.07	21389
898.19	21485
898.311	21583
898.431	21382
898.552	21583
898.672	21568
898.792	21656
898.913	21637
899.033	21412
899.153	21416
899.273	21329
899.393	21321
899.513	21222
899.633	21393
899.753	21336
899.873	21138
899.993	21207
900.113	21230
900.232	21237
900.352	21157
900.472	21176
900.591	21108
900.711	21108
900.83	20994
900.95	21154
901.069	21207
901.189	20899
901.308	20765
901.427	20598
901.546	20549
901.665	20571
901.784	20712
901.904	20385
902.023	20412
902.141	20290
902.26	20180
902.379	20282
902.498	20183
902.617	20115
902.735	20084
902.854	20145
902.973	20020
903.091	19826
903.21	19799
903.328	19830
903.446	19571
903.565	19643
903.683	19559
903.801	19373
903.919	19575
904.038	19495
904.156	19247
904.274	19419
904.392	19316
904.51	19289
904.627	19339
904.745	19316
904.863	19331
904.981	19190
905.098	19103
905.216	19042
905.334	19000
905.451	19015
905.569	19012
905.686	19034
905.803	19012
905.921	18791
906.038	18985
906.155	18764
906.272	18665
906.389	18665
906.506	18589
906.623	18597
906.74	18585
906.857	18372
906.974	18388
907.091	18582
907.208	18654
907.324	18540
907.441	18399
907.557	18155
907.674	18258
907.79	18174
907.907	18167
908.023	18361
908.139	18232
908.256	18083
908.372	18144
908.488	18083
908.604	18087
908.72	17950
908.836	18003
908.952	17965
909.068	17961
909.184	17984
909.3	18026
909.415	17935
909.531	17958
909.647	17535
909.762	17623
909.878	17611
909.993	17577
910.108	17573
910.224	17695
910.339	17619
910.454	17463
910.57	17471
910.685	17440
910.8	17604
910.915	17646
911.03	17273
911.145	17303
911.259	17170
911.374	17200
911.489	17109
911.604	17109
911.718	17022
911.833	16961
911.947	16778
912.062	16835
912.176	17006
912.291	16911
912.405	16965
912.519	17121
912.633	17311
912.748	17006
912.862	16915
912.976	16748
913.09	16691
913.204	16752
913.318	16812
913.431	16908
913.545	16771
913.659	16831
913.772	16748
913.886	16466
914	16569
914.113	16554
914.226	16649
914.34	16603
914.453	16493
914.566	16630
914.68	16390
914.793	16265
914.906	16169
915.019	16139
915.132	16093
915.245	16093
915.358	16173
915.47	16078
915.583	16074
915.696	16200
915.809	16196
915.921	16185
916.034	16055
916.146	16074
916.259	15998
916.371	16021
916.483	16013
916.595	15987
916.708	15930
916.82	15895
916.932	15793
917.044	15884
917.156	15869
917.268	15694
917.38	15816
917.491	15625
917.603	15656
917.715	15800
917.826	15895
917.938	15641
918.049	15663
918.161	15679
918.272	15850
918.384	15823
918.495	15690
918.606	15519
918.717	15435
918.828	15504
918.939	15466
919.05	15443
919.161	15416
919.272	15241
919.383	15306
919.494	15564
919.604	15534
919.715	15469
919.826	15367
919.936	15462
920.047	15420
920.157	15408
920.267	15622
920.378	15420
920.488	15424
920.598	15614
920.708	15690
920.818	15485
920.928	15462
921.038	15720
921.148	15542
921.258	15279
921.368	15165
921.477	15233
921.587	15123
921.697	15081
921.806	15070
921.916	14967
922.025	14899
922.134	14834
922.244	14811
922.353	14849
922.462	14621
922.571	14549
922.68	14457
922.789	14374
922.898	14488
923.007	14286
923.116	14461
923.224	14412
923.333	14412
923.442	14309
923.55	14225
923.659	14176
923.767	14248
923.876	14298
923.984	14176
924.092	14119
924.201	14119
924.309	14096
924.417	14119
924.525	13967
924.633	14020
924.741	15116
924.849	13788
924.956	13887
925.064	13875
925.172	13639
925.279	13803
925.387	13830
925.494	13803
925.602	13940
925.709	13890
925.816	13700
925.924	13704
926.031	13788
926.138	13674
926.245	13807
926.352	13601
926.459	13803
926.566	13689
926.673	13639
926.779	13506
926.886	13540
926.993	13316
927.099	13289
927.206	13228
927.312	13266
927.419	13236
927.525	13289
927.631	13266
927.737	13156
927.843	13206
927.95	13023
928.056	13065
928.162	13190
928.267	13198
928.373	13799
928.479	13198
928.585	13038
928.69	13107
928.796	13084
928.901	12825
929.007	12760
929.112	12882
929.218	12958
929.323	12768
929.428	12798
929.533	12935
929.638	12730
929.743	12768
929.848	12810
929.953	12795
930.058	12677
930.163	12521
930.267	12429
930.372	12582
930.477	12460
930.581	12669
930.685	12471
930.79	12361
930.894	12323
930.998	12342
931.103	12456
931.207	12083
931.311	11961
931.415	11935
931.519	11714
931.623	11695
