Data from test_V78500241_487.txt Node
Date: Fri Mar 25 15:45:10 CST 2022
User: usil
Spectrometer: V785-0024
Trigger mode: 0
Integration Time (sec): 4.000000E-1
Scans to average: 1
Nonlinearity correction enabled: false
Boxcar width: 0
Storing dark spectrum: false
XAxis mode: Wavelengths
Number of Pixels in Spectrum: 1024
>>>>>Begin Spectral Data<<<<<
801.071	27325
801.214	27188
801.356	26975
801.499	27017
801.641	26811
801.783	26682
801.926	26804
802.068	26895
802.211	26697
802.353	26724
802.496	26419
802.638	26438
802.78	26606
802.923	26484
803.065	26533
803.208	26305
803.35	26446
803.492	26446
803.635	26621
803.777	26377
803.919	26583
804.061	26887
804.204	26579
804.346	26465
804.488	26453
804.63	26488
804.773	26419
804.915	26484
805.057	26746
805.199	26568
805.341	26499
805.483	26701
805.626	26587
805.768	26518
805.91	26663
806.052	26598
806.194	26556
806.336	26834
806.478	26568
806.62	26720
806.762	26864
806.904	27001
807.046	27116
807.188	27036
807.33	27218
807.472	27112
807.614	26910
807.756	27039
807.898	26880
808.04	26807
808.182	26796
808.324	26788
808.465	27001
808.607	27036
808.749	27336
808.891	27203
809.033	27618
809.174	27310
809.316	27374
809.458	27245
809.6	27203
809.741	27378
809.883	27374
810.025	27625
810.166	27561
810.308	27614
810.45	27462
810.591	27386
810.733	27249
810.875	27252
811.016	27161
811.158	27100
811.299	27420
811.441	27534
811.582	27268
811.724	27279
811.865	27154
812.007	27321
812.148	27302
812.29	27222
812.431	27481
812.573	27515
812.714	27705
812.855	27819
812.997	27770
813.138	27918
813.279	27899
813.421	27698
813.562	27679
813.703	27553
813.845	27519
813.986	27272
814.127	27005
814.268	26849
814.41	26948
814.551	26906
814.692	26952
814.833	26807
814.974	26887
815.115	26872
815.256	26762
815.397	26697
815.539	26838
815.68	26636
815.821	26682
815.962	26864
816.103	26655
816.244	26590
816.385	26492
816.526	26419
816.666	26199
816.807	26191
816.948	26286
817.089	26294
817.23	26180
817.371	26145
817.512	26054
817.653	26225
817.793	26077
817.934	26119
818.075	26313
818.216	26229
818.356	26282
818.497	25959
818.638	25966
818.778	25887
818.919	25947
819.06	25868
819.2	26016
819.341	26168
819.481	26244
819.622	26282
819.762	26415
819.903	26579
820.043	26408
820.184	26290
820.324	26263
820.465	26328
820.605	26324
820.746	26294
820.886	26275
821.026	26259
821.167	26172
821.307	26275
821.447	26313
821.588	25978
821.728	25833
821.868	25685
822.008	25647
822.149	25590
822.289	25559
822.429	25384
822.569	25160
822.709	25339
822.849	25156
822.99	25202
823.13	25019
823.27	25027
823.41	24939
823.55	24821
823.69	25008
823.83	24867
823.97	24916
824.11	24795
824.25	24730
824.389	24715
824.529	24779
824.669	24863
824.809	24817
824.949	24863
825.089	24943
825.228	24859
825.368	24658
825.508	24525
825.648	24631
825.787	24707
825.927	24715
826.067	24661
826.206	24563
826.346	24578
826.485	24673
826.625	24525
826.765	24654
826.904	24616
827.044	24414
827.183	24334
827.323	24186
827.462	24220
827.601	24266
827.741	24308
827.88	24216
828.02	24262
828.159	24209
828.298	24372
828.437	24346
828.577	24300
828.716	24502
828.855	24129
828.994	23969
829.134	24038
829.273	24022
829.412	24057
829.551	23893
829.69	23988
829.829	24038
829.968	24045
830.107	23999
830.246	23920
830.385	23923
830.524	23946
830.663	23946
830.802	23771
830.941	23608
831.08	23562
831.219	23695
831.357	23699
831.496	23824
831.635	23684
831.774	23528
831.913	23482
832.051	23421
832.19	23509
832.329	23444
832.467	23200
832.606	23216
832.744	23277
832.883	23220
833.022	23220
833.16	23265
833.299	23280
833.437	23353
833.576	23315
833.714	23364
833.852	23376
833.991	23452
834.129	23387
834.267	23444
834.406	23334
834.544	23277
834.682	23269
834.821	23356
834.959	23433
835.097	23280
835.235	23334
835.373	23292
835.511	23311
835.65	23128
835.788	23162
835.926	22987
836.064	22919
836.202	23006
836.34	23299
836.478	23239
836.615	23025
836.753	23075
836.891	23303
837.029	23113
837.167	23067
837.305	23014
837.443	23102
837.58	22999
837.718	23064
837.856	23041
837.993	22896
838.131	23018
838.269	22881
838.406	22873
838.544	22763
838.681	22607
838.819	22550
838.956	22409
839.094	22500
839.231	22363
839.369	22618
839.506	22873
839.643	22744
839.781	22500
839.918	22523
840.055	22451
840.193	22314
840.33	22481
840.467	22497
840.604	22580
840.742	22641
840.879	22432
841.016	22451
841.153	22284
841.29	22500
841.427	22421
841.564	22455
841.701	22443
841.838	22341
841.975	22352
842.112	22276
842.249	22154
842.385	22169
842.522	22470
842.659	22196
842.796	22154
842.933	22124
843.069	22013
843.206	22112
843.343	22166
843.479	22097
843.616	22238
843.752	21953
843.889	21922
844.025	22090
844.162	21857
844.298	22010
844.435	21857
844.571	21857
844.708	21945
844.844	22048
844.98	22055
845.117	21991
845.253	21945
845.389	21762
845.525	21892
845.661	21842
845.798	21709
845.934	21709
846.07	21713
846.206	21652
846.342	21812
846.478	21652
846.614	21564
846.75	21405
846.886	21435
847.022	21534
847.158	21523
847.294	21272
847.429	21359
847.565	21325
847.701	21656
847.837	21169
847.972	21104
848.108	21230
848.244	21218
848.379	21112
848.515	21005
848.65	20941
848.786	20948
848.921	21028
849.057	21043
849.192	21100
849.328	21066
849.463	21047
849.598	20960
849.734	20754
849.869	20830
850.004	20773
850.14	20758
850.275	20750
850.41	20708
850.545	20670
850.68	20670
850.815	20773
850.95	20739
851.085	21024
851.22	20807
851.355	20796
851.49	20746
851.625	20739
851.76	20758
851.895	20720
852.03	20632
852.165	20762
852.299	20811
852.434	20826
852.569	20861
852.703	20811
852.838	20724
852.973	20880
853.107	20880
853.242	20724
853.376	20556
853.511	20560
853.645	20556
853.78	20792
853.914	20583
854.048	20617
854.183	20575
854.317	20648
854.451	20838
854.585	20583
854.72	20560
854.854	20598
854.988	20431
855.122	20575
855.256	20301
855.39	20541
855.524	20541
855.658	20659
855.792	20537
855.926	20564
856.06	20651
856.194	20629
856.327	20606
856.461	20507
856.595	20503
856.729	20556
856.862	20708
856.996	20583
857.13	20712
857.263	20724
857.397	20571
857.53	20556
857.664	20587
857.797	20667
857.931	20587
858.064	20621
858.197	20655
858.331	20621
858.464	20495
858.597	20518
858.731	20644
858.864	20545
858.997	20507
859.13	20629
859.263	20648
859.396	20758
859.529	20617
859.662	20533
859.795	20450
859.928	20594
860.061	20720
860.194	20754
860.327	20640
860.46	20503
860.592	20670
860.725	20686
860.858	20682
860.99	20530
861.123	20473
861.256	20507
861.388	20590
861.521	21146
861.653	20389
861.786	20377
861.918	20358
862.05	20438
862.183	20454
862.315	20533
862.447	20545
862.58	20442
862.712	20374
862.844	20328
862.976	20336
863.108	20313
863.24	20686
863.372	20336
863.504	20374
863.636	20336
863.768	20324
863.9	20248
864.032	20237
864.164	20305
864.296	20275
864.428	20370
864.559	20385
864.691	20396
864.823	20301
864.954	20130
865.086	20218
865.217	20183
865.349	20153
865.48	20153
865.612	20237
865.743	20358
865.875	20282
866.006	20073
866.137	20286
866.269	20183
866.4	20142
866.531	20107
866.662	20096
866.793	20088
866.924	20172
867.055	20240
867.186	20088
867.317	20096
867.448	19947
867.579	20077
867.71	19986
867.841	19967
867.972	20252
868.103	20183
868.233	20202
868.364	20122
868.495	20309
868.625	20438
868.756	20476
868.886	20317
869.017	20396
869.147	20556
869.278	20530
869.408	20484
869.539	20419
869.669	20370
869.799	20514
869.929	20499
870.06	20579
870.19	20659
870.32	20720
870.45	20842
870.58	20823
870.71	20921
870.84	20933
870.97	20765
871.1	20754
871.23	20963
871.36	21047
871.489	20948
871.619	21039
871.749	21131
871.879	21066
872.008	21146
872.138	21066
872.267	21024
872.397	20819
872.526	20762
872.656	20838
872.785	20899
872.915	21047
873.044	21013
873.173	21032
873.303	21138
873.432	21138
873.561	21104
873.69	21135
873.819	21020
873.948	21024
874.077	21135
874.206	20982
874.335	20982
874.464	21127
874.593	21294
874.722	21279
874.851	21298
874.979	21287
875.108	21287
875.237	21093
875.365	21176
875.494	21218
875.623	21401
875.751	21268
875.88	21275
876.008	21504
876.136	21637
876.265	21762
876.393	21850
876.521	21755
876.65	21690
876.778	21732
876.906	21606
877.034	21606
877.162	21625
877.29	21599
877.418	21637
877.546	21663
877.674	21679
877.802	21614
877.93	21610
878.058	21515
878.185	21542
878.313	21583
878.441	21549
878.568	21405
878.696	21618
878.824	21660
878.951	21743
879.079	21846
879.206	21922
879.333	21781
879.461	21682
879.588	21781
879.715	21842
879.842	21907
879.97	21743
880.097	21481
880.224	21462
880.351	21553
880.478	21530
880.605	21530
880.732	21496
880.859	21610
880.986	21488
881.112	21473
881.239	21222
881.366	21211
881.493	21089
881.619	21070
881.746	21112
881.872	21051
881.999	21009
882.125	20899
882.252	20963
882.378	21104
882.505	21131
882.631	20944
882.757	20819
882.883	20792
883.01	20773
883.136	20826
883.262	20617
883.388	20556
883.514	20899
883.64	20807
883.766	20731
883.892	20541
884.018	20629
884.143	20693
884.269	20887
884.395	20427
884.52	20457
884.646	20385
884.772	20263
884.897	20301
885.023	20309
885.148	20499
885.274	20465
885.399	20556
885.524	20507
885.65	20537
885.775	20450
885.9	20301
886.025	20488
886.15	20434
886.275	20412
886.4	20290
886.525	20381
886.65	20427
886.775	20183
886.9	20442
887.025	20682
887.149	20347
887.274	20271
887.399	20096
887.523	20050
887.648	20157
887.773	20149
887.897	20195
888.021	20183
888.146	20142
888.27	20298
888.395	20210
888.519	20210
888.643	20168
888.767	20271
888.891	19993
889.015	19967
889.139	20027
889.263	19944
889.387	20039
889.511	20210
889.635	20058
889.759	19955
889.883	19879
890.006	19974
890.13	20016
890.254	19837
890.377	19951
890.501	19826
890.624	19620
890.748	19795
890.871	19616
890.995	19502
891.118	19495
891.241	19552
891.364	19647
891.488	19647
891.611	19575
891.734	19597
891.857	19571
891.98	19483
892.103	19601
892.226	19590
892.349	19643
892.471	19327
892.594	19624
892.717	19491
892.839	19396
892.962	19495
893.085	19613
893.207	19518
893.33	19289
893.452	19445
893.575	19396
893.697	19472
893.819	19689
893.941	19658
894.064	19765
894.186	19491
894.308	19445
894.43	19567
894.552	19655
894.674	19514
894.796	19438
894.918	19449
895.04	19377
895.161	19506
895.283	19430
895.405	19457
895.526	19472
895.648	19548
895.769	19537
895.891	19491
896.012	19552
896.134	19662
896.255	19506
896.376	19483
896.498	19457
896.619	19529
896.74	19491
896.861	19567
896.982	19845
897.103	20012
897.224	19791
897.345	19727
897.466	19681
897.587	19772
897.708	19776
897.828	19765
897.949	19605
898.07	19613
898.19	19571
898.311	19909
898.431	19696
898.552	19715
898.672	19879
898.792	19811
898.913	19776
899.033	19704
899.153	19514
899.273	19578
899.393	19381
899.513	19529
899.633	19578
899.753	19567
899.873	19441
899.993	19540
900.113	19480
900.232	19601
900.352	19499
900.472	19354
900.591	19194
900.711	19388
900.83	19297
900.95	19407
901.069	19343
901.189	19202
901.308	18966
901.427	18958
901.546	18814
901.665	18878
901.784	18859
901.904	18837
902.023	18608
902.141	18456
902.26	18426
902.379	18502
902.498	18369
902.617	18376
902.735	18426
902.854	18350
902.973	18159
903.091	18053
903.21	18098
903.328	18049
903.446	18011
903.565	17965
903.683	17901
903.801	17748
903.919	17950
904.038	17832
904.156	17665
904.274	17866
904.392	17661
904.51	17646
904.627	17577
904.745	17672
904.863	17726
904.981	17505
905.098	17395
905.216	17307
905.334	17353
905.451	17425
905.569	17254
905.686	17345
905.803	17334
905.921	17208
906.038	17197
906.155	17124
906.272	17064
906.389	17083
906.506	16847
906.623	17018
906.74	16831
906.857	16729
906.974	16710
907.091	16946
907.208	16976
907.324	16854
907.441	16820
907.557	16656
907.674	16630
907.79	16519
907.907	16527
908.023	16618
908.139	16588
908.256	16519
908.372	16512
908.488	16371
908.604	16333
908.72	16268
908.836	16310
908.952	16287
909.068	16310
909.184	16432
909.3	16226
909.415	16303
909.531	16257
909.647	16090
909.762	16105
909.878	16032
909.993	15998
910.108	15975
910.224	15972
910.339	15956
910.454	15827
910.57	15717
910.685	15770
910.8	16097
910.915	15899
911.03	15888
911.145	15629
911.259	15599
911.374	15572
911.489	15595
911.604	15507
911.718	15374
911.833	15294
911.947	15233
912.062	15176
912.176	15344
912.291	15439
912.405	15439
912.519	15603
912.633	15572
912.748	15340
912.862	15329
912.976	15173
913.09	15138
913.204	15081
913.318	15249
913.431	15340
913.545	15283
913.659	15329
913.772	15097
913.886	15039
914	15062
914.113	15024
914.226	15024
914.34	15070
914.453	14872
914.566	15097
914.68	14910
914.793	14868
914.906	14724
915.019	14606
915.132	14583
915.245	14549
915.358	14651
915.47	14613
915.583	14632
915.696	14705
915.809	14731
915.921	14796
916.034	14537
916.146	14495
916.259	14598
916.371	14705
916.483	14651
916.595	14533
916.708	14469
916.82	14438
916.932	14423
917.044	14381
917.156	14396
917.268	14206
917.38	14408
917.491	14202
917.603	14317
917.715	14328
917.826	14355
917.938	14282
918.049	14119
918.161	14366
918.272	14385
918.384	14355
918.495	14176
918.606	14092
918.717	13970
918.828	14142
918.939	14062
919.05	13890
919.161	14012
919.272	13860
919.383	13852
919.494	14153
919.604	14267
919.715	13997
919.826	13936
919.936	14005
920.047	14081
920.157	14046
920.267	14244
920.378	14054
920.488	14062
920.598	14244
920.708	14271
920.818	14221
920.928	14202
921.038	14313
921.148	14298
921.258	13970
921.368	13936
921.477	13811
921.587	13791
921.697	13742
921.806	13746
921.916	13693
922.025	13487
922.134	13419
922.244	13388
922.353	13449
922.462	13316
922.571	13282
922.68	13122
922.789	13088
922.898	13076
923.007	13038
923.116	13160
923.224	12966
923.333	13004
923.442	12894
923.55	12989
923.659	13107
923.767	13008
923.876	12791
923.984	12939
924.092	12817
924.201	12901
924.309	12859
924.417	12890
924.525	12810
924.633	12821
924.741	13639
924.849	12589
924.956	12650
925.064	12475
925.172	12460
925.279	12517
925.387	12635
925.494	12578
925.602	12551
925.709	12593
925.816	12471
925.924	12521
926.031	12532
926.138	12441
926.245	12532
926.352	12395
926.459	12471
926.566	12566
926.673	12365
926.779	12277
926.886	12247
926.993	12197
927.099	12175
927.206	12011
927.312	12087
927.419	12102
927.525	12125
927.631	12049
927.737	12015
927.843	11980
927.95	11878
928.056	11980
928.162	11999
928.267	11920
928.373	12658
928.479	12098
928.585	11821
928.69	11843
928.796	11942
928.901	11836
929.007	11657
929.112	11817
929.218	11802
929.323	11695
929.428	11665
929.533	11836
929.638	11627
929.743	11608
929.848	11684
929.953	11615
930.058	11520
930.163	11315
930.267	11353
930.372	11501
930.477	11280
930.581	11528
930.685	11402
930.79	11174
930.894	11284
930.998	11250
931.103	11429
931.207	11010
931.311	10976
931.415	10889
931.519	10752
931.623	10664
