Data from test_V78500241_3076.txt Node
Date: Fri Mar 25 16:03:06 CST 2022
User: usil
Spectrometer: V785-0024
Trigger mode: 0
Integration Time (sec): 4.000000E-1
Scans to average: 1
Nonlinearity correction enabled: false
Boxcar width: 0
Storing dark spectrum: false
XAxis mode: Wavelengths
Number of Pixels in Spectrum: 1024
>>>>>Begin Spectral Data<<<<<
801.071	28748
801.214	28641
801.356	28535
801.499	28451
801.641	28238
801.783	28360
801.926	28299
802.068	28356
802.211	28249
802.353	28162
802.496	28074
802.638	27903
802.78	28059
802.923	27823
803.065	27812
803.208	27873
803.35	28040
803.492	28192
803.635	28268
803.777	28112
803.919	28314
804.061	28542
804.204	28287
804.346	28196
804.488	28226
804.63	28162
804.773	28181
804.915	28436
805.057	28344
805.199	28295
805.341	28238
805.483	28325
805.626	28432
805.768	28356
805.91	28440
806.052	28409
806.194	28310
806.336	28538
806.478	28478
806.62	28398
806.762	28554
806.904	28630
807.046	28919
807.188	28675
807.33	28812
807.472	28927
807.614	28820
807.756	28946
807.898	28771
808.04	28565
808.182	28626
808.324	28812
808.465	28763
808.607	28949
808.749	29117
808.891	29102
809.033	29269
809.174	29006
809.316	29079
809.458	29079
809.6	28869
809.741	29246
809.883	29307
810.025	29368
810.166	29288
810.308	29330
810.45	29383
810.591	29250
810.733	29132
810.875	29155
811.016	29033
811.158	29022
811.299	29124
811.441	29379
811.582	29296
811.724	29033
811.865	29060
812.007	29136
812.148	29064
812.29	29193
812.431	29185
812.573	29372
812.714	29505
812.855	29665
812.997	29756
813.138	29775
813.279	29790
813.421	29471
813.562	29505
813.703	29459
813.845	29204
813.986	29018
814.127	28858
814.268	28797
814.41	28748
814.551	28831
814.692	28869
814.833	28877
814.974	28854
815.115	28809
815.256	28683
815.397	28611
815.539	28771
815.68	28660
815.821	28550
815.962	28603
816.103	28519
816.244	28459
816.385	28405
816.526	28455
816.666	28204
816.807	28036
816.948	28188
817.089	28246
817.23	28128
817.371	28192
817.512	28101
817.653	28078
817.793	27934
817.934	28048
818.075	28101
818.216	28048
818.356	28025
818.497	27945
818.638	27922
818.778	27918
818.919	27949
819.06	28070
819.2	28055
819.341	28128
819.481	28082
819.622	28325
819.762	28584
819.903	28485
820.043	28322
820.184	28295
820.324	28196
820.465	28462
820.605	28303
820.746	28234
820.886	28055
821.026	28356
821.167	28169
821.307	28363
821.447	28109
821.588	27987
821.728	27972
821.868	27781
822.008	27701
822.149	27481
822.289	27587
822.429	27386
822.569	27241
822.709	27336
822.849	27116
822.99	27294
823.13	27051
823.27	26902
823.41	26910
823.55	26838
823.69	26956
823.83	26868
823.97	26925
824.11	26724
824.25	26674
824.389	26743
824.529	26857
824.669	26800
824.809	26868
824.949	26891
825.089	26853
825.228	26918
825.368	26438
825.508	26564
825.648	26693
825.787	26655
825.927	26651
826.067	26606
826.206	26579
826.346	26594
826.485	26697
826.625	26754
826.765	26792
826.904	26663
827.044	26366
827.183	26446
827.323	26400
827.462	26492
827.601	26438
827.741	26347
827.88	26374
828.02	26172
828.159	26298
828.298	26370
828.437	26298
828.577	26351
828.716	26423
828.855	26362
828.994	26012
829.134	26031
829.273	26122
829.412	25986
829.551	25966
829.69	26050
829.829	26012
829.968	26111
830.107	26096
830.246	26176
830.385	26103
830.524	26039
830.663	25772
830.802	25769
830.941	25655
831.08	25700
831.219	25689
831.357	25780
831.496	25890
831.635	25616
831.774	25601
831.913	25556
832.051	25430
832.19	25518
832.329	25518
832.467	25297
832.606	25335
832.744	25213
832.883	25217
833.022	25251
833.16	25365
833.299	25285
833.437	25392
833.576	25438
833.714	25415
833.852	25499
833.991	25460
834.129	25441
834.267	25491
834.406	25571
834.544	25358
834.682	25422
834.821	25521
834.959	25674
835.097	25350
835.235	25434
835.373	25320
835.511	25236
835.65	25190
835.788	25171
835.926	25145
836.064	25050
836.202	24947
836.34	25171
836.478	25407
836.615	25171
836.753	25171
836.891	25343
837.029	25213
837.167	25072
837.305	25076
837.443	25072
837.58	25061
837.718	25038
837.856	25031
837.993	24996
838.131	25023
838.269	24947
838.406	24897
838.544	24856
838.681	24616
838.819	24665
838.956	24513
839.094	24536
839.231	24597
839.369	24597
839.506	24772
839.643	24844
839.781	24441
839.918	24407
840.055	24346
840.193	24441
840.33	24426
840.467	24551
840.604	24422
840.742	24654
840.879	24388
841.016	24380
841.153	24232
841.29	24445
841.427	24384
841.564	24330
841.701	24311
841.838	24330
841.975	24334
842.112	24243
842.249	24201
842.385	24152
842.522	24380
842.659	24292
842.796	24190
842.933	24125
843.069	24148
843.206	24038
843.343	24273
843.479	24285
843.616	24136
843.752	23977
843.889	24003
844.025	24038
844.162	23847
844.298	24057
844.435	23893
844.571	23908
844.708	23977
844.844	24041
844.98	24243
845.117	23939
845.253	23798
845.389	23851
845.525	23676
845.661	23600
845.798	23661
845.934	23783
846.07	23589
846.206	23733
846.342	23745
846.478	23691
846.614	23516
846.75	23303
846.886	23406
847.022	23414
847.158	23402
847.294	23436
847.429	23471
847.565	23414
847.701	23592
847.837	23079
847.972	23071
848.108	23303
848.244	23220
848.379	23086
848.515	22984
848.65	22976
848.786	22984
848.921	22923
849.057	23162
849.192	23071
849.328	23037
849.463	22892
849.598	22923
849.734	22839
849.869	22744
850.004	22774
850.14	22767
850.275	22809
850.41	22675
850.545	22542
850.68	22767
850.815	22702
850.95	22778
851.085	23075
851.22	22869
851.355	22778
851.49	22850
851.625	22721
851.76	22759
851.895	22675
852.03	22767
852.165	22850
852.299	22786
852.434	22923
852.569	22759
852.703	22706
852.838	22900
852.973	22835
853.107	22881
853.242	22748
853.376	22531
853.511	22554
853.645	22561
853.78	22618
853.914	22519
854.048	22535
854.183	22573
854.317	22653
854.451	22725
854.585	22500
854.72	22596
854.854	22618
854.988	22546
855.122	22557
855.256	22485
855.39	22577
855.524	22596
855.658	22561
855.792	22691
855.926	22557
856.06	22668
856.194	22645
856.327	22710
856.461	22531
856.595	22504
856.729	22531
856.862	22702
856.996	22561
857.13	22596
857.263	22713
857.397	22516
857.53	22596
857.664	22626
857.797	22653
857.931	22672
858.064	22577
858.197	22702
858.331	22538
858.464	22611
858.597	22523
858.731	22538
858.864	22535
858.997	22573
859.13	22596
859.263	22550
859.396	22710
859.529	22618
859.662	22607
859.795	22386
859.928	22599
860.061	22694
860.194	22858
860.327	22599
860.46	22474
860.592	22683
860.725	22637
860.858	22653
860.99	22481
861.123	22504
861.256	22413
861.388	22504
861.521	23299
861.653	22390
861.786	22386
861.918	22379
862.05	22478
862.183	22546
862.315	22447
862.447	22531
862.58	22485
862.712	22421
862.844	22211
862.976	22436
863.108	22348
863.24	22755
863.372	22242
863.504	22306
863.636	22333
863.768	22390
863.9	22280
864.032	22287
864.164	22200
864.296	22337
864.428	22500
864.559	22375
864.691	22272
864.823	22386
864.954	22314
865.086	22124
865.217	22185
865.349	22105
865.48	22055
865.612	22124
865.743	22268
865.875	22158
866.006	22166
866.137	22246
866.269	22112
866.4	22131
866.531	22067
866.662	22051
866.793	22135
866.924	22059
867.055	22124
867.186	22101
867.317	21991
867.448	22051
867.579	22048
867.71	22109
867.841	21922
867.972	22097
868.103	22150
868.233	22143
868.364	22128
868.495	22196
868.625	22219
868.756	22432
868.886	22341
869.017	22299
869.147	22432
869.278	22325
869.408	22382
869.539	22382
869.669	22428
869.799	22314
869.929	22405
870.06	22546
870.19	22626
870.32	22664
870.45	22801
870.58	22668
870.71	22801
870.84	22778
870.97	22717
871.1	22736
871.23	22934
871.36	22972
871.489	22961
871.619	22923
871.749	22927
871.879	22999
872.008	23022
872.138	22900
872.267	22911
872.397	22786
872.526	22831
872.656	22767
872.785	22847
872.915	22968
873.044	23044
873.173	22961
873.303	22957
873.432	22892
873.561	23025
873.69	23083
873.819	22953
873.948	23037
874.077	22980
874.206	22881
874.335	23025
874.464	23056
874.593	23086
874.722	23113
874.851	23227
874.979	23208
875.108	23132
875.237	23124
875.365	23102
875.494	23033
875.623	23223
875.751	23246
875.88	23178
876.008	23322
876.136	23368
876.265	23581
876.393	23771
876.521	23547
876.65	23638
876.778	23604
876.906	23436
877.034	23478
877.162	23455
877.29	23395
877.418	23604
877.546	23566
877.674	23535
877.802	23509
877.93	23516
878.058	23455
878.185	23315
878.313	23425
878.441	23516
878.568	23299
878.696	23322
878.824	23524
878.951	23573
879.079	23558
879.206	23764
879.333	23585
879.461	23520
879.588	23581
879.715	23592
879.842	23821
879.97	23577
880.097	23349
880.224	23353
880.351	23349
880.478	23235
880.605	23318
880.732	23261
880.859	23592
880.986	23337
881.112	23436
881.239	23140
881.366	23064
881.493	23064
881.619	22904
881.746	22869
881.872	22869
881.999	22824
882.125	22812
882.252	22847
882.378	22820
882.505	22972
882.631	22607
882.757	22538
882.883	22713
883.01	22577
883.136	22508
883.262	22394
883.388	22329
883.514	22630
883.64	22599
883.766	22402
883.892	22253
884.018	22413
884.143	22474
884.269	22561
884.395	22272
884.52	22154
884.646	22291
884.772	22147
884.897	22082
885.023	22147
885.148	22204
885.274	22192
885.399	22303
885.524	22154
885.65	22215
885.775	22169
885.9	22131
886.025	22402
886.15	22306
886.275	22105
886.4	22059
886.525	22131
886.65	22105
886.775	21994
886.9	22257
887.025	22478
887.149	22051
887.274	21979
887.399	21850
887.523	22078
887.648	21880
887.773	21888
887.897	21983
888.021	22040
888.146	21869
888.27	22013
888.395	22006
888.519	22010
888.643	21979
888.767	22006
888.891	21797
889.015	21911
889.139	21846
889.263	21770
889.387	21857
889.511	21979
889.635	21838
889.759	21766
889.883	21766
890.006	21618
890.13	21774
890.254	21698
890.377	21720
890.501	21488
890.624	21462
890.748	21580
890.871	21397
890.995	21291
891.118	21291
891.241	21275
891.364	21226
891.488	21359
891.611	21252
891.734	21317
891.857	21393
891.98	21310
892.103	21336
892.226	21241
892.349	21226
892.471	21138
892.594	21188
892.717	21218
892.839	21150
892.962	21070
893.085	21325
893.207	21112
893.33	21169
893.452	20990
893.575	21154
893.697	21119
893.819	21233
893.941	21374
894.064	21252
894.186	21192
894.308	21230
894.43	21222
894.552	21256
894.674	21093
894.796	20960
894.918	21066
895.04	21077
895.161	21241
895.283	21135
895.405	21028
895.526	21142
895.648	21203
895.769	21169
895.891	21222
896.012	21222
896.134	21272
896.255	21089
896.376	21104
896.498	21116
896.619	21218
896.74	21256
896.861	21154
896.982	21469
897.103	21454
897.224	21336
897.345	21275
897.466	21275
897.587	21340
897.708	21458
897.828	21450
897.949	21298
898.07	21051
898.19	21161
898.311	21416
898.431	21260
898.552	21310
898.672	21367
898.792	21272
898.913	21283
899.033	21370
899.153	21131
899.273	21032
899.393	20967
899.513	21119
899.633	21058
899.753	21173
899.873	21047
899.993	21070
900.113	21017
900.232	21070
900.352	21009
900.472	20895
900.591	20773
900.711	20746
900.83	20765
900.95	20925
901.069	20921
901.189	20750
901.308	20526
901.427	20434
901.546	20473
901.665	20473
901.784	20415
901.904	20305
902.023	20263
902.141	20020
902.26	19970
902.379	19932
902.498	19906
902.617	19841
902.735	19944
902.854	19940
902.973	19913
903.091	19575
903.21	19537
903.328	19578
903.446	19601
903.565	19381
903.683	19460
903.801	19152
903.919	19373
904.038	19426
904.156	19152
904.274	19202
904.392	19129
904.51	19027
904.627	19065
904.745	19236
904.863	19072
904.981	19000
905.098	18852
905.216	18787
905.334	18772
905.451	18719
905.569	18730
905.686	18669
905.803	18795
905.921	18582
906.038	18536
906.155	18547
906.272	18551
906.389	18578
906.506	18315
906.623	18311
906.74	18338
906.857	18174
906.974	18205
907.091	18262
907.208	18448
907.324	18380
907.441	18140
907.557	18038
907.674	17954
907.79	17927
907.907	17988
908.023	18114
908.139	17950
908.256	17977
908.372	17942
908.488	17847
908.604	17756
908.72	17733
908.836	17798
908.952	17809
909.068	17707
909.184	17756
909.3	17718
909.415	17722
909.531	17726
909.647	17471
909.762	17459
909.878	17303
909.993	17372
910.108	17277
910.224	17280
910.339	17436
910.454	17284
910.57	17258
910.685	17159
910.8	17455
910.915	17337
911.03	17143
911.145	16980
911.259	17041
911.374	17071
911.489	16873
911.604	16927
911.718	16847
911.833	16759
911.947	16710
912.062	16561
912.176	16790
912.291	16725
912.405	16767
912.519	16980
912.633	16949
912.748	16778
912.862	16767
912.976	16580
913.09	16409
913.204	16466
913.318	16500
913.431	16634
913.545	16683
913.659	16653
913.772	16478
913.886	16466
914	16428
914.113	16405
914.226	16398
914.34	16386
914.453	16128
914.566	16333
914.68	16280
914.793	16246
914.906	15911
915.019	15937
915.132	15873
915.245	15934
915.358	16002
915.47	15884
915.583	15903
915.696	15884
915.809	16101
915.921	16059
916.034	15869
916.146	15960
916.259	15663
916.371	15926
916.483	15816
916.595	15766
916.708	15808
916.82	15701
916.932	15610
917.044	15663
917.156	15637
917.268	15561
917.38	15561
917.491	15606
917.603	15610
917.715	15534
917.826	15580
917.938	15473
918.049	15348
918.161	15534
918.272	15580
918.384	15580
918.495	15526
918.606	15306
918.717	15233
918.828	15298
918.939	15294
919.05	15188
919.161	15310
919.272	15154
919.383	15135
919.494	15378
919.604	15458
919.715	15367
919.826	15180
919.936	15359
920.047	15348
920.157	15195
920.267	15317
920.378	15245
920.488	15184
920.598	15336
920.708	15447
920.818	15348
920.928	15485
921.038	15530
921.148	15447
921.258	15154
921.368	15047
921.477	14952
921.587	15024
921.697	14880
921.806	14948
921.916	14853
922.025	14552
922.134	14682
922.244	14598
922.353	14568
922.462	14514
922.571	14450
922.68	14191
922.789	14218
922.898	14271
923.007	14218
923.116	14195
923.224	14176
923.333	14278
923.442	14142
923.55	14008
923.659	14092
923.767	14103
923.876	13925
923.984	14096
924.092	13894
924.201	13967
924.309	13841
924.417	13959
924.525	13898
924.633	13803
924.741	14594
924.849	13601
924.956	13811
925.064	13670
925.172	13483
925.279	13510
925.387	13620
925.494	13624
925.602	13791
925.709	13655
925.816	13529
925.924	13575
926.031	13468
926.138	13590
926.245	13563
926.352	13468
926.459	13605
926.566	13525
926.673	13510
926.779	13430
926.886	13392
926.993	13225
927.099	13160
927.206	13118
927.312	13065
927.419	13221
927.525	13187
927.631	13072
927.737	13000
927.843	12970
927.95	12833
928.056	12935
928.162	13031
928.267	12993
928.373	13658
928.479	13065
928.585	12760
928.69	12844
928.796	12989
928.901	12810
929.007	12673
929.112	12764
929.218	12760
929.323	12707
929.428	12715
929.533	12814
929.638	12601
929.743	12635
929.848	12642
929.953	12574
930.058	12467
930.163	12304
930.267	12342
930.372	12570
930.477	12254
930.581	12608
930.685	12429
930.79	12239
930.894	12243
930.998	12182
931.103	12251
931.207	11969
931.311	11878
931.415	11794
931.519	11634
931.623	11547
