Data from test_V78500241_1206.txt Node
Date: Fri Mar 25 15:50:09 CST 2022
User: usil
Spectrometer: V785-0024
Trigger mode: 0
Integration Time (sec): 4.000000E-1
Scans to average: 1
Nonlinearity correction enabled: false
Boxcar width: 0
Storing dark spectrum: false
XAxis mode: Wavelengths
Number of Pixels in Spectrum: 1024
>>>>>Begin Spectral Data<<<<<
801.071	28683
801.214	28706
801.356	28344
801.499	28409
801.641	28284
801.783	28192
801.926	28363
802.068	28295
802.211	28162
802.353	28207
802.496	27979
802.638	28017
802.78	27911
802.923	27846
803.065	27861
803.208	27918
803.35	28059
803.492	28021
803.635	28177
803.777	27949
803.919	28131
804.061	28432
804.204	28192
804.346	28147
804.488	28207
804.63	28055
804.773	28139
804.915	28192
805.057	28390
805.199	28158
805.341	28268
805.483	28466
805.626	28440
805.768	28375
805.91	28318
806.052	28348
806.194	28147
806.336	28584
806.478	28341
806.62	28371
806.762	28557
806.904	28691
807.046	28835
807.188	28767
807.33	28820
807.472	28858
807.614	28774
807.756	28740
807.898	28637
808.04	28790
808.182	28634
808.324	28881
808.465	28755
808.607	28946
808.749	29094
808.891	29041
809.033	29162
809.174	29060
809.316	28957
809.458	28980
809.6	29109
809.741	28995
809.883	29113
810.025	29414
810.166	29216
810.308	29330
810.45	29284
810.591	29155
810.733	29155
810.875	29060
811.016	28999
811.158	28968
811.299	29185
811.441	29083
811.582	29200
811.724	29064
811.865	29048
812.007	29193
812.148	29086
812.29	29109
812.431	29364
812.573	29212
812.714	29558
812.855	29531
812.997	29615
813.138	29779
813.279	29805
813.421	29657
813.562	29471
813.703	29440
813.845	29406
813.986	29071
814.127	28828
814.268	28847
814.41	28946
814.551	28710
814.692	28923
814.833	28847
814.974	28858
815.115	28759
815.256	28588
815.397	28637
815.539	28626
815.68	28706
815.821	28436
815.962	28649
816.103	28542
816.244	28637
816.385	28470
816.526	28363
816.666	28310
816.807	28078
816.948	28188
817.089	28295
817.23	28086
817.371	27956
817.512	28211
817.653	28116
817.793	27960
817.934	28143
818.075	28105
818.216	28211
818.356	28139
818.497	27972
818.638	27755
818.778	27842
818.919	27892
819.06	27873
819.2	27964
819.341	28086
819.481	28048
819.622	28306
819.762	28428
819.903	28489
820.043	28386
820.184	28314
820.324	28204
820.465	28234
820.605	28166
820.746	28318
820.886	28276
821.026	28215
821.167	28211
821.307	28230
821.447	28200
821.588	28219
821.728	27949
821.868	27808
822.008	27591
822.149	27618
822.289	27557
822.429	27427
822.569	27321
822.709	27260
822.849	27089
822.99	27051
823.13	27058
823.27	27146
823.41	26960
823.55	26876
823.69	27081
823.83	27039
823.97	26914
824.11	26693
824.25	26720
824.389	26819
824.529	26857
824.669	26830
824.809	26910
824.949	26925
825.089	26864
825.228	26815
825.368	26571
825.508	26670
825.648	26552
825.787	26792
825.927	26602
826.067	26746
826.206	26731
826.346	26735
826.485	26636
826.625	26727
826.765	26724
826.904	26667
827.044	26488
827.183	26393
827.323	26408
827.462	26457
827.601	26301
827.741	26267
827.88	26301
828.02	26252
828.159	26199
828.298	26305
828.437	26396
828.577	26221
828.716	26412
828.855	26240
828.994	26138
829.134	25986
829.273	26031
829.412	25951
829.551	25898
829.69	26065
829.829	26103
829.968	26161
830.107	26100
830.246	26008
830.385	26039
830.524	25833
830.663	25875
830.802	25769
830.941	25681
831.08	25586
831.219	25674
831.357	25818
831.496	25826
831.635	25620
831.774	25620
831.913	25499
832.051	25483
832.19	25643
832.329	25415
832.467	25430
832.606	25266
832.744	25373
832.883	25460
833.022	25331
833.16	25324
833.299	25373
833.437	25388
833.576	25499
833.714	25350
833.852	25411
833.991	25415
834.129	25487
834.267	25419
834.406	25324
834.544	25479
834.682	25419
834.821	25495
834.959	25434
835.097	25392
835.235	25464
835.373	25491
835.511	25449
835.65	25209
835.788	25278
835.926	25110
836.064	25000
836.202	25076
836.34	25164
836.478	25217
836.615	25179
836.753	25331
836.891	25122
837.029	25164
837.167	25282
837.305	25053
837.443	25034
837.58	25031
837.718	25137
837.856	25171
837.993	25110
838.131	25095
838.269	24913
838.406	24871
838.544	24901
838.681	24840
838.819	24627
838.956	24536
839.094	24559
839.231	24745
839.369	24821
839.506	24837
839.643	24749
839.781	24498
839.918	24289
840.055	24532
840.193	24471
840.33	24380
840.467	24422
840.604	24479
840.742	24760
840.879	24258
841.016	24388
841.153	24399
841.29	24517
841.427	24414
841.564	24464
841.701	24456
841.838	24285
841.975	24330
842.112	24277
842.249	24213
842.385	24148
842.522	24464
842.659	24292
842.796	24095
842.933	24201
843.069	24140
843.206	24060
843.343	24114
843.479	24167
843.616	24144
843.752	23931
843.889	23942
844.025	24106
844.162	23931
844.298	24049
844.435	23980
844.571	23950
844.708	23931
844.844	24117
844.98	24102
845.117	24038
845.253	24038
845.389	23916
845.525	23824
845.661	23752
845.798	23653
845.934	23798
846.07	23710
846.206	23695
846.342	23764
846.478	23589
846.614	23493
846.75	23349
846.886	23512
847.022	23497
847.158	23372
847.294	23452
847.429	23387
847.565	23356
847.701	23676
847.837	23159
847.972	23067
848.108	23231
848.244	23098
848.379	23048
848.515	22999
848.65	23010
848.786	23010
848.921	22972
849.057	23022
849.192	23113
849.328	22923
849.463	22968
849.598	23117
849.734	22866
849.869	22873
850.004	22805
850.14	22694
850.275	22744
850.41	22824
850.545	22717
850.68	22702
850.815	22740
850.95	22675
851.085	22995
851.22	22850
851.355	22793
851.49	22805
851.625	22626
851.76	22656
851.895	22584
852.03	22622
852.165	22736
852.299	22744
852.434	22744
852.569	22793
852.703	22752
852.838	22839
852.973	22934
853.107	22812
853.242	22607
853.376	22557
853.511	22432
853.645	22527
853.78	22786
853.914	22599
854.048	22596
854.183	22561
854.317	22493
854.451	22713
854.585	22516
854.72	22523
854.854	22573
854.988	22455
855.122	22405
855.256	22394
855.39	22500
855.524	22622
855.658	22596
855.792	22577
855.926	22519
856.06	22580
856.194	22675
856.327	22527
856.461	22500
856.595	22550
856.729	22546
856.862	22683
856.996	22592
857.13	22649
857.263	22653
857.397	22725
857.53	22561
857.664	22470
857.797	22626
857.931	22797
858.064	22607
858.197	22542
858.331	22561
858.464	22481
858.597	22455
858.731	22493
858.864	22466
858.997	22474
859.13	22489
859.263	22535
859.396	22656
859.529	22577
859.662	22390
859.795	22588
859.928	22550
860.061	22725
860.194	22782
860.327	22588
860.46	22596
860.592	22763
860.725	22763
860.858	22656
860.99	22607
861.123	22535
861.256	22504
861.388	22451
861.521	23353
861.653	22371
861.786	22257
861.918	22459
862.05	22508
862.183	22557
862.315	22618
862.447	22557
862.58	22440
862.712	22265
862.844	22280
862.976	22322
863.108	22375
863.24	22683
863.372	22257
863.504	22215
863.636	22276
863.768	22268
863.9	22268
864.032	22219
864.164	22204
864.296	22295
864.428	22348
864.559	22341
864.691	22421
864.823	22223
864.954	22238
865.086	22223
865.217	22181
865.349	22166
865.48	22177
865.612	22109
865.743	22306
865.875	22272
866.006	22082
866.137	22181
866.269	22131
866.4	22032
866.531	22139
866.662	22002
866.793	22192
866.924	21930
867.055	22131
867.186	22017
867.317	22139
867.448	22055
867.579	22131
867.71	21979
867.841	22112
867.972	22063
868.103	22173
868.233	22086
868.364	22177
868.495	22074
868.625	22188
868.756	22405
868.886	22242
869.017	22299
869.147	22485
869.278	22253
869.408	22238
869.539	22261
869.669	22386
869.799	22428
869.929	22462
870.06	22470
870.19	22649
870.32	22626
870.45	22778
870.58	22702
870.71	22736
870.84	22828
870.97	22862
871.1	22763
871.23	22847
871.36	22953
871.489	22797
871.619	22927
871.749	22759
871.879	22976
872.008	23018
872.138	22889
872.267	22892
872.397	22725
872.526	22774
872.656	22736
872.785	22831
872.915	22923
873.044	23018
873.173	22904
873.303	22968
873.432	22843
873.561	22999
873.69	22843
873.819	22896
873.948	22953
874.077	22763
874.206	22820
874.335	22904
874.464	22919
874.593	23284
874.722	23010
874.851	23189
874.979	23067
875.108	23136
875.237	23124
875.365	22976
875.494	23067
875.623	23170
875.751	23056
875.88	23025
876.008	23265
876.136	23296
876.265	23535
876.393	23707
876.521	23524
876.65	23551
876.778	23539
876.906	23425
877.034	23486
877.162	23509
877.29	23364
877.418	23535
877.546	23391
877.674	23528
877.802	23440
877.93	23478
878.058	23334
878.185	23474
878.313	23421
878.441	23452
878.568	23197
878.696	23345
878.824	23459
878.951	23539
879.079	23798
879.206	23798
879.333	23524
879.461	23455
879.588	23558
879.715	23630
879.842	23783
879.97	23436
880.097	23208
880.224	23246
880.351	23307
880.478	23212
880.605	23242
880.732	23315
880.859	23493
880.986	23269
881.112	23372
881.239	23113
881.366	23109
881.493	22953
881.619	22790
881.746	22835
881.872	22866
881.999	22866
882.125	22736
882.252	22820
882.378	22885
882.505	22904
882.631	22706
882.757	22580
882.883	22660
883.01	22542
883.136	22523
883.262	22280
883.388	22390
883.514	22390
883.64	22573
883.766	22455
883.892	22223
884.018	22280
884.143	22580
884.269	22603
884.395	22234
884.52	22173
884.646	22185
884.772	22162
884.897	21991
885.023	22082
885.148	22303
885.274	22318
885.399	22295
885.524	22112
885.65	22185
885.775	22211
885.9	22154
886.025	22234
886.15	22169
886.275	22048
886.4	22109
886.525	22101
886.65	22131
886.775	22044
886.9	22169
887.025	22348
887.149	22219
887.274	21892
887.399	21873
887.523	21816
887.648	21861
887.773	21854
887.897	21956
888.021	21949
888.146	21865
888.27	22082
888.395	22021
888.519	21991
888.643	21797
888.767	21991
888.891	21903
889.015	21679
889.139	21850
889.263	21641
889.387	21766
889.511	21869
889.635	21888
889.759	21747
889.883	21648
890.006	21686
890.13	21781
890.254	21557
890.377	21660
890.501	21545
890.624	21298
890.748	21469
890.871	21275
890.995	21195
891.118	21036
891.241	21279
891.364	21302
891.488	21310
891.611	21275
891.734	21317
891.857	21195
891.98	21116
892.103	21348
892.226	21245
892.349	21131
892.471	21009
892.594	21192
892.717	21157
892.839	21199
892.962	21127
893.085	21230
893.207	21195
893.33	21108
893.452	20982
893.575	21131
893.697	21066
893.819	21275
893.941	21298
894.064	21233
894.186	21032
894.308	20971
894.43	21112
894.552	21268
894.674	21142
894.796	20982
894.918	21131
895.04	21096
895.161	21207
895.283	21199
895.405	21116
895.526	21074
895.648	21074
895.769	21169
895.891	21154
896.012	21233
896.134	21188
896.255	21070
896.376	21013
896.498	21028
896.619	21066
896.74	21013
896.861	21180
896.982	21401
897.103	21568
897.224	21378
897.345	21275
897.466	21241
897.587	21355
897.708	21363
897.828	21291
897.949	21245
898.07	21123
898.19	21272
898.311	21416
898.431	21176
898.552	21226
898.672	21332
898.792	21386
898.913	21264
899.033	21264
899.153	21066
899.273	21089
899.393	21043
899.513	21005
899.633	21017
899.753	21127
899.873	20899
899.993	21119
900.113	20830
900.232	21089
900.352	20967
900.472	20864
900.591	20777
900.711	20807
900.83	20762
900.95	20918
901.069	20971
901.189	20663
901.308	20370
901.427	20328
901.546	20294
901.665	20404
901.784	20320
901.904	20191
902.023	20149
902.141	19951
902.26	19932
902.379	19890
902.498	19849
902.617	19909
902.735	19902
902.854	19944
902.973	19852
903.091	19518
903.21	19472
903.328	19510
903.446	19537
903.565	19263
903.683	19301
903.801	19194
903.919	19354
904.038	19145
904.156	19088
904.274	19126
904.392	19027
904.51	19141
904.627	19114
904.745	19012
904.863	19145
904.981	18798
905.098	18734
905.216	18760
905.334	18791
905.451	18741
905.569	18711
905.686	18741
905.803	18665
905.921	18544
906.038	18623
906.155	18604
906.272	18540
906.389	18441
906.506	18361
906.623	18319
906.74	18258
906.857	18174
906.974	18201
907.091	18338
907.208	18369
907.324	18273
907.441	18167
907.557	17999
907.674	17958
907.79	17961
907.907	18049
908.023	17996
908.139	17977
908.256	17840
908.372	17874
908.488	17855
908.604	17726
908.72	17665
908.836	17733
908.952	17638
909.068	17699
909.184	17931
909.3	17745
909.415	17691
909.531	17748
909.647	17360
909.762	17395
909.878	17436
909.993	17360
910.108	17315
910.224	17406
910.339	17436
910.454	17322
910.57	17231
910.685	17174
910.8	17387
910.915	17364
911.03	17265
911.145	17014
911.259	16938
911.374	16980
911.489	16942
911.604	16835
911.718	16729
911.833	16721
911.947	16706
912.062	16569
912.176	16755
912.291	16596
912.405	16675
912.519	16892
912.633	16953
912.748	16805
912.862	16630
912.976	16550
913.09	16474
913.204	16421
913.318	16565
913.431	16660
913.545	16527
913.659	16660
913.772	16459
913.886	16325
914	16284
914.113	16367
914.226	16367
914.34	16379
914.453	16238
914.566	16382
914.68	16230
914.793	16177
914.906	15964
915.019	15884
915.132	15835
915.245	15899
915.358	15838
915.47	15819
915.583	15854
915.696	15975
915.809	16063
915.921	16078
916.034	15743
916.146	15797
916.259	15793
916.371	15888
916.483	15854
916.595	15713
916.708	15717
916.82	15584
916.932	15618
917.044	15720
917.156	15679
917.268	15492
917.38	15644
917.491	15606
917.603	15443
917.715	15625
917.826	15496
917.938	15485
918.049	15340
918.161	15469
918.272	15587
918.384	15660
918.495	15397
918.606	15245
918.717	15192
918.828	15275
918.939	15264
919.05	15188
919.161	15180
919.272	15157
919.383	15085
919.494	15378
919.604	15336
919.715	15291
919.826	15180
919.936	15165
920.047	15268
920.157	15272
920.267	15389
920.378	15211
920.488	15214
920.598	15378
920.708	15519
920.818	15386
920.928	15370
921.038	15431
921.148	15416
921.258	15097
921.368	15047
921.477	14929
921.587	14910
921.697	14727
921.806	14941
921.916	14811
922.025	14686
922.134	14568
922.244	14556
922.353	14606
922.462	14423
922.571	14423
922.68	14240
922.789	14183
922.898	14218
923.007	14103
923.116	14221
923.224	14145
923.333	14126
923.442	14107
923.55	14027
923.659	14020
923.767	14161
923.876	13913
923.984	14065
924.092	13868
924.201	13932
924.309	13947
924.417	13921
924.525	13795
924.633	13894
924.741	14629
924.849	13609
924.956	13818
925.064	13677
925.172	13537
925.279	13605
925.387	13529
925.494	13540
925.602	13655
925.709	13616
925.816	13502
925.924	13506
926.031	13575
926.138	13548
926.245	13597
926.352	13419
926.459	13502
926.566	13609
926.673	13422
926.779	13377
926.886	13293
926.993	13137
927.099	13114
927.206	13107
927.312	13065
927.419	13236
927.525	13145
927.631	13141
927.737	13000
927.843	12916
927.95	12875
928.056	12996
928.162	13008
928.267	12962
928.373	13556
928.479	13015
928.585	12745
928.69	12920
928.796	12856
928.901	12764
929.007	12616
929.112	12806
929.218	12673
929.323	12631
929.428	12616
929.533	12802
929.638	12631
929.743	12612
929.848	12646
929.953	12650
930.058	12574
930.163	12220
930.267	12372
930.372	12445
930.477	12232
930.581	12570
930.685	12315
930.79	12167
930.894	12197
930.998	12205
931.103	12296
931.207	12015
931.311	11821
931.415	11764
931.519	11630
931.623	11547
