Data from test_V78500241_3320.txt Node
Date: Fri Mar 25 16:04:48 CST 2022
User: usil
Spectrometer: V785-0024
Trigger mode: 0
Integration Time (sec): 4.000000E-1
Scans to average: 1
Nonlinearity correction enabled: false
Boxcar width: 0
Storing dark spectrum: false
XAxis mode: Wavelengths
Number of Pixels in Spectrum: 1024
>>>>>Begin Spectral Data<<<<<
801.071	28649
801.214	28637
801.356	28436
801.499	28531
801.641	28268
801.783	28348
801.926	28318
802.068	28409
802.211	28287
802.353	28192
802.496	28025
802.638	28074
802.78	27964
802.923	27762
803.065	27804
803.208	27899
803.35	28025
803.492	28154
803.635	28169
803.777	28120
803.919	28074
804.061	28519
804.204	28276
804.346	28055
804.488	28109
804.63	28249
804.773	28131
804.915	28249
805.057	28276
805.199	28238
805.341	28322
805.483	28318
805.626	28265
805.768	28276
805.91	28382
806.052	28531
806.194	28329
806.336	28527
806.478	28367
806.62	28508
806.762	28531
806.904	28550
807.046	28828
807.188	28812
807.33	28858
807.472	28900
807.614	28866
807.756	28786
807.898	28713
808.04	28611
808.182	28611
808.324	28702
808.465	28725
808.607	28866
808.749	29159
808.891	29197
809.033	29185
809.174	29071
809.316	29113
809.458	29105
809.6	29022
809.741	29318
809.883	29181
810.025	29189
810.166	29452
810.308	29379
810.45	29136
810.591	29181
810.733	29140
810.875	29216
811.016	29193
811.158	28873
811.299	29132
811.441	29284
811.582	29189
811.724	29121
811.865	29174
812.007	29109
812.148	29151
812.29	29212
812.431	29303
812.573	29471
812.714	29440
812.855	29695
812.997	29630
813.138	29927
813.279	29710
813.421	29551
813.562	29615
813.703	29490
813.845	29269
813.986	28980
814.127	28900
814.268	28736
814.41	28698
814.551	28596
814.692	28816
814.833	28717
814.974	28672
815.115	28801
815.256	28812
815.397	28542
815.539	28656
815.68	28493
815.821	28436
815.962	28634
816.103	28478
816.244	28428
816.385	28394
816.526	28318
816.666	28268
816.807	28051
816.948	28135
817.089	28238
817.23	28177
817.371	28097
817.512	28044
817.653	28242
817.793	27987
817.934	28021
818.075	28105
818.216	28147
818.356	28078
818.497	27926
818.638	27880
818.778	27869
818.919	27979
819.06	27907
819.2	27983
819.341	28097
819.481	28166
819.622	28192
819.762	28535
819.903	28462
820.043	28223
820.184	28360
820.324	28166
820.465	28348
820.605	28291
820.746	28150
820.886	28059
821.026	28238
821.167	28093
821.307	28200
821.447	28112
821.588	28131
821.728	27854
821.868	27762
822.008	27523
822.149	27542
822.289	27633
822.429	27382
822.569	27252
822.709	27306
822.849	27020
822.99	27154
823.13	27146
823.27	27077
823.41	26849
823.55	26830
823.69	26994
823.83	26933
823.97	26925
824.11	26842
824.25	26678
824.389	26800
824.529	26830
824.669	26777
824.809	26842
824.949	26902
825.089	26823
825.228	26845
825.368	26701
825.508	26686
825.648	26716
825.787	26746
825.927	26906
826.067	26522
826.206	26594
826.346	26644
826.485	26720
826.625	26640
826.765	26720
826.904	26682
827.044	26476
827.183	26347
827.323	26271
827.462	26343
827.601	26317
827.741	26256
827.88	26389
828.02	26225
828.159	26237
828.298	26271
828.437	26320
828.577	26237
828.716	26415
828.855	26206
828.994	25974
829.134	26054
829.273	26054
829.412	26020
829.551	26027
829.69	25940
829.829	26027
829.968	26161
830.107	26092
830.246	26081
830.385	25997
830.524	26096
830.663	25944
830.802	25784
830.941	25689
831.08	25635
831.219	25780
831.357	25734
831.496	25753
831.635	25647
831.774	25575
831.913	25575
832.051	25346
832.19	25388
832.329	25419
832.467	25343
832.606	25301
832.744	25251
832.883	25297
833.022	25297
833.16	25320
833.299	25244
833.437	25350
833.576	25514
833.714	25350
833.852	25369
833.991	25468
834.129	25445
834.267	25343
834.406	25411
834.544	25282
834.682	25403
834.821	25373
834.959	25544
835.097	25403
835.235	25350
835.373	25304
835.511	25320
835.65	25289
835.788	25312
835.926	25084
836.064	24973
836.202	25061
836.34	25160
836.478	25244
836.615	25225
836.753	25259
836.891	25289
837.029	25145
837.167	25122
837.305	25145
837.443	25095
837.58	24920
837.718	25023
837.856	25061
837.993	25015
838.131	25114
838.269	24886
838.406	24856
838.544	24882
838.681	24753
838.819	24608
838.956	24475
839.094	24467
839.231	24528
839.369	24696
839.506	24939
839.643	24821
839.781	24460
839.918	24410
840.055	24582
840.193	24513
840.33	24597
840.467	24342
840.604	24300
840.742	24696
840.879	24167
841.016	24289
841.153	24235
841.29	24414
841.427	24308
841.564	24262
841.701	24281
841.838	24330
841.975	24258
842.112	24281
842.249	24186
842.385	24201
842.522	24369
842.659	24228
842.796	24239
842.933	24216
843.069	24003
843.206	24136
843.343	24117
843.479	24159
843.616	24186
843.752	24015
843.889	23999
844.025	24003
844.162	23870
844.298	24049
844.435	23859
844.571	23870
844.708	23980
844.844	23931
844.98	24079
845.117	24110
845.253	23882
845.389	23824
845.525	23775
845.661	23775
845.798	23737
845.934	23634
846.07	23707
846.206	23745
846.342	23855
846.478	23653
846.614	23471
846.75	23315
846.886	23341
847.022	23455
847.158	23512
847.294	23417
847.429	23490
847.565	23337
847.701	23596
847.837	23121
847.972	23117
848.108	23189
848.244	23242
848.379	23064
848.515	22908
848.65	22908
848.786	22877
848.921	22942
849.057	23037
849.192	23083
849.328	22976
849.463	22953
849.598	22877
849.734	22873
849.869	22801
850.004	22748
850.14	22698
850.275	22653
850.41	22759
850.545	22721
850.68	22683
850.815	22915
850.95	22736
851.085	23006
851.22	22820
851.355	22721
851.49	22577
851.625	22744
851.76	22679
851.895	22622
852.03	22675
852.165	22831
852.299	22835
852.434	22816
852.569	22771
852.703	22820
852.838	22839
852.973	23003
853.107	22767
853.242	22672
853.376	22691
853.511	22402
853.645	22519
853.78	22679
853.914	22634
854.048	22493
854.183	22398
854.317	22573
854.451	22771
854.585	22557
854.72	22493
854.854	22679
854.988	22603
855.122	22603
855.256	22443
855.39	22504
855.524	22706
855.658	22546
855.792	22508
855.926	22527
856.06	22618
856.194	22683
856.327	22580
856.461	22508
856.595	22500
856.729	22489
856.862	22584
856.996	22531
857.13	22664
857.263	22729
857.397	22706
857.53	22535
857.664	22504
857.797	22538
857.931	22721
858.064	22550
858.197	22569
858.331	22565
858.464	22519
858.597	22474
858.731	22447
858.864	22569
858.997	22557
859.13	22451
859.263	22561
859.396	22691
859.529	22500
859.662	22508
859.795	22561
859.928	22580
860.061	22809
860.194	22793
860.327	22481
860.46	22588
860.592	22649
860.725	22744
860.858	22748
860.99	22626
861.123	22428
861.256	22527
861.388	22615
861.521	23250
861.653	22451
861.786	22394
861.918	22413
862.05	22428
862.183	22474
862.315	22508
862.447	22485
862.58	22466
862.712	22337
862.844	22234
862.976	22382
863.108	22428
863.24	22797
863.372	22276
863.504	22185
863.636	22295
863.768	22249
863.9	22360
864.032	22287
864.164	22257
864.296	22341
864.428	22348
864.559	22291
864.691	22314
864.823	22196
864.954	22173
865.086	22371
865.217	22124
865.349	22147
865.48	22158
865.612	22036
865.743	22276
865.875	22261
866.006	22017
866.137	22154
866.269	22105
866.4	22169
866.531	21949
866.662	21968
866.793	21915
866.924	22017
867.055	22131
867.186	22135
867.317	22116
867.448	21937
867.579	21819
867.71	21987
867.841	22010
867.972	22124
868.103	22105
868.233	22147
868.364	22063
868.495	22051
868.625	22234
868.756	22470
868.886	22230
869.017	22310
869.147	22337
869.278	22371
869.408	22352
869.539	22333
869.669	22310
869.799	22379
869.929	22527
870.06	22409
870.19	22577
870.32	22516
870.45	22645
870.58	22675
870.71	22843
870.84	22748
870.97	22713
871.1	22774
871.23	22763
871.36	22809
871.489	22885
871.619	22946
871.749	22919
871.879	22866
872.008	23064
872.138	22881
872.267	22987
872.397	22854
872.526	22736
872.656	22668
872.785	22725
872.915	23052
873.044	22889
873.173	22877
873.303	22965
873.432	22930
873.561	23022
873.69	23029
873.819	22908
873.948	22980
874.077	22900
874.206	22961
874.335	22946
874.464	23029
874.593	23189
874.722	23094
874.851	23166
874.979	23223
875.108	23216
875.237	23155
875.365	23079
875.494	23098
875.623	23212
875.751	23086
875.88	23162
876.008	23292
876.136	23261
876.265	23554
876.393	23649
876.521	23623
876.65	23653
876.778	23596
876.906	23391
877.034	23444
877.162	23421
877.29	23349
877.418	23486
877.546	23509
877.674	23516
877.802	23512
877.93	23360
878.058	23360
878.185	23387
878.313	23505
878.441	23326
878.568	23204
878.696	23452
878.824	23577
878.951	23551
879.079	23672
879.206	23737
879.333	23634
879.461	23414
879.588	23653
879.715	23611
879.842	23783
879.97	23630
880.097	23132
880.224	23216
880.351	23299
880.478	23414
880.605	23193
880.732	23261
880.859	23558
880.986	23372
881.112	23341
881.239	23239
881.366	23075
881.493	22915
881.619	22820
881.746	22904
881.872	22915
881.999	22869
882.125	22805
882.252	22771
882.378	22687
882.505	22927
882.631	22771
882.757	22603
882.883	22683
883.01	22535
883.136	22596
883.262	22546
883.388	22360
883.514	22592
883.64	22489
883.766	22470
883.892	22352
884.018	22261
884.143	22436
884.269	22550
884.395	22261
884.52	22223
884.646	22261
884.772	22128
884.897	22154
885.023	22219
885.148	22299
885.274	22204
885.399	22242
885.524	22268
885.65	22109
885.775	22204
885.9	22147
886.025	22242
886.15	22185
886.275	22147
886.4	22109
886.525	22055
886.65	21991
886.775	22082
886.9	22207
887.025	22367
887.149	22101
887.274	22029
887.399	22017
887.523	21812
887.648	21865
887.773	21869
887.897	21949
888.021	21903
888.146	21915
888.27	22131
888.395	22051
888.519	21949
888.643	21869
888.767	22013
888.891	21800
889.015	21823
889.139	21785
889.263	21709
889.387	21808
889.511	21941
889.635	21751
889.759	21793
889.883	21720
890.006	21698
890.13	21675
890.254	21530
890.377	21686
890.501	21443
890.624	21450
890.748	21610
890.871	21351
890.995	21306
891.118	21214
891.241	21176
891.364	21218
891.488	21405
891.611	21340
891.734	21226
891.857	21298
891.98	21283
892.103	21317
892.226	21264
892.349	21199
892.471	20971
892.594	21096
892.717	21180
892.839	21237
892.962	21184
893.085	21306
893.207	21135
893.33	21036
893.452	21043
893.575	21245
893.697	21184
893.819	21203
893.941	21237
894.064	21222
894.186	21096
894.308	21104
894.43	21260
894.552	21241
894.674	21188
894.796	21093
894.918	21188
895.04	21055
895.161	21146
895.283	21283
895.405	21116
895.526	21047
895.648	21047
895.769	21192
895.891	21146
896.012	21336
896.134	21089
896.255	21138
896.376	21119
896.498	21123
896.619	21070
896.74	21096
896.861	21245
896.982	21469
897.103	21557
897.224	21416
897.345	21340
897.466	21233
897.587	21249
897.708	21466
897.828	21370
897.949	21363
898.07	21180
898.19	21264
898.311	21412
898.431	21256
898.552	21268
898.672	21351
898.792	21374
898.913	21317
899.033	21142
899.153	21188
899.273	21096
899.393	20956
899.513	20975
899.633	20986
899.753	21176
899.873	21013
899.993	21039
900.113	21017
900.232	20990
900.352	20982
900.472	20861
900.591	20834
900.711	20876
900.83	20781
900.95	20952
901.069	20838
901.189	20678
901.308	20511
901.427	20434
901.546	20415
901.665	20393
901.784	20469
901.904	20256
902.023	20092
902.141	19982
902.26	19928
902.379	20145
902.498	19906
902.617	19811
902.735	19845
902.854	19841
902.973	19784
903.091	19582
903.21	19540
903.328	19464
903.446	19441
903.565	19411
903.683	19468
903.801	19217
903.919	19213
904.038	19240
904.156	19107
904.274	19198
904.392	19122
904.51	19095
904.627	19034
904.745	19251
904.863	19194
904.981	18897
905.098	18741
905.216	18810
905.334	18817
905.451	18840
905.569	18772
905.686	18798
905.803	18749
905.921	18547
906.038	18726
906.155	18574
906.272	18410
906.389	18479
906.506	18338
906.623	18220
906.74	18262
906.857	18155
906.974	18186
907.091	18357
907.208	18445
907.324	18315
907.441	18117
907.557	18026
907.674	18091
907.79	17958
907.907	18034
908.023	18003
908.139	18060
908.256	18030
908.372	17942
908.488	17828
908.604	17805
908.72	17809
908.836	17703
908.952	17680
909.068	17707
909.184	17783
909.3	17657
909.415	17802
909.531	17695
909.647	17497
909.762	17421
909.878	17345
909.993	17551
910.108	17376
910.224	17261
910.339	17410
910.454	17193
910.57	17258
910.685	17208
910.8	17528
910.915	17311
911.03	17246
911.145	17056
911.259	16987
911.374	17029
911.489	16942
911.604	16862
911.718	16683
911.833	16717
911.947	16615
912.062	16599
912.176	16748
912.291	16786
912.405	16721
912.519	16850
912.633	16908
912.748	16847
912.862	16618
912.976	16641
913.09	16375
913.204	16504
913.318	16584
913.431	16584
913.545	16656
913.659	16637
913.772	16440
913.886	16402
914	16287
914.113	16386
914.226	16363
914.34	16371
914.453	16265
914.566	16265
914.68	16173
914.793	16185
914.906	16006
915.019	15903
915.132	15812
915.245	15827
915.358	15964
915.47	15808
915.583	15922
915.696	15941
915.809	15888
915.921	15956
916.034	15934
916.146	15770
916.259	15755
916.371	15778
916.483	15857
916.595	15743
916.708	15770
916.82	15675
916.932	15709
917.044	15686
917.156	15663
917.268	15549
917.38	15553
917.491	15481
917.603	15595
917.715	15584
917.826	15614
917.938	15469
918.049	15332
918.161	15488
918.272	15633
918.384	15572
918.495	15348
918.606	15332
918.717	15317
918.828	15317
918.939	15188
919.05	15222
919.161	15230
919.272	14925
919.383	15135
919.494	15416
919.604	15439
919.715	15237
919.826	15112
919.936	15188
920.047	15310
920.157	15329
920.267	15310
920.378	15245
920.488	15154
920.598	15408
920.708	15538
920.818	15393
920.928	15389
921.038	15485
921.148	15564
921.258	15070
921.368	15024
921.477	15009
921.587	15009
921.697	14826
921.806	15032
921.916	14731
922.025	14686
922.134	14564
922.244	14545
922.353	14617
922.462	14549
922.571	14339
922.68	14282
922.789	14202
922.898	14134
923.007	14119
923.116	14210
923.224	14180
923.333	14237
923.442	14111
923.55	14069
923.659	14088
923.767	14073
923.876	13997
923.984	14008
924.092	13871
924.201	13982
924.309	13974
924.417	13826
924.525	13944
924.633	13890
924.741	14785
924.849	13670
924.956	13734
925.064	13620
925.172	13510
925.279	13567
925.387	13647
925.494	13647
925.602	13712
925.709	13613
925.816	13476
925.924	13582
926.031	13670
926.138	13533
926.245	13586
926.352	13441
926.459	13601
926.566	13624
926.673	13381
926.779	13415
926.886	13278
926.993	13194
927.099	13198
927.206	13103
927.312	13061
927.419	13088
927.525	13198
927.631	13019
927.737	12947
927.843	12909
927.95	12814
928.056	12985
928.162	12901
928.267	12985
928.373	13628
928.479	12996
928.585	12700
928.69	12871
928.796	12970
928.901	12817
929.007	12620
929.112	12772
929.218	12810
929.323	12726
929.428	12601
929.533	12795
929.638	12639
929.743	12616
929.848	12677
929.953	12597
930.058	12479
930.163	12464
930.267	12384
930.372	12498
930.477	12384
930.581	12506
930.685	12372
930.79	12220
930.894	12224
930.998	12167
931.103	12357
931.207	11958
931.311	11817
931.415	11756
931.519	11627
931.623	11558
