Data from test_V78500241_1748.txt Node
Date: Fri Mar 25 15:53:54 CST 2022
User: usil
Spectrometer: V785-0024
Trigger mode: 0
Integration Time (sec): 4.000000E-1
Scans to average: 1
Nonlinearity correction enabled: false
Boxcar width: 0
Storing dark spectrum: false
XAxis mode: Wavelengths
Number of Pixels in Spectrum: 1024
>>>>>Begin Spectral Data<<<<<
801.071	28573
801.214	28489
801.356	28405
801.499	28223
801.641	28238
801.783	28086
801.926	28101
802.068	28070
802.211	28063
802.353	28109
802.496	27937
802.638	27903
802.78	27778
802.923	27835
803.065	27854
803.208	27800
803.35	27831
803.492	28112
803.635	28169
803.777	27873
803.919	28147
804.061	28398
804.204	28124
804.346	28074
804.488	27953
804.63	28055
804.773	28143
804.915	28139
805.057	28242
805.199	28162
805.341	28295
805.483	28371
805.626	28158
805.768	28185
805.91	28481
806.052	28295
806.194	28101
806.336	28500
806.478	28356
806.62	28265
806.762	28443
806.904	28691
807.046	28896
807.188	28721
807.33	28675
807.472	28664
807.614	28801
807.756	28725
807.898	28561
808.04	28538
808.182	28622
808.324	28538
808.465	28793
808.607	28866
808.749	28923
808.891	29056
809.033	29159
809.174	29113
809.316	29159
809.458	28957
809.6	28968
809.741	29113
809.883	29075
810.025	29353
810.166	29296
810.308	29261
810.45	29223
810.591	29261
810.733	29003
810.875	28900
811.016	28812
811.158	28850
811.299	29113
811.441	29273
811.582	29250
811.724	28999
811.865	28957
812.007	28896
812.148	29029
812.29	29155
812.431	29003
812.573	29330
812.714	29387
812.855	29516
812.997	29589
813.138	29634
813.279	29585
813.421	29577
813.562	29459
813.703	29490
813.845	29204
813.986	29018
814.127	28725
814.268	28790
814.41	28706
814.551	28634
814.692	28900
814.833	28607
814.974	28679
815.115	28660
815.256	28611
815.397	28569
815.539	28557
815.68	28485
815.821	28421
815.962	28573
816.103	28546
816.244	28390
816.385	28276
816.526	28344
816.666	28017
816.807	27926
816.948	28002
817.089	28211
817.23	28086
817.371	27880
817.512	27956
817.653	27994
817.793	27831
817.934	28044
818.075	27907
818.216	27926
818.356	27964
818.497	27918
818.638	27671
818.778	27667
818.919	27759
819.06	27656
819.2	28112
819.341	27922
819.481	27922
819.622	28162
819.762	28348
819.903	28284
820.043	28177
820.184	28109
820.324	28032
820.465	28173
820.605	28097
820.746	28086
820.886	27949
821.026	28067
821.167	28029
821.307	28204
821.447	27983
821.588	27861
821.728	27770
821.868	27663
822.008	27496
822.149	27469
822.289	27466
822.429	27233
822.569	27214
822.709	27089
822.849	26963
822.99	26982
823.13	26857
823.27	26921
823.41	26739
823.55	26667
823.69	26754
823.83	26853
823.97	26746
824.11	26545
824.25	26495
824.389	26598
824.529	26754
824.669	26625
824.809	26632
824.949	26606
825.089	26864
825.228	26769
825.368	26503
825.508	26526
825.648	26522
825.787	26579
825.927	26469
826.067	26564
826.206	26408
826.346	26488
826.485	26590
826.625	26579
826.765	26393
826.904	26457
827.044	26317
827.183	26240
827.323	26199
827.462	26286
827.601	26290
827.741	26206
827.88	26275
828.02	26103
828.159	26168
828.298	26244
828.437	26183
828.577	26206
828.716	26290
828.855	26111
828.994	25856
829.134	26001
829.273	25928
829.412	25742
829.551	25780
829.69	25791
829.829	25913
829.968	26016
830.107	26088
830.246	25845
830.385	25909
830.524	25814
830.663	25715
830.802	25567
830.941	25525
831.08	25537
831.219	25635
831.357	25632
831.496	25681
831.635	25514
831.774	25430
831.913	25373
832.051	25316
832.19	25274
832.329	25282
832.467	25202
832.606	25133
832.744	25187
832.883	25187
833.022	25228
833.16	25236
833.299	25137
833.437	25126
833.576	25316
833.714	25137
833.852	25285
833.991	25160
834.129	25362
834.267	25285
834.406	25293
834.544	25179
834.682	25236
834.821	25156
834.959	25422
835.097	25156
835.235	25133
835.373	25251
835.511	25259
835.65	24947
835.788	25091
835.926	25000
836.064	24848
836.202	25031
836.34	25031
836.478	25103
836.615	24989
836.753	25107
836.891	25076
837.029	24966
837.167	25099
837.305	24958
837.443	24966
837.58	24886
837.718	24958
837.856	24878
837.993	24943
838.131	24947
838.269	24677
838.406	24741
838.544	24749
838.681	24441
838.819	24536
838.956	24350
839.094	24262
839.231	24418
839.369	24665
839.506	24646
839.643	24582
839.781	24311
839.918	24247
840.055	24281
840.193	24254
840.33	24247
840.467	24285
840.604	24273
840.742	24589
840.879	24163
841.016	24243
841.153	24148
841.29	24445
841.427	24247
841.564	24232
841.701	24190
841.838	24167
841.975	24228
842.112	24125
842.249	24117
842.385	23882
842.522	24110
842.659	24038
842.796	24030
842.933	23969
843.069	23790
843.206	23885
843.343	24068
843.479	24030
843.616	24064
843.752	23821
843.889	23760
844.025	23908
844.162	23726
844.298	23897
844.435	23680
844.571	23802
844.708	23729
844.844	23946
844.98	23969
845.117	23737
845.253	23672
845.389	23642
845.525	23714
845.661	23653
845.798	23600
845.934	23509
846.07	23486
846.206	23482
846.342	23554
846.478	23452
846.614	23303
846.75	23086
846.886	23337
847.022	23421
847.158	23311
847.294	23220
847.429	23284
847.565	23200
847.701	23398
847.837	22984
847.972	22904
848.108	23140
848.244	23006
848.379	22881
848.515	22858
848.65	22771
848.786	22812
848.921	22869
849.057	22915
849.192	22805
849.328	22835
849.463	22828
849.598	22778
849.734	22729
849.869	22649
850.004	22565
850.14	22538
850.275	22561
850.41	22440
850.545	22531
850.68	22512
850.815	22630
850.95	22622
851.085	22889
851.22	22698
851.355	22611
851.49	22531
851.625	22481
851.76	22538
851.895	22493
852.03	22481
852.165	22580
852.299	22626
852.434	22675
852.569	22569
852.703	22599
852.838	22531
852.973	22767
853.107	22626
853.242	22580
853.376	22409
853.511	22287
853.645	22367
853.78	22329
853.914	22272
854.048	22291
854.183	22284
854.317	22322
854.451	22565
854.585	22424
854.72	22310
854.854	22481
854.988	22322
855.122	22352
855.256	22341
855.39	22329
855.524	22500
855.658	22360
855.792	22481
855.926	22272
856.06	22523
856.194	22554
856.327	22341
856.461	22413
856.595	22333
856.729	22333
856.862	22538
856.996	22554
857.13	22272
857.263	22527
857.397	22493
857.53	22230
857.664	22363
857.797	22474
857.931	22481
858.064	22382
858.197	22474
858.331	22363
858.464	22299
858.597	22344
858.731	22303
858.864	22417
858.997	22443
859.13	22329
859.263	22379
859.396	22554
859.529	22341
859.662	22371
859.795	22314
859.928	22527
860.061	22436
860.194	22592
860.327	22474
860.46	22382
860.592	22508
860.725	22588
860.858	22443
860.99	22409
861.123	22249
861.256	22257
861.388	22295
861.521	23227
861.653	22382
861.786	22196
861.918	22215
862.05	22306
862.183	22143
862.315	22272
862.447	22382
862.58	22265
862.712	22010
862.844	22006
862.976	22196
863.108	22086
863.24	22497
863.372	21888
863.504	22059
863.636	22150
863.768	22116
863.9	22147
864.032	22006
864.164	22074
864.296	22211
864.428	22287
864.559	22139
864.691	22120
864.823	22162
864.954	22074
865.086	22147
865.217	21983
865.349	22070
865.48	21838
865.612	21907
865.743	22101
865.875	21941
866.006	21869
866.137	22067
866.269	22036
866.4	21960
866.531	21895
866.662	21762
866.793	21937
866.924	21854
867.055	21888
867.186	21823
867.317	21770
867.448	21701
867.579	21903
867.71	21759
867.841	21838
867.972	21911
868.103	21838
868.233	21975
868.364	21869
868.495	21987
868.625	22086
868.756	22147
868.886	22029
869.017	22067
869.147	22116
869.278	22173
869.408	22044
869.539	22070
869.669	22181
869.799	22086
869.929	22219
870.06	22265
870.19	22527
870.32	22436
870.45	22424
870.58	22417
870.71	22645
870.84	22531
870.97	22519
871.1	22546
871.23	22668
871.36	22740
871.489	22683
871.619	22782
871.749	22710
871.879	22736
872.008	22805
872.138	22706
872.267	22717
872.397	22641
872.526	22573
872.656	22615
872.785	22618
872.915	22672
873.044	22786
873.173	22710
873.303	22805
873.432	22664
873.561	22904
873.69	22729
873.819	22706
873.948	22835
874.077	22885
874.206	22782
874.335	22759
874.464	22797
874.593	22995
874.722	22911
874.851	23052
874.979	22896
875.108	23014
875.237	22957
875.365	22786
875.494	22911
875.623	23048
875.751	22934
875.88	22999
876.008	23006
876.136	23204
876.265	23318
876.393	23337
876.521	23376
876.65	23467
876.778	23303
876.906	23273
877.034	23261
877.162	23436
877.29	23261
877.418	23406
877.546	23273
877.674	23337
877.802	23170
877.93	23227
878.058	23258
878.185	23178
878.313	23216
878.441	23337
878.568	23090
878.696	23223
878.824	23273
878.951	23368
879.079	23524
879.206	23623
879.333	23421
879.461	23372
879.588	23414
879.715	23429
879.842	23615
879.97	23288
880.097	23025
880.224	23170
880.351	23200
880.478	23071
880.605	22999
880.732	23117
880.859	23349
880.986	23128
881.112	23193
881.239	22908
881.366	22843
881.493	22733
881.619	22782
881.746	22687
881.872	22706
881.999	22641
882.125	22493
882.252	22767
882.378	22706
882.505	22645
882.631	22637
882.757	22390
882.883	22436
883.01	22455
883.136	22333
883.262	22257
883.388	22207
883.514	22333
883.64	22360
883.766	22303
883.892	22109
884.018	22150
884.143	22329
884.269	22352
884.395	22048
884.52	21998
884.646	22063
884.772	21907
884.897	21876
885.023	22025
885.148	22040
885.274	22185
885.399	22074
885.524	21915
885.65	21994
885.775	22036
885.9	21899
886.025	22021
886.15	22070
886.275	21911
886.4	21930
886.525	21903
886.65	21968
886.775	21869
886.9	22135
887.025	22158
887.149	21907
887.274	21766
887.399	21694
887.523	21808
887.648	21652
887.773	21660
887.897	21781
888.021	21652
888.146	21660
888.27	21865
888.395	21816
888.519	21774
888.643	21717
888.767	21884
888.891	21652
889.015	21629
889.139	21603
889.263	21492
889.387	21614
889.511	21785
889.635	21660
889.759	21530
889.883	21545
890.006	21583
890.13	21515
890.254	21553
890.377	21424
890.501	21188
890.624	21195
890.748	21272
890.871	21123
890.995	21066
891.118	21085
891.241	21161
891.364	21112
891.488	21138
891.611	21043
891.734	21138
891.857	21150
891.98	21066
892.103	21104
892.226	21043
892.349	21047
892.471	20842
892.594	21047
892.717	20967
892.839	20960
892.962	21032
893.085	21093
893.207	21070
893.33	20944
893.452	20956
893.575	20990
893.697	20861
893.819	21157
893.941	21230
894.064	21096
894.186	20952
894.308	20925
894.43	20990
894.552	21085
894.674	21100
894.796	20872
894.918	20952
895.04	20979
895.161	20986
895.283	21017
895.405	20895
895.526	20994
895.648	20834
895.769	21043
895.891	21062
896.012	21024
896.134	21077
896.255	20982
896.376	20842
896.498	20906
896.619	21074
896.74	20861
896.861	21150
896.982	21287
897.103	21428
897.224	21146
897.345	21199
897.466	21017
897.587	21135
897.708	21237
897.828	21245
897.949	21127
898.07	21001
898.19	20937
898.311	21207
898.431	21062
898.552	21199
898.672	21252
898.792	21150
898.913	21222
899.033	21039
899.153	21017
899.273	20788
899.393	21070
899.513	20967
899.633	20963
899.753	20842
899.873	20944
899.993	20880
900.113	20853
900.232	20861
900.352	20773
900.472	20823
900.591	20659
900.711	20727
900.83	20602
900.95	20746
901.069	20746
901.189	20537
901.308	20381
901.427	20237
901.546	20237
901.665	20339
901.784	20218
901.904	20115
902.023	20088
902.141	19807
902.26	19776
902.379	19849
902.498	19689
902.617	19769
902.735	19856
902.854	19662
902.973	19613
903.091	19343
903.21	19464
903.328	19419
903.446	19301
903.565	19198
903.683	19301
903.801	19050
903.919	19232
904.038	19057
904.156	18970
904.274	18916
904.392	18958
904.51	18833
904.627	18905
904.745	18989
904.863	19004
904.981	18760
905.098	18673
905.216	18540
905.334	18669
905.451	18612
905.569	18661
905.686	18707
905.803	18597
905.921	18464
906.038	18445
906.155	18395
906.272	18334
906.389	18334
906.506	18064
906.623	18182
906.74	18064
906.857	18087
906.974	18076
907.091	18232
907.208	18247
907.324	18171
907.441	18011
907.557	17897
907.674	17790
907.79	17726
907.907	17893
908.023	17836
908.139	17885
908.256	17794
908.372	17668
908.488	17707
908.604	17600
908.72	17490
908.836	17562
908.952	17558
909.068	17455
909.184	17710
909.3	17532
909.415	17634
909.531	17627
909.647	17368
909.762	17166
909.878	17250
909.993	17223
910.108	17208
910.224	17204
910.339	17269
910.454	17227
910.57	17086
910.685	16949
910.8	17292
910.915	17212
911.03	17105
911.145	16991
911.259	16774
911.374	16858
911.489	16778
911.604	16664
911.718	16535
911.833	16584
911.947	16603
912.062	16394
912.176	16565
912.291	16626
912.405	16481
912.519	16771
912.633	16733
912.748	16683
912.862	16584
912.976	16489
913.09	16394
913.204	16402
913.318	16314
913.431	16455
913.545	16443
913.659	16440
913.772	16402
913.886	16124
914	16196
914.113	16257
914.226	16242
914.34	16162
914.453	16101
914.566	16211
914.68	16090
914.793	16055
914.906	15736
915.019	15747
915.132	15747
915.245	15679
915.358	15838
915.47	15869
915.583	15797
915.696	15728
915.809	15873
915.921	15873
916.034	15675
916.146	15694
916.259	15675
916.371	15732
916.483	15717
916.595	15606
916.708	15603
916.82	15523
916.932	15488
917.044	15564
917.156	15545
917.268	15355
917.38	15439
917.491	15420
917.603	15428
917.715	15477
917.826	15454
917.938	15291
918.049	15249
918.161	15260
918.272	15568
918.384	15462
918.495	15275
918.606	15173
918.717	15058
918.828	15264
918.939	15131
919.05	14998
919.161	15108
919.272	14899
919.383	14967
919.494	15252
919.604	15241
919.715	15146
919.826	15013
919.936	15154
920.047	15180
920.157	15112
920.267	15321
920.378	15142
920.488	15017
920.598	15260
920.708	15378
920.818	15203
920.928	15180
921.038	15317
921.148	15291
921.258	15028
921.368	14979
921.477	14804
921.587	14899
921.697	14739
921.806	14773
921.916	14613
922.025	14389
922.134	14377
922.244	14469
922.353	14484
922.462	14263
922.571	14294
922.68	14183
922.789	14077
922.898	14107
923.007	14054
923.116	14103
923.224	14107
923.333	14020
923.442	14001
923.55	13940
923.659	13887
923.767	13959
923.876	13849
923.984	13989
924.092	13906
924.201	13856
924.309	13856
924.417	13871
924.525	13734
924.633	13719
924.741	14556
924.849	13605
924.956	13628
925.064	13468
925.172	13464
925.279	13472
925.387	13540
925.494	13491
925.602	13529
925.709	13472
925.816	13422
925.924	13426
926.031	13544
926.138	13453
926.245	13449
926.352	13304
926.459	13426
926.566	13540
926.673	13346
926.779	13236
926.886	13206
926.993	13061
927.099	13057
927.206	13038
927.312	12958
927.419	12989
927.525	13050
927.631	13069
927.737	12890
927.843	12867
927.95	12738
928.056	12875
928.162	12764
928.267	12916
928.373	13510
928.479	12875
928.585	12612
928.69	12829
928.796	12783
928.901	12760
929.007	12597
929.112	12681
929.218	12551
929.323	12623
929.428	12528
929.533	12578
929.638	12490
929.743	12578
929.848	12559
929.953	12479
930.058	12395
930.163	12175
930.267	12190
930.372	12350
930.477	12155
930.581	12452
930.685	12247
930.79	12083
930.894	12152
930.998	12064
931.103	12175
931.207	11882
931.311	11764
931.415	11661
931.519	11490
931.623	11417
