Data from test_V78500241_1940.txt Node
Date: Fri Mar 25 15:55:14 CST 2022
User: usil
Spectrometer: V785-0024
Trigger mode: 0
Integration Time (sec): 4.000000E-1
Scans to average: 1
Nonlinearity correction enabled: false
Boxcar width: 0
Storing dark spectrum: false
XAxis mode: Wavelengths
Number of Pixels in Spectrum: 1024
>>>>>Begin Spectral Data<<<<<
801.071	28645
801.214	28459
801.356	28295
801.499	28421
801.641	28310
801.783	28287
801.926	28409
802.068	28253
802.211	28196
802.353	28048
802.496	27934
802.638	27964
802.78	27922
802.923	27892
803.065	27975
803.208	27850
803.35	27888
803.492	28150
803.635	28185
803.777	27994
803.919	28173
804.061	28542
804.204	28124
804.346	28249
804.488	28124
804.63	28120
804.773	28128
804.915	28360
805.057	28287
805.199	28238
805.341	28363
805.483	28299
805.626	28211
805.768	28211
805.91	28371
806.052	28440
806.194	28242
806.336	28455
806.478	28310
806.62	28352
806.762	28516
806.904	28630
807.046	28904
807.188	28809
807.33	28736
807.472	28812
807.614	28641
807.756	28820
807.898	28603
808.04	28603
808.182	28748
808.324	28626
808.465	28687
808.607	28927
808.749	28946
808.891	29041
809.033	29204
809.174	29159
809.316	29029
809.458	29006
809.6	28942
809.741	29189
809.883	29166
810.025	29265
810.166	29254
810.308	29505
810.45	29261
810.591	29143
810.733	29064
810.875	28987
811.016	28946
811.158	29033
811.299	29079
811.441	29296
811.582	29212
811.724	29006
811.865	28911
812.007	28858
812.148	29006
812.29	28965
812.431	29212
812.573	29360
812.714	29486
812.855	29695
812.997	29710
813.138	29703
813.279	29634
813.421	29600
813.562	29467
813.703	29471
813.845	29105
813.986	28858
814.127	28866
814.268	28660
814.41	28748
814.551	28778
814.692	28877
814.833	28691
814.974	28531
815.115	28694
815.256	28725
815.397	28603
815.539	28615
815.68	28527
815.821	28489
815.962	28447
816.103	28451
816.244	28417
816.385	28215
816.526	28284
816.666	28101
816.807	28048
816.948	28010
817.089	28169
817.23	28196
817.371	28044
817.512	28048
817.653	27994
817.793	27949
817.934	28070
818.075	28147
818.216	27953
818.356	27922
818.497	28017
818.638	27835
818.778	27717
818.919	27861
819.06	27713
819.2	27876
819.341	28010
819.481	28185
819.622	28055
819.762	28512
819.903	28272
820.043	28280
820.184	28268
820.324	28006
820.465	28185
820.605	28105
820.746	28215
820.886	27979
821.026	28131
821.167	28074
821.307	28166
821.447	27956
821.588	27876
821.728	27880
821.868	27743
822.008	27713
822.149	27511
822.289	27485
822.429	27313
822.569	27237
822.709	27142
822.849	27024
822.99	26967
823.13	27017
823.27	27001
823.41	26925
823.55	26697
823.69	26788
823.83	26864
823.97	26785
824.11	26682
824.25	26670
824.389	26598
824.529	26655
824.669	26773
824.809	26792
824.949	26826
825.089	26887
825.228	26796
825.368	26560
825.508	26590
825.648	26613
825.787	26552
825.927	26537
826.067	26587
826.206	26442
826.346	26480
826.485	26609
826.625	26473
826.765	26636
826.904	26598
827.044	26313
827.183	26218
827.323	26176
827.462	26244
827.601	26221
827.741	26366
827.88	26332
828.02	26138
828.159	26130
828.298	26252
828.437	26267
828.577	26225
828.716	26298
828.855	26202
828.994	25928
829.134	25947
829.273	26035
829.412	25951
829.551	25993
829.69	25928
829.829	25852
829.968	26100
830.107	26077
830.246	25913
830.385	25909
830.524	26005
830.663	25693
830.802	25601
830.941	25624
831.08	25491
831.219	25529
831.357	25586
831.496	25894
831.635	25590
831.774	25495
831.913	25518
832.051	25301
832.19	25343
832.329	25373
832.467	25270
832.606	25004
832.744	25069
832.883	25221
833.022	25160
833.16	25285
833.299	25160
833.437	25369
833.576	25362
833.714	25331
833.852	25343
833.991	25266
834.129	25369
834.267	25339
834.406	25259
834.544	25445
834.682	25362
834.821	25221
834.959	25483
835.097	25255
835.235	25373
835.373	25266
835.511	25403
835.65	25232
835.788	25228
835.926	25019
836.064	24966
836.202	24943
836.34	25145
836.478	25225
836.615	24985
836.753	25152
836.891	25110
837.029	25228
837.167	24966
837.305	25122
837.443	25107
837.58	24943
837.718	25080
837.856	24977
837.993	25034
838.131	24932
838.269	24806
838.406	24840
838.544	24673
838.681	24559
838.819	24532
838.956	24418
839.094	24270
839.231	24490
839.369	24483
839.506	24757
839.643	24646
839.781	24486
839.918	24456
840.055	24308
840.193	24304
840.33	24357
840.467	24308
840.604	24361
840.742	24544
840.879	24125
841.016	24254
841.153	24220
841.29	24353
841.427	24155
841.564	24296
841.701	24395
841.838	24292
841.975	24102
842.112	24220
842.249	24144
842.385	24049
842.522	24266
842.659	24125
842.796	24038
842.933	24060
843.069	24022
843.206	23988
843.343	24136
843.479	24083
843.616	24095
843.752	23904
843.889	23836
844.025	23984
844.162	23741
844.298	23927
844.435	23885
844.571	23726
844.708	23863
844.844	24049
844.98	23988
845.117	23999
845.253	23699
845.389	23676
845.525	23752
845.661	23699
845.798	23554
845.934	23566
846.07	23516
846.206	23627
846.342	23687
846.478	23573
846.614	23341
846.75	23284
846.886	23212
847.022	23440
847.158	23383
847.294	23387
847.429	23288
847.565	23368
847.701	23672
847.837	22972
847.972	22877
848.108	23140
848.244	23105
848.379	22881
848.515	22809
848.65	22892
848.786	22828
848.921	22824
849.057	23022
849.192	22938
849.328	22949
849.463	22930
849.598	22755
849.734	22828
849.869	22797
850.004	22725
850.14	22622
850.275	22607
850.41	22565
850.545	22565
850.68	22599
850.815	22786
850.95	22542
851.085	22934
851.22	22691
851.355	22592
851.49	22698
851.625	22603
851.76	22603
851.895	22569
852.03	22603
852.165	22710
852.299	22626
852.434	22748
852.569	22649
852.703	22611
852.838	22733
852.973	22778
853.107	22698
853.242	22698
853.376	22489
853.511	22394
853.645	22402
853.78	22455
853.914	22523
854.048	22470
854.183	22489
854.317	22561
854.451	22675
854.585	22329
854.72	22436
854.854	22500
854.988	22344
855.122	22440
855.256	22169
855.39	22402
855.524	22447
855.658	22546
855.792	22443
855.926	22455
856.06	22402
856.194	22596
856.327	22421
856.461	22337
856.595	22405
856.729	22394
856.862	22641
856.996	22497
857.13	22557
857.263	22618
857.397	22561
857.53	22386
857.664	22569
857.797	22516
857.931	22607
858.064	22466
858.197	22588
858.331	22459
858.464	22462
858.597	22474
858.731	22409
858.864	22421
858.997	22363
859.13	22527
859.263	22527
859.396	22462
859.529	22474
859.662	22512
859.795	22390
859.928	22481
860.061	22557
860.194	22691
860.327	22489
860.46	22485
860.592	22493
860.725	22557
860.858	22698
860.99	22451
861.123	22394
861.256	22405
861.388	22382
861.521	23220
861.653	22261
861.786	22257
861.918	22291
862.05	22318
862.183	22466
862.315	22356
862.447	22500
862.58	22402
862.712	22158
862.844	22131
862.976	22306
863.108	22280
863.24	22531
863.372	22070
863.504	22192
863.636	22181
863.768	22226
863.9	22207
864.032	22116
864.164	22048
864.296	22287
864.428	22188
864.559	22200
864.691	22249
864.823	22272
864.954	22230
865.086	22169
865.217	22074
865.349	21975
865.48	21991
865.612	22044
865.743	22253
865.875	22101
866.006	21915
866.137	22021
866.269	22200
866.4	21895
866.531	22036
866.662	21945
866.793	21918
866.924	21926
867.055	21949
867.186	21911
867.317	22044
867.448	21926
867.579	22029
867.71	21854
867.841	21857
867.972	21949
868.103	21934
868.233	21991
868.364	21998
868.495	21930
868.625	22112
868.756	22382
868.886	22169
869.017	22147
869.147	22329
869.278	22291
869.408	22265
869.539	22162
869.669	22295
869.799	22169
869.929	22367
870.06	22360
870.19	22577
870.32	22428
870.45	22607
870.58	22584
870.71	22679
870.84	22637
870.97	22626
871.1	22653
871.23	22793
871.36	22873
871.489	22710
871.619	22706
871.749	22881
871.879	22812
872.008	22965
872.138	22892
872.267	22858
872.397	22622
872.526	22634
872.656	22710
872.785	22634
872.915	22885
873.044	23025
873.173	22637
873.303	22873
873.432	22885
873.561	22949
873.69	22881
873.819	22923
873.948	22911
874.077	22824
874.206	22634
874.335	22850
874.464	22816
874.593	23071
874.722	23064
874.851	23041
874.979	22987
875.108	23025
875.237	22930
875.365	22911
875.494	23079
875.623	22984
875.751	22927
875.88	23029
876.008	23231
876.136	23444
876.265	23353
876.393	23425
876.521	23474
876.65	23440
876.778	23284
876.906	23376
877.034	23414
877.162	23452
877.29	23368
877.418	23417
877.546	23353
877.674	23364
877.802	23364
877.93	23223
878.058	23307
878.185	23277
878.313	23360
878.441	23311
878.568	23105
878.696	23353
878.824	23372
878.951	23543
879.079	23562
879.206	23665
879.333	23539
879.461	23261
879.588	23486
879.715	23585
879.842	23775
879.97	23425
880.097	23223
880.224	23086
880.351	23223
880.478	23208
880.605	23071
880.732	23105
880.859	23330
880.986	23208
881.112	23337
881.239	23018
881.366	22961
881.493	22713
881.619	22793
881.746	22858
881.872	22809
881.999	22778
882.125	22672
882.252	22759
882.378	22797
882.505	22793
882.631	22691
882.757	22538
882.883	22546
883.01	22485
883.136	22436
883.262	22352
883.388	22268
883.514	22451
883.64	22371
883.766	22253
883.892	22154
884.018	22192
884.143	22261
884.269	22466
884.395	22150
884.52	22128
884.646	22147
884.772	21979
884.897	21968
885.023	22116
885.148	22181
885.274	22135
885.399	22211
885.524	22105
885.65	22097
885.775	22006
885.9	22036
886.025	22154
886.15	22226
886.275	22101
886.4	21994
886.525	21987
886.65	21975
886.775	21998
886.9	22082
887.025	22356
887.149	22101
887.274	21778
887.399	21804
887.523	21800
887.648	21743
887.773	21686
887.897	21899
888.021	21854
888.146	21869
888.27	21960
888.395	21956
888.519	21850
888.643	21892
888.767	21949
888.891	21762
889.015	21701
889.139	21633
889.263	21519
889.387	21759
889.511	21762
889.635	21648
889.759	21618
889.883	21610
890.006	21618
890.13	21751
890.254	21538
890.377	21561
890.501	21325
890.624	21344
890.748	21374
890.871	21272
890.995	21085
891.118	21085
891.241	21199
891.364	21123
891.488	21310
891.611	21142
891.734	21283
891.857	21252
891.98	21188
892.103	21226
892.226	21173
892.349	20998
892.471	20906
892.594	21119
892.717	21089
892.839	21096
892.962	21009
893.085	21081
893.207	21009
893.33	20937
893.452	21005
893.575	21032
893.697	21039
893.819	21180
893.941	21302
894.064	21275
894.186	21013
894.308	20960
894.43	21085
894.552	21199
894.674	21218
894.796	20861
894.918	21127
895.04	20963
895.161	21085
895.283	21058
895.405	21055
895.526	20971
895.648	20910
895.769	21074
895.891	21135
896.012	21116
896.134	21096
896.255	21017
896.376	20918
896.498	21089
896.619	21119
896.74	20952
896.861	21192
896.982	21298
897.103	21500
897.224	21214
897.345	21123
897.466	21199
897.587	21169
897.708	21264
897.828	21283
897.949	21165
898.07	21009
898.19	21211
898.311	21370
898.431	21165
898.552	21256
898.672	21294
898.792	21302
898.913	21176
899.033	21218
899.153	21089
899.273	20990
899.393	20872
899.513	21013
899.633	20990
899.753	20982
899.873	20872
899.993	20967
900.113	20887
900.232	20952
900.352	20895
900.472	20765
900.591	20701
900.711	20800
900.83	20648
900.95	20746
901.069	20777
901.189	20670
901.308	20412
901.427	20278
901.546	20332
901.665	20290
901.784	20336
901.904	20176
902.023	20084
902.141	19849
902.26	19772
902.379	19849
902.498	19871
902.617	19776
902.735	19788
902.854	19769
902.973	19746
903.091	19521
903.21	19487
903.328	19358
903.446	19343
903.565	19270
903.683	19236
903.801	19156
903.919	19225
904.038	19187
904.156	18962
904.274	19038
904.392	19091
904.51	18958
904.627	18958
904.745	18993
904.863	19084
904.981	18787
905.098	18696
905.216	18734
905.334	18692
905.451	18639
905.569	18677
905.686	18730
905.803	18635
905.921	18528
906.038	18559
906.155	18498
906.272	18426
906.389	18471
906.506	18258
906.623	18190
906.74	18197
906.857	18266
906.974	18095
907.091	18266
907.208	18323
907.324	18239
907.441	18064
907.557	17950
907.674	17878
907.79	17817
907.907	17935
908.023	17946
908.139	17939
908.256	17821
908.372	17870
908.488	17779
908.604	17687
908.72	17638
908.836	17699
908.952	17516
909.068	17585
909.184	17779
909.3	17642
909.415	17653
909.531	17577
909.647	17345
909.762	17280
909.878	17372
909.993	17356
910.108	17254
910.224	17345
910.339	17326
910.454	17117
910.57	17151
910.685	17056
910.8	17368
910.915	17364
911.03	17132
911.145	16946
911.259	16908
911.374	16873
911.489	16812
911.604	16774
911.718	16664
911.833	16710
911.947	16584
912.062	16440
912.176	16656
912.291	16748
912.405	16599
912.519	16828
912.633	16740
912.748	16767
912.862	16558
912.976	16462
913.09	16310
913.204	16489
913.318	16398
913.431	16489
913.545	16485
913.659	16474
913.772	16519
913.886	16268
914	16192
914.113	16306
914.226	16257
914.34	16344
914.453	16154
914.566	16287
914.68	16162
914.793	16032
914.906	15892
915.019	15812
915.132	15869
915.245	15800
915.358	15800
915.47	15835
915.583	15846
915.696	15823
915.809	15918
915.921	15880
916.034	15728
916.146	15808
916.259	15675
916.371	15823
916.483	15789
916.595	15625
916.708	15580
916.82	15656
916.932	15572
917.044	15614
917.156	15572
917.268	15473
917.38	15412
917.491	15439
917.603	15458
917.715	15469
917.826	15549
917.938	15336
918.049	15291
918.161	15447
918.272	15428
918.384	15500
918.495	15397
918.606	15192
918.717	15173
918.828	15325
918.939	15192
919.05	15218
919.161	15169
919.272	14929
919.383	15043
919.494	15260
919.604	15348
919.715	15195
919.826	15070
919.936	15077
920.047	15340
920.157	15203
920.267	15382
920.378	15169
920.488	15123
920.598	15264
920.708	15443
920.818	15283
920.928	15233
921.038	15416
921.148	15233
921.258	15131
921.368	14952
921.477	14948
921.587	14883
921.697	14746
921.806	14845
921.916	14773
922.025	14579
922.134	14514
922.244	14518
922.353	14495
922.462	14442
922.571	14336
922.68	14164
922.789	14172
922.898	14145
923.007	14130
923.116	14183
923.224	14161
923.333	14138
923.442	14062
923.55	13917
923.659	14065
923.767	14039
923.876	13944
923.984	13967
924.092	13807
924.201	13864
924.309	13871
924.417	13936
924.525	13727
924.633	13674
924.741	14739
924.849	13628
924.956	13769
925.064	13548
925.172	13487
925.279	13628
925.387	13537
925.494	13476
925.602	13693
925.709	13544
925.816	13381
925.924	13388
926.031	13491
926.138	13487
926.245	13464
926.352	13312
926.459	13514
926.566	13529
926.673	13354
926.779	13293
926.886	13331
926.993	13133
927.099	13076
927.206	13008
927.312	13004
927.419	13141
927.525	13038
927.631	13057
927.737	12897
927.843	12932
927.95	12894
928.056	12863
928.162	12962
928.267	12951
928.373	13525
928.479	12966
928.585	12726
928.69	12814
928.796	12844
928.901	12707
929.007	12513
929.112	12662
929.218	12582
929.323	12627
929.428	12608
929.533	12658
929.638	12506
929.743	12574
929.848	12464
929.953	12475
930.058	12407
930.163	12315
930.267	12357
930.372	12369
930.477	12311
930.581	12486
930.685	12171
930.79	12144
930.894	12155
930.998	12167
931.103	12235
931.207	11859
931.311	11756
931.415	11710
931.519	11551
931.623	11482
