Data from test_V78500241_353.txt Node
Date: Fri Mar 25 15:44:14 CST 2022
User: usil
Spectrometer: V785-0024
Trigger mode: 0
Integration Time (sec): 4.000000E-1
Scans to average: 1
Nonlinearity correction enabled: false
Boxcar width: 0
Storing dark spectrum: false
XAxis mode: Wavelengths
Number of Pixels in Spectrum: 1024
>>>>>Begin Spectral Data<<<<<
801.071	29862
801.214	29935
801.356	29554
801.499	29391
801.641	29429
801.783	29455
801.926	29360
802.068	29421
802.211	29254
802.353	29181
802.496	29048
802.638	29048
802.78	29067
802.923	29014
803.065	28976
803.208	28934
803.35	29022
803.492	29124
803.635	29223
803.777	29166
803.919	29353
804.061	29547
804.204	29280
804.346	29261
804.488	29254
804.63	29269
804.773	29181
804.915	29292
805.057	29383
805.199	29280
805.341	29448
805.483	29318
805.626	29364
805.768	29364
805.91	29395
806.052	29467
806.194	29284
806.336	29672
806.478	29490
806.62	29315
806.762	29585
806.904	29939
807.046	29939
807.188	29817
807.33	29794
807.472	29961
807.614	29802
807.756	29817
807.898	29646
808.04	29493
808.182	29596
808.324	29729
808.465	29684
808.607	29935
808.749	29984
808.891	30083
809.033	30323
809.174	30129
809.316	30041
809.458	30129
809.6	29882
809.741	30091
809.883	30144
810.025	30292
810.166	30384
810.308	30395
810.45	30182
810.591	30194
810.733	30148
810.875	30182
811.016	29916
811.158	29923
811.299	30114
811.441	30323
811.582	30174
811.724	30068
811.865	29999
812.007	30011
812.148	30045
812.29	30064
812.431	30323
812.573	30285
812.714	30445
812.855	30665
812.997	30593
813.138	30871
813.279	30623
813.421	30608
813.562	30585
813.703	30388
813.845	30410
813.986	29958
814.127	29821
814.268	29726
814.41	29836
814.551	29539
814.692	29897
814.833	29627
814.974	29581
815.115	29714
815.256	29668
815.397	29566
815.539	29619
815.68	29520
815.821	29398
815.962	29535
816.103	29539
816.244	29387
816.385	29242
816.526	29326
816.666	29064
816.807	28972
816.948	29174
817.089	29064
817.23	29162
817.371	29014
817.512	29041
817.653	28839
817.793	28904
817.934	28961
818.075	28938
818.216	29037
818.356	28900
818.497	28896
818.638	28634
818.778	28580
818.919	28713
819.06	28717
819.2	28835
819.341	28831
819.481	28885
819.622	29105
819.762	29208
819.903	29204
820.043	29185
820.184	29048
820.324	29060
820.465	29136
820.605	29010
820.746	29033
820.886	28869
821.026	29121
821.167	28915
821.307	28968
821.447	28831
821.588	28812
821.728	28687
821.868	28447
822.008	28424
822.149	28348
822.289	28291
822.429	28067
822.569	28090
822.709	28097
822.849	27778
822.99	27857
823.13	27873
823.27	27819
823.41	27682
823.55	27542
823.69	27660
823.83	27591
823.97	27492
824.11	27549
824.25	27355
824.389	27526
824.529	27606
824.669	27431
824.809	27656
824.949	27450
825.089	27549
825.228	27572
825.368	27313
825.508	27321
825.648	27408
825.787	27336
825.927	27454
826.067	27291
826.206	27424
826.346	27249
826.485	27408
826.625	27264
826.765	27530
826.904	27378
827.044	27184
827.183	27017
827.323	27005
827.462	27043
827.601	27119
827.741	26925
827.88	27051
828.02	26750
828.159	27028
828.298	27020
828.437	27093
828.577	27051
828.716	27226
828.855	26937
828.994	26701
829.134	26670
829.273	26785
829.412	26648
829.551	26705
829.69	26621
829.829	26712
829.968	26804
830.107	26697
830.246	26609
830.385	26583
830.524	26568
830.663	26461
830.802	26427
830.941	26309
831.08	26275
831.219	26412
831.357	26248
831.496	26450
831.635	26240
831.774	26115
831.913	26107
832.051	25955
832.19	25982
832.329	26172
832.467	25982
832.606	25898
832.744	26008
832.883	26035
833.022	25811
833.16	25928
833.299	26016
833.437	25966
833.576	26012
833.714	25921
833.852	26012
833.991	25944
834.129	26008
834.267	26073
834.406	25864
834.544	25928
834.682	25898
834.821	25875
834.959	26092
835.097	25849
835.235	25932
835.373	25879
835.511	25818
835.65	25723
835.788	25666
835.926	25548
836.064	25510
836.202	25624
836.34	25708
836.478	25765
836.615	25651
836.753	25681
836.891	25830
837.029	25772
837.167	25643
837.305	25529
837.443	25571
837.58	25518
837.718	25620
837.856	25651
837.993	25518
838.131	25514
838.269	25388
838.406	25483
838.544	25403
838.681	25114
838.819	25145
838.956	25133
839.094	24992
839.231	25038
839.369	25156
839.506	25320
839.643	25320
839.781	24848
839.918	24901
840.055	24890
840.193	24837
840.33	24852
840.467	24878
840.604	24924
840.742	25084
840.879	24658
841.016	24776
841.153	24783
841.29	24894
841.427	24916
841.564	24947
841.701	24768
841.838	24795
841.975	24798
842.112	24757
842.249	24540
842.385	24745
842.522	24715
842.659	24551
842.796	24631
842.933	24513
843.069	24532
843.206	24464
843.343	24715
843.479	24498
843.616	24521
843.752	24239
843.889	24342
844.025	24388
844.162	24292
844.298	24319
844.435	24308
844.571	24251
844.708	24388
844.844	24502
844.98	24380
845.117	24433
845.253	24266
845.389	24254
845.525	24155
845.661	24174
845.798	24007
845.934	24057
846.07	24076
846.206	24091
846.342	24121
846.478	23946
846.614	23920
846.75	23619
846.886	23748
847.022	23809
847.158	23691
847.294	23657
847.429	23722
847.565	23684
847.701	23977
847.837	23372
847.972	23368
848.108	23516
848.244	23539
848.379	23307
848.515	23273
848.65	23250
848.786	23277
848.921	23273
849.057	23368
849.192	23398
849.328	23269
849.463	23318
849.598	23239
849.734	23052
849.869	23200
850.004	22965
850.14	23159
850.275	22995
850.41	23003
850.545	22923
850.68	22995
850.815	23246
850.95	22957
851.085	23212
851.22	23280
851.355	23060
851.49	22987
851.625	23052
851.76	23014
851.895	23014
852.03	22824
852.165	23056
852.299	23033
852.434	23067
852.569	22995
852.703	23109
852.838	23022
852.973	23044
853.107	23094
853.242	23010
853.376	22908
853.511	22752
853.645	22702
853.78	22839
853.914	22759
854.048	22904
854.183	22767
854.317	22850
854.451	23010
854.585	22854
854.72	22809
854.854	22908
854.988	22790
855.122	22885
855.256	22675
855.39	22850
855.524	22919
855.658	22839
855.792	22793
855.926	22915
856.06	22755
856.194	22923
856.327	22736
856.461	22763
856.595	22805
856.729	22694
856.862	22911
856.996	22869
857.13	22824
857.263	22965
857.397	22721
857.53	22763
857.664	22946
857.797	22908
857.931	22847
858.064	22759
858.197	22930
858.331	22828
858.464	22774
858.597	22626
858.731	22683
858.864	22774
858.997	22721
859.13	22900
859.263	22854
859.396	22824
859.529	22668
859.662	22736
859.795	22645
859.928	22786
860.061	22835
860.194	22953
860.327	22862
860.46	22767
860.592	22957
860.725	22976
860.858	22828
860.99	22713
861.123	22736
861.256	22596
861.388	22675
861.521	23410
861.653	22675
861.786	22588
861.918	22672
862.05	22675
862.183	22653
862.315	22713
862.447	22801
862.58	22812
862.712	22519
862.844	22432
862.976	22653
863.108	22504
863.24	22934
863.372	22356
863.504	22371
863.636	22424
863.768	22599
863.9	22428
864.032	22295
864.164	22310
864.296	22462
864.428	22459
864.559	22557
864.691	22554
864.823	22493
864.954	22348
865.086	22333
865.217	22310
865.349	22363
865.48	22272
865.612	22348
865.743	22550
865.875	22375
866.006	22344
866.137	22219
866.269	22428
866.4	22249
866.531	22337
866.662	22375
866.793	22299
866.924	22173
867.055	22284
867.186	22268
867.317	22265
867.448	22223
867.579	22230
867.71	22120
867.841	22166
867.972	22234
868.103	22181
868.233	22234
868.364	22219
868.495	22322
868.625	22432
868.756	22531
868.886	22478
869.017	22516
869.147	22649
869.278	22611
869.408	22402
869.539	22398
869.669	22580
869.799	22557
869.929	22478
870.06	22504
870.19	22713
870.32	22786
870.45	22889
870.58	22892
870.71	23124
870.84	22991
870.97	22873
871.1	22797
871.23	23098
871.36	23102
871.489	22885
871.619	23029
871.749	23056
871.879	23128
872.008	23083
872.138	23128
872.267	23109
872.397	23067
872.526	22835
872.656	22946
872.785	22953
872.915	23128
873.044	23178
873.173	22991
873.303	22984
873.432	23166
873.561	23212
873.69	23105
873.819	23041
873.948	23216
874.077	23124
874.206	23075
874.335	23155
874.464	23220
874.593	23265
874.722	23208
874.851	23482
874.979	23296
875.108	23296
875.237	23273
875.365	23227
875.494	23337
875.623	23280
875.751	23356
875.88	23345
876.008	23452
876.136	23452
876.265	23684
876.393	23649
876.521	23798
876.65	23805
876.778	23764
876.906	23627
877.034	23577
877.162	23577
877.29	23547
877.418	23604
877.546	23611
877.674	23684
877.802	23570
877.93	23649
878.058	23608
878.185	23512
878.313	23634
878.441	23573
878.568	23387
878.696	23524
878.824	23718
878.951	23775
879.079	23847
879.206	23904
879.333	23901
879.461	23676
879.588	23691
879.715	23790
879.842	23855
879.97	23608
880.097	23406
880.224	23474
880.351	23459
880.478	23512
880.605	23265
880.732	23459
880.859	23634
880.986	23493
881.112	23410
881.239	23455
881.366	23193
881.493	23174
881.619	23064
881.746	22980
881.872	23060
881.999	22965
882.125	22938
882.252	23132
882.378	23052
882.505	23185
882.631	22965
882.757	22774
882.883	22675
883.01	22637
883.136	22725
883.262	22497
883.388	22675
883.514	22664
883.64	22679
883.766	22599
883.892	22443
884.018	22557
884.143	22637
884.269	22698
884.395	22367
884.52	22398
884.646	22390
884.772	22211
884.897	22215
885.023	22402
885.148	22398
885.274	22455
885.399	22462
885.524	22337
885.65	22493
885.775	22443
885.9	22299
886.025	22379
886.15	22348
886.275	22371
886.4	22135
886.525	22428
886.65	22215
886.775	22204
886.9	22413
887.025	22470
887.149	22200
887.274	22131
887.399	22067
887.523	22124
887.648	22063
887.773	22044
887.897	22093
888.021	22120
888.146	22070
888.27	22150
888.395	22177
888.519	22040
888.643	21987
888.767	22063
888.891	21941
889.015	21926
889.139	21903
889.263	21827
889.387	21941
889.511	22051
889.635	21949
889.759	21903
889.883	21873
890.006	21823
890.13	21994
890.254	21717
890.377	21663
890.501	21580
890.624	21549
890.748	21717
890.871	21603
890.995	21332
891.118	21450
891.241	21386
891.364	21431
891.488	21492
891.611	21549
891.734	21374
891.857	21511
891.98	21393
892.103	21420
892.226	21336
892.349	21386
892.471	21131
892.594	21367
892.717	21291
892.839	21222
892.962	21386
893.085	21317
893.207	21146
893.33	21169
893.452	21233
893.575	21294
893.697	21252
893.819	21447
893.941	21576
894.064	21351
894.186	21252
894.308	21310
894.43	21462
894.552	21374
894.674	21203
894.796	21047
894.918	21161
895.04	21154
895.161	21264
895.283	21272
895.405	21222
895.526	21287
895.648	21264
895.769	21283
895.891	21241
896.012	21256
896.134	21382
896.255	21264
896.376	21359
896.498	21256
896.619	21226
896.74	21230
896.861	21241
896.982	21542
897.103	21751
897.224	21553
897.345	21443
897.466	21504
897.587	21473
897.708	21553
897.828	21587
897.949	21340
898.07	21428
898.19	21378
898.311	21618
898.431	21477
898.552	21458
898.672	21549
898.792	21557
898.913	21496
899.033	21291
899.153	21252
899.273	21131
899.393	21203
899.513	21116
899.633	21138
899.753	21135
899.873	21062
899.993	21249
900.113	21100
900.232	21184
900.352	21081
900.472	20921
900.591	20956
900.711	21081
900.83	20929
900.95	20925
901.069	20994
901.189	20834
901.308	20609
901.427	20571
901.546	20488
901.665	20495
901.784	20518
901.904	20263
902.023	20366
902.141	20096
902.26	20058
902.379	20046
902.498	20005
902.617	19852
902.735	19955
902.854	19982
902.973	19917
903.091	19708
903.21	19643
903.328	19590
903.446	19544
903.565	19525
903.683	19590
903.801	19384
903.919	19362
904.038	19449
904.156	19183
904.274	19156
904.392	19148
904.51	19164
904.627	19034
904.745	19240
904.863	19217
904.981	19019
905.098	18844
905.216	18886
905.334	18882
905.451	18878
905.569	18703
905.686	18825
905.803	18852
905.921	18661
906.038	18688
906.155	18726
906.272	18551
906.389	18570
906.506	18289
906.623	18525
906.74	18486
906.857	18186
906.974	18209
907.091	18410
907.208	18350
907.324	18414
907.441	18239
907.557	18171
907.674	18038
907.79	17939
907.907	17996
908.023	18003
908.139	18015
908.256	17977
908.372	17954
908.488	17961
908.604	17760
908.72	17817
908.836	17786
908.952	17638
909.068	17695
909.184	17870
909.3	17745
909.415	17836
909.531	17794
909.647	17539
909.762	17440
909.878	17364
909.993	17421
910.108	17349
910.224	17292
910.339	17490
910.454	17364
910.57	17288
910.685	17102
910.8	17478
910.915	17459
911.03	17220
911.145	17022
911.259	16961
911.374	17052
911.489	16877
911.604	16824
911.718	16744
911.833	16774
911.947	16725
912.062	16519
912.176	16831
912.291	16675
912.405	16740
912.519	16843
912.633	16900
912.748	16759
912.862	16641
912.976	16523
913.09	16363
913.204	16462
913.318	16466
913.431	16558
913.545	16493
913.659	16641
913.772	16489
913.886	16284
914	16375
914.113	16379
914.226	16455
914.34	16428
914.453	16246
914.566	16367
914.68	16242
914.793	16105
914.906	16086
915.019	15968
915.132	16032
915.245	15819
915.358	15930
915.47	15994
915.583	15907
915.696	15922
915.809	16090
915.921	16006
916.034	15819
916.146	15808
916.259	15793
916.371	15755
916.483	15876
916.595	15781
916.708	15625
916.82	15694
916.932	15644
917.044	15587
917.156	15580
917.268	15557
917.38	15549
917.491	15488
917.603	15542
917.715	15603
917.826	15629
917.938	15492
918.049	15382
918.161	15504
918.272	15545
918.384	15496
918.495	15492
918.606	15336
918.717	15241
918.828	15317
918.939	15184
919.05	15218
919.161	15192
919.272	14998
919.383	15020
919.494	15329
919.604	15424
919.715	15207
919.826	15089
919.936	15233
920.047	15241
920.157	15237
920.267	15332
920.378	15211
920.488	15154
920.598	15416
920.708	15420
920.818	15321
920.928	15389
921.038	15439
921.148	15378
921.258	15142
921.368	15017
921.477	14861
921.587	14998
921.697	14731
921.806	14891
921.916	14785
922.025	14583
922.134	14541
922.244	14461
922.353	14640
922.462	14324
922.571	14473
922.68	14256
922.789	14202
922.898	14187
923.007	14164
923.116	14244
923.224	14218
923.333	14145
923.442	13989
923.55	13932
923.659	13989
923.767	14024
923.876	13947
923.984	14077
924.092	13864
924.201	13974
924.309	13852
924.417	13811
924.525	13898
924.633	13818
924.741	14537
924.849	13639
924.956	13753
925.064	13586
925.172	13529
925.279	13499
925.387	13525
925.494	13567
925.602	13693
925.709	13632
925.816	13457
925.924	13499
926.031	13639
926.138	13460
926.245	13495
926.352	13407
926.459	13411
926.566	13548
926.673	13407
926.779	13274
926.886	13240
926.993	13145
927.099	13095
927.206	13061
927.312	13008
927.419	13103
927.525	13008
927.631	13076
927.737	12928
927.843	12924
927.95	12859
928.056	12943
928.162	12894
928.267	12947
928.373	13464
928.479	12993
928.585	12787
928.69	12806
928.796	12814
928.901	12711
929.007	12597
929.112	12696
929.218	12749
929.323	12658
929.428	12642
929.533	12821
929.638	12456
929.743	12559
929.848	12601
929.953	12566
930.058	12441
930.163	12372
930.267	12277
930.372	12380
930.477	12330
930.581	12479
930.685	12258
930.79	12136
930.894	12205
930.998	12175
931.103	12254
931.207	11882
931.311	11771
931.415	11733
931.519	11474
931.623	11474
