Data from test_V78500241_138.txt Node
Date: Fri Mar 25 15:42:45 CST 2022
User: usil
Spectrometer: V785-0024
Trigger mode: 0
Integration Time (sec): 4.000000E-1
Scans to average: 1
Nonlinearity correction enabled: false
Boxcar width: 0
Storing dark spectrum: false
XAxis mode: Wavelengths
Number of Pixels in Spectrum: 1024
>>>>>Begin Spectral Data<<<<<
801.071	29726
801.214	29516
801.356	29471
801.499	29223
801.641	29052
801.783	29090
801.926	29162
802.068	29075
802.211	29140
802.353	29018
802.496	28805
802.638	28771
802.78	28805
802.923	28763
803.065	28637
803.208	28710
803.35	28653
803.492	28698
803.635	28900
803.777	28805
803.919	28759
804.061	29094
804.204	28961
804.346	28630
804.488	28828
804.63	28755
804.773	28630
804.915	28858
805.057	28839
805.199	28892
805.341	28972
805.483	29064
805.626	28968
805.768	28934
805.91	28953
806.052	28892
806.194	28908
806.336	29083
806.478	28946
806.62	28911
806.762	29113
806.904	29109
807.046	29440
807.188	29269
807.33	29356
807.472	29318
807.614	29117
807.756	29132
807.898	29212
808.04	29113
808.182	29003
808.324	29170
808.465	29143
808.607	29372
808.749	29315
808.891	29402
809.033	29729
809.174	29505
809.316	29425
809.458	29455
809.6	29467
809.741	29455
809.883	29551
810.025	29794
810.166	29752
810.308	29779
810.45	29653
810.591	29497
810.733	29528
810.875	29474
811.016	29299
811.158	29307
811.299	29406
811.441	29573
811.582	29528
811.724	29459
811.865	29258
812.007	29528
812.148	29402
812.29	29535
812.431	29471
812.573	29733
812.714	29733
812.855	29859
812.997	29889
813.138	30057
813.279	30038
813.421	29817
813.562	29805
813.703	29608
813.845	29490
813.986	29288
814.127	29060
814.268	29105
814.41	29048
814.551	28873
814.692	29105
814.833	28858
814.974	28946
815.115	29014
815.256	28759
815.397	28812
815.539	28778
815.68	28729
815.821	28542
815.962	28778
816.103	28634
816.244	28584
816.385	28512
816.526	28500
816.666	28226
816.807	28109
816.948	28188
817.089	28318
817.23	28101
817.371	28116
817.512	28154
817.653	28177
817.793	28029
817.934	28147
818.075	28010
818.216	28017
818.356	28139
818.497	27941
818.638	27751
818.778	27793
818.919	27812
819.06	27903
819.2	27816
819.341	27918
819.481	28074
819.622	28257
819.762	28474
819.903	28253
820.043	28223
820.184	28029
820.324	28219
820.465	28185
820.605	28128
820.746	28010
820.886	28010
821.026	28010
821.167	28093
821.307	28044
821.447	28051
821.588	27903
821.728	27690
821.868	27641
822.008	27485
822.149	27401
822.289	27317
822.429	27260
822.569	27123
822.709	27150
822.849	26785
822.99	26826
823.13	26929
823.27	26724
823.41	26712
823.55	26514
823.69	26670
823.83	26686
823.97	26613
824.11	26374
824.25	26450
824.389	26530
824.529	26453
824.669	26511
824.809	26621
824.949	26632
825.089	26511
825.228	26571
825.368	26358
825.508	26408
825.648	26202
825.787	26301
825.927	26332
826.067	26301
826.206	26259
826.346	26271
826.485	26305
826.625	26396
826.765	26438
826.904	26355
827.044	26107
827.183	26050
827.323	25852
827.462	25947
827.601	25978
827.741	25909
827.88	26088
828.02	25864
828.159	25856
828.298	25947
828.437	25837
828.577	25822
828.716	25887
828.855	25864
828.994	25616
829.134	25525
829.273	25597
829.412	25548
829.551	25419
829.69	25609
829.829	25559
829.968	25521
830.107	25700
830.246	25533
830.385	25544
830.524	25464
830.663	25438
830.802	25232
830.941	25145
831.08	25145
831.219	25331
831.357	25095
831.496	25327
831.635	25080
831.774	24985
831.913	25034
832.051	24939
832.19	24875
832.329	24924
832.467	24913
832.606	24700
832.744	24757
832.883	24757
833.022	24738
833.16	24688
833.299	24681
833.437	24642
833.576	24856
833.714	24768
833.852	24802
833.991	24852
834.129	24966
834.267	24741
834.406	24776
834.544	24798
834.682	24585
834.821	24738
834.959	24920
835.097	24547
835.235	24696
835.373	24745
835.511	24715
835.65	24631
835.788	24563
835.926	24327
836.064	24330
836.202	24399
836.34	24479
836.478	24490
836.615	24460
836.753	24452
836.891	24692
837.029	24540
837.167	24528
837.305	24475
837.443	24460
837.58	24327
837.718	24342
837.856	24486
837.993	24342
838.131	24338
838.269	24296
838.406	24140
838.544	24117
838.681	23992
838.819	23977
838.956	23718
839.094	23802
839.231	23714
839.369	23870
839.506	24083
839.643	24121
839.781	23752
839.918	23676
840.055	23874
840.193	23611
840.33	23608
840.467	23623
840.604	23642
840.742	23950
840.879	23558
841.016	23604
841.153	23585
841.29	23604
841.427	23596
841.564	23707
841.701	23524
841.838	23581
841.975	23414
842.112	23634
842.249	23387
842.385	23307
842.522	23493
842.659	23395
842.796	23235
842.933	23311
843.069	23189
843.206	23334
843.343	23410
843.479	23353
843.616	23334
843.752	23014
843.889	23071
844.025	23170
844.162	22957
844.298	23109
844.435	23166
844.571	22900
844.708	23113
844.844	23212
844.98	23174
845.117	23098
845.253	23037
845.389	22987
845.525	22839
845.661	22915
845.798	22626
845.934	22774
846.07	22767
846.206	22778
846.342	22881
846.478	22877
846.614	22504
846.75	22394
846.886	22367
847.022	22519
847.158	22542
847.294	22432
847.429	22519
847.565	22375
847.701	22615
847.837	22249
847.972	22093
848.108	22265
848.244	22147
848.379	22188
848.515	22070
848.65	22078
848.786	21960
848.921	21994
849.057	22181
849.192	22162
849.328	22063
849.463	21918
849.598	21846
849.734	21895
849.869	21907
850.004	21751
850.14	21717
850.275	21781
850.41	21747
850.545	21724
850.68	21724
850.815	21800
850.95	21785
851.085	21861
851.22	21766
851.355	21838
851.49	21762
851.625	21808
851.76	21793
851.895	21762
852.03	21648
852.165	21724
852.299	21797
852.434	21778
852.569	21671
852.703	21679
852.838	21610
852.973	21838
853.107	21819
853.242	21648
853.376	21466
853.511	21408
853.645	21564
853.78	21667
853.914	21519
854.048	21530
854.183	21515
854.317	21580
854.451	21732
854.585	21382
854.72	21515
854.854	21606
854.988	21408
855.122	21496
855.256	21348
855.39	21496
855.524	21481
855.658	21488
855.792	21477
855.926	21542
856.06	21526
856.194	21530
856.327	21454
856.461	21545
856.595	21332
856.729	21431
856.862	21557
856.996	21416
857.13	21587
857.263	21656
857.397	21557
857.53	21355
857.664	21466
857.797	21515
857.931	21625
858.064	21576
858.197	21511
858.331	21420
858.464	21454
858.597	21283
858.731	21603
858.864	21519
858.997	21317
859.13	21447
859.263	21485
859.396	21595
859.529	21405
859.662	21428
859.795	21313
859.928	21420
860.061	21485
860.194	21473
860.327	21378
860.46	21530
860.592	21485
860.725	21599
860.858	21583
860.99	21405
861.123	21359
861.256	21424
861.388	21420
861.521	22078
861.653	21268
861.786	21351
861.918	21310
862.05	21386
862.183	21378
862.315	21420
862.447	21462
862.58	21424
862.712	21317
862.844	21184
862.976	21272
863.108	21211
863.24	21610
863.372	21165
863.504	21131
863.636	21070
863.768	21203
863.9	21100
864.032	21047
864.164	21058
864.296	21150
864.428	21199
864.559	21093
864.691	21157
864.823	21157
864.954	21051
865.086	21154
865.217	21005
865.349	20998
865.48	21024
865.612	21032
865.743	21096
865.875	21051
866.006	20994
866.137	20948
866.269	21135
866.4	20998
866.531	20918
866.662	20861
866.793	20998
866.924	20967
867.055	20906
867.186	20994
867.317	20769
867.448	20811
867.579	20773
867.71	20765
867.841	20769
867.972	21005
868.103	20887
868.233	20971
868.364	21005
868.495	20933
868.625	21237
868.756	21154
868.886	21077
869.017	21157
869.147	21268
869.278	21332
869.408	21074
869.539	21116
869.669	21188
869.799	21195
869.929	21252
870.06	21237
870.19	21488
870.32	21462
870.45	21507
870.58	21618
870.71	21595
870.84	21599
870.97	21637
871.1	21610
871.23	21633
871.36	21705
871.489	21667
871.619	21679
871.749	21739
871.879	21739
872.008	21785
872.138	21785
872.267	21720
872.397	21686
872.526	21637
872.656	21587
872.785	21469
872.915	21739
873.044	21956
873.173	21819
873.303	21895
873.432	21755
873.561	21835
873.69	21713
873.819	21873
873.948	21793
874.077	21671
874.206	21774
874.335	21701
874.464	21823
874.593	21979
874.722	21991
874.851	21991
874.979	21888
875.108	22101
875.237	21911
875.365	21873
875.494	21911
875.623	21987
875.751	21987
875.88	22036
876.008	22097
876.136	22150
876.265	22470
876.393	22508
876.521	22413
876.65	22489
876.778	22508
876.906	22402
877.034	22310
877.162	22363
877.29	22325
877.418	22265
877.546	22413
877.674	22493
877.802	22424
877.93	22371
878.058	22230
878.185	22200
878.313	22432
878.441	22394
878.568	22131
878.696	22272
878.824	22337
878.951	22382
879.079	22462
879.206	22713
879.333	22542
879.461	22424
879.588	22413
879.715	22561
879.842	22607
879.97	22413
880.097	22215
880.224	22158
880.351	22333
880.478	22291
880.605	22086
880.732	22185
880.859	22405
880.986	22265
881.112	22242
881.239	22051
881.366	21937
881.493	21850
881.619	21701
881.746	21804
881.872	21743
881.999	21770
882.125	21705
882.252	21797
882.378	21785
882.505	21876
882.631	21641
882.757	21561
882.883	21656
883.01	21473
883.136	21431
883.262	21439
883.388	21370
883.514	21549
883.64	21629
883.766	21393
883.892	21321
884.018	21294
884.143	21462
884.269	21443
884.395	21184
884.52	21028
884.646	21108
884.772	21058
884.897	20891
885.023	21165
885.148	21184
885.274	21268
885.399	21226
885.524	21116
885.65	21184
885.775	21154
885.9	21116
886.025	21150
886.15	21108
886.275	20937
886.4	21036
886.525	20971
886.65	21013
886.775	21154
886.9	21184
887.025	21211
887.149	21184
887.274	20914
887.399	20910
887.523	20807
887.648	20785
887.773	20731
887.897	20861
888.021	20902
888.146	20746
888.27	21013
888.395	20712
888.519	20807
888.643	20937
888.767	20963
888.891	20651
889.015	20629
889.139	20807
889.263	20678
889.387	20758
889.511	20838
889.635	20746
889.759	20609
889.883	20552
890.006	20560
890.13	20792
890.254	20545
890.377	20480
890.501	20473
890.624	20263
890.748	20484
890.871	20221
890.995	20161
891.118	20206
891.241	20176
891.364	20206
891.488	20305
891.611	20286
891.734	20157
891.857	20256
891.98	20122
892.103	20237
892.226	20187
892.349	20195
892.471	19921
892.594	20157
892.717	20142
892.839	20073
892.962	20180
893.085	20199
893.207	20103
893.33	19986
893.452	20024
893.575	20134
893.697	20084
893.819	20214
893.941	20233
894.064	20244
894.186	19940
894.308	19982
894.43	20202
894.552	20366
894.674	20100
894.796	20027
894.918	20058
895.04	20046
895.161	20176
895.283	20164
895.405	20001
895.526	19947
895.648	20088
895.769	20096
895.891	20168
896.012	20149
896.134	20278
896.255	20122
896.376	20035
896.498	20126
896.619	20130
896.74	20145
896.861	20282
896.982	20476
897.103	20727
897.224	20427
897.345	20347
897.466	20271
897.587	20317
897.708	20503
897.828	20389
897.949	20210
898.07	20130
898.19	20210
898.311	20488
898.431	20309
898.552	20263
898.672	20263
898.792	20461
898.913	20259
899.033	20145
899.153	20107
899.273	19913
899.393	20039
899.513	20016
899.633	20073
899.753	19967
899.873	19917
899.993	20073
900.113	19864
900.232	20001
900.352	20069
900.472	19803
900.591	19890
900.711	19780
900.83	19708
900.95	19902
901.069	19913
901.189	19772
901.308	19533
901.427	19438
901.546	19457
901.665	19411
901.784	19426
901.904	19274
902.023	19110
902.141	19019
902.26	18916
902.379	18962
902.498	18856
902.617	18867
902.735	18973
902.854	18905
902.973	18795
903.091	18578
903.21	18525
903.328	18528
903.446	18311
903.565	18292
903.683	18323
903.801	18190
903.919	18353
904.038	18327
904.156	18213
904.274	18152
904.392	18091
904.51	18106
904.627	18049
904.745	18087
904.863	18053
904.981	17939
905.098	17805
905.216	17779
905.334	17707
905.451	17771
905.569	17764
905.686	17809
905.803	17783
905.921	17558
906.038	17714
906.155	17501
906.272	17364
906.389	17524
906.506	17277
906.623	17239
906.74	17360
906.857	17204
906.974	17174
907.091	17376
907.208	17364
907.324	17265
907.441	17227
907.557	16999
907.674	17010
907.79	16949
907.907	17052
908.023	17006
908.139	17022
908.256	16812
908.372	16869
908.488	16801
908.604	16763
908.72	16672
908.836	16710
908.952	16592
909.068	16637
909.184	16763
909.3	16573
909.415	16691
909.531	16523
909.647	16413
909.762	16352
909.878	16348
909.993	16405
910.108	16310
910.224	16318
910.339	16356
910.454	16314
910.57	16154
910.685	16040
910.8	16436
910.915	16322
911.03	16097
911.145	16021
911.259	15918
911.374	15907
911.489	15869
911.604	15911
911.718	15667
911.833	15694
911.947	15511
912.062	15507
912.176	15793
912.291	15713
912.405	15690
912.519	15831
912.633	15880
912.748	15690
912.862	15549
912.976	15549
913.09	15348
913.204	15420
913.318	15458
913.431	15511
913.545	15584
913.659	15629
913.772	15412
913.886	15355
914	15249
914.113	15473
914.226	15355
914.34	15344
914.453	15192
914.566	15291
914.68	15142
914.793	15127
914.906	14921
915.019	15005
915.132	14834
915.245	14925
915.358	14906
915.47	14944
915.583	14876
915.696	15013
915.809	15005
915.921	15055
916.034	14777
916.146	14758
916.259	14689
916.371	14849
916.483	14899
916.595	14765
916.708	14674
916.82	14769
916.932	14773
917.044	14731
917.156	14602
917.268	14541
917.38	14556
917.491	14545
917.603	14583
917.715	14545
917.826	14651
917.938	14423
918.049	14370
918.161	14488
918.272	14659
918.384	14598
918.495	14492
918.606	14370
918.717	14187
918.828	14320
918.939	14317
919.05	14214
919.161	14248
919.272	14092
919.383	14130
919.494	14282
919.604	14499
919.715	14229
919.826	14149
919.936	14214
920.047	14358
920.157	14259
920.267	14442
920.378	14267
920.488	14202
920.598	14404
920.708	14495
920.818	14374
920.928	14370
921.038	14545
921.148	14484
921.258	14157
921.368	14111
921.477	14001
921.587	13993
921.697	13849
921.806	13986
921.916	13795
922.025	13723
922.134	13738
922.244	13651
922.353	13632
922.462	13480
922.571	13445
922.68	13308
922.789	13255
922.898	13293
923.007	13152
923.116	13266
923.224	13202
923.333	13198
923.442	13168
923.55	12996
923.659	13053
923.767	13164
923.876	13031
923.984	13076
924.092	12905
924.201	12962
924.309	13046
924.417	13114
924.525	12958
924.633	12886
924.741	13616
924.849	12642
924.956	12878
925.064	12700
925.172	12566
925.279	12692
925.387	12665
925.494	12631
925.602	12749
925.709	12681
925.816	12662
925.924	12722
926.031	12696
926.138	12616
926.245	12646
926.352	12456
926.459	12608
926.566	12703
926.673	12582
926.779	12460
926.886	12391
926.993	12334
927.099	12197
927.206	12239
927.312	12224
927.419	12270
927.525	12209
927.631	12258
927.737	12110
927.843	12064
927.95	11878
928.056	12087
928.162	12117
928.267	12095
928.373	12654
928.479	12129
928.585	11954
928.69	11999
928.796	12045
928.901	11908
929.007	11760
929.112	11889
929.218	11901
929.323	11840
929.428	11707
929.533	11984
929.638	11748
929.743	11798
929.848	11786
929.953	11737
930.058	11699
930.163	11501
930.267	11482
930.372	11646
930.477	11459
930.581	11672
930.685	11539
930.79	11372
930.894	11387
930.998	11360
931.103	11444
931.207	11041
931.311	11033
931.415	10896
931.519	10778
931.623	10691
