Data from test_V78500241_2505.txt Node
Date: Fri Mar 25 15:59:09 CST 2022
User: usil
Spectrometer: V785-0024
Trigger mode: 0
Integration Time (sec): 4.000000E-1
Scans to average: 1
Nonlinearity correction enabled: false
Boxcar width: 0
Storing dark spectrum: false
XAxis mode: Wavelengths
Number of Pixels in Spectrum: 1024
>>>>>Begin Spectral Data<<<<<
801.071	28367
801.214	28306
801.356	28128
801.499	28021
801.641	27816
801.783	27899
801.926	27972
802.068	28082
802.211	27884
802.353	27865
802.496	27549
802.638	27671
802.78	27561
802.923	27618
803.065	27511
803.208	27545
803.35	27618
803.492	27823
803.635	27846
803.777	27808
803.919	27846
804.061	28006
804.204	27797
804.346	27755
804.488	27728
804.63	27831
804.773	27835
804.915	27861
805.057	28044
805.199	27781
805.341	27816
805.483	27964
805.626	27941
805.768	27850
805.91	28048
806.052	27960
806.194	27914
806.336	28128
806.478	27998
806.62	28032
806.762	28215
806.904	28367
807.046	28592
807.188	28451
807.33	28440
807.472	28451
807.614	28356
807.756	28489
807.898	28242
808.04	28291
808.182	28173
808.324	28272
808.465	28341
808.607	28569
808.749	28645
808.891	28771
809.033	28831
809.174	28805
809.316	28573
809.458	28835
809.6	28618
809.741	28748
809.883	28778
810.025	28976
810.166	28915
810.308	28946
810.45	28888
810.591	28873
810.733	28706
810.875	28603
811.016	28645
811.158	28603
811.299	28835
811.441	28805
811.582	28763
811.724	28611
811.865	28615
812.007	28687
812.148	28748
812.29	28790
812.431	28987
812.573	28999
812.714	29067
812.855	29261
812.997	29189
813.138	29478
813.279	29235
813.421	29341
813.562	29166
813.703	29014
813.845	28908
813.986	28713
814.127	28405
814.268	28440
814.41	28223
814.551	28500
814.692	28565
814.833	28226
814.974	28322
815.115	28295
815.256	28306
815.397	28101
815.539	28333
815.68	28158
815.821	28082
815.962	28185
816.103	28215
816.244	28044
816.385	28029
816.526	27907
816.666	27816
816.807	27690
816.948	27728
817.089	27778
817.23	27675
817.371	27720
817.512	27701
817.653	27660
817.793	27583
817.934	27641
818.075	27713
818.216	27637
818.356	27709
818.497	27538
818.638	27386
818.778	27386
818.919	27587
819.06	27431
819.2	27614
819.341	27743
819.481	27705
819.622	27766
819.762	27876
819.903	28055
820.043	27797
820.184	27797
820.324	27755
820.465	27876
820.605	27865
820.746	27755
820.886	27492
821.026	27599
821.167	27774
821.307	27812
821.447	27778
821.588	27747
821.728	27412
821.868	27268
822.008	27161
822.149	27150
822.289	27226
822.429	26902
822.569	26853
822.709	26834
822.849	26765
822.99	26648
823.13	26632
823.27	26686
823.41	26541
823.55	26282
823.69	26381
823.83	26613
823.97	26473
824.11	26275
824.25	26313
824.389	26347
824.529	26389
824.669	26237
824.809	26396
824.949	26492
825.089	26511
825.228	26389
825.368	26290
825.508	26142
825.648	26168
825.787	26328
825.927	26145
826.067	26088
826.206	26214
826.346	26126
826.485	26206
826.625	26024
826.765	26271
826.904	26221
827.044	25879
827.183	25936
827.323	25944
827.462	26031
827.601	25841
827.741	25765
827.88	25879
828.02	25814
828.159	25833
828.298	25887
828.437	25871
828.577	25890
828.716	26062
828.855	25811
828.994	25613
829.134	25674
829.273	25662
829.412	25662
829.551	25605
829.69	25502
829.829	25537
829.968	25662
830.107	25441
830.246	25575
830.385	25411
830.524	25586
830.663	25415
830.802	25217
830.941	25107
831.08	25304
831.219	25324
831.357	25346
831.496	25502
831.635	25042
831.774	25213
831.913	24981
832.051	25095
832.19	25004
832.329	24962
832.467	24878
832.606	24916
832.744	24684
832.883	24741
833.022	24795
833.16	24833
833.299	24776
833.437	24958
833.576	24973
833.714	24798
833.852	24973
833.991	25061
834.129	24928
834.267	24981
834.406	24947
834.544	25038
834.682	24802
834.821	24852
834.959	25088
835.097	24867
835.235	24890
835.373	25034
835.511	24928
835.65	24783
835.788	24837
835.926	24639
836.064	24601
836.202	24703
836.34	24745
836.478	24806
836.615	24764
836.753	24760
836.891	24791
837.029	24768
837.167	24566
837.305	24467
837.443	24608
837.58	24597
837.718	24627
837.856	24593
837.993	24544
838.131	24414
838.269	24517
838.406	24403
838.544	24285
838.681	24228
838.819	24174
838.956	24114
839.094	24117
839.231	24064
839.369	24262
839.506	24334
839.643	24224
839.781	23980
839.918	23961
840.055	24102
840.193	24045
840.33	23889
840.467	23996
840.604	23965
840.742	24277
840.879	23882
841.016	23847
841.153	23779
841.29	23977
841.427	23893
841.564	24018
841.701	23942
841.838	23805
841.975	23828
842.112	23847
842.249	23726
842.385	23752
842.522	23893
842.659	23733
842.796	23600
842.933	23733
843.069	23805
843.206	23516
843.343	23756
843.479	23714
843.616	23722
843.752	23543
843.889	23433
844.025	23589
844.162	23509
844.298	23615
844.435	23387
844.571	23433
844.708	23551
844.844	23630
844.98	23573
845.117	23604
845.253	23337
845.389	23360
845.525	23467
845.661	23239
845.798	23208
845.934	23242
846.07	23296
846.206	23174
846.342	23349
846.478	23151
846.614	23056
846.75	22862
846.886	23003
847.022	23037
847.158	22900
847.294	22900
847.429	22987
847.565	22889
847.701	23280
847.837	22634
847.972	22721
848.108	22828
848.244	22649
848.379	22596
848.515	22432
848.65	22508
848.786	22493
848.921	22569
849.057	22622
849.192	22599
849.328	22546
849.463	22504
849.598	22519
849.734	22413
849.869	22352
850.004	22379
850.14	22367
850.275	22394
850.41	22268
850.545	22226
850.68	22299
850.815	22337
850.95	22352
851.085	22432
851.22	22276
851.355	22325
851.49	22265
851.625	22272
851.76	22280
851.895	22268
852.03	22280
852.165	22272
852.299	22402
852.434	22348
852.569	22398
852.703	22310
852.838	22360
852.973	22436
853.107	22413
853.242	22299
853.376	22067
853.511	21991
853.645	22086
853.78	22139
853.914	22109
854.048	21991
854.183	22040
854.317	22173
854.451	22371
854.585	22109
854.72	22135
854.854	22200
854.988	22013
855.122	22059
855.256	22044
855.39	22139
855.524	22063
855.658	22188
855.792	22223
855.926	22116
856.06	22211
856.194	22166
856.327	22090
856.461	22150
856.595	22086
856.729	22105
856.862	22242
856.996	22078
857.13	22101
857.263	22238
857.397	22173
857.53	22002
857.664	22223
857.797	22143
857.931	22291
858.064	22055
858.197	22181
858.331	22006
858.464	22070
858.597	22112
858.731	21994
858.864	22029
858.997	22120
859.13	22044
859.263	22040
859.396	22230
859.529	22090
859.662	22097
859.795	22070
859.928	22154
860.061	22329
860.194	22306
860.327	22131
860.46	22120
860.592	22200
860.725	22352
860.858	22306
860.99	22116
861.123	22082
861.256	21945
861.388	22135
861.521	22812
861.653	21911
861.786	21884
861.918	22044
862.05	22051
862.183	22055
862.315	22181
862.447	21960
862.58	22067
862.712	21812
862.844	21850
862.976	21873
863.108	21857
863.24	22234
863.372	21743
863.504	21911
863.636	21739
863.768	21926
863.9	21873
864.032	21812
864.164	21755
864.296	21804
864.428	21857
864.559	21873
864.691	22006
864.823	21861
864.954	21793
865.086	21873
865.217	21686
865.349	21766
865.48	21682
865.612	21827
865.743	21937
865.875	21720
866.006	21629
866.137	21705
866.269	21637
866.4	21637
866.531	21698
866.662	21652
866.793	21656
866.924	21583
867.055	21747
867.186	21618
867.317	21515
867.448	21477
867.579	21690
867.71	21515
867.841	21473
867.972	21724
868.103	21682
868.233	21603
868.364	21736
868.495	21766
868.625	21857
868.756	22029
868.886	21789
869.017	21793
869.147	21983
869.278	22074
869.408	21926
869.539	21918
869.669	21934
869.799	21941
869.929	22010
870.06	21880
870.19	22120
870.32	22173
870.45	22246
870.58	22234
870.71	22352
870.84	22459
870.97	22196
871.1	22344
871.23	22478
871.36	22500
871.489	22455
871.619	22424
871.749	22459
871.879	22573
872.008	22645
872.138	22512
872.267	22497
872.397	22478
872.526	22337
872.656	22356
872.785	22474
872.915	22550
873.044	22527
873.173	22481
873.303	22527
873.432	22611
873.561	22615
873.69	22542
873.819	22500
873.948	22702
874.077	22519
874.206	22519
874.335	22554
874.464	22782
874.593	22809
874.722	22713
874.851	22752
874.979	22843
875.108	22850
875.237	22782
875.365	22596
875.494	22763
875.623	22938
875.751	22683
875.88	22694
876.008	22824
876.136	22812
876.265	23166
876.393	23212
876.521	23200
876.65	23280
876.778	23231
876.906	23044
877.034	23151
877.162	23159
877.29	23136
877.418	23090
877.546	23006
877.674	23006
877.802	23136
877.93	23029
878.058	23090
878.185	23010
878.313	23025
878.441	23044
878.568	23025
878.696	22930
878.824	23098
878.951	23132
879.079	23166
879.206	23261
879.333	23330
879.461	23102
879.588	23204
879.715	23143
879.842	23345
879.97	23155
880.097	22953
880.224	22877
880.351	23048
880.478	22987
880.605	22862
880.732	22809
880.859	23178
880.986	23006
881.112	22877
881.239	22816
881.366	22527
881.493	22603
881.619	22546
881.746	22485
881.872	22478
881.999	22485
882.125	22424
882.252	22561
882.378	22603
882.505	22675
882.631	22325
882.757	22074
882.883	22329
883.01	22188
883.136	22078
883.262	21979
883.388	22040
883.514	22105
883.64	22196
883.766	22147
883.892	21846
884.018	22048
884.143	22188
884.269	22154
884.395	21873
884.52	21762
884.646	21720
884.772	21751
884.897	21743
885.023	21876
885.148	21854
885.274	21888
885.399	21892
885.524	21682
885.65	21724
885.775	21793
885.9	21812
886.025	21800
886.15	21854
886.275	21793
886.4	21701
886.525	21698
886.65	21701
886.775	21705
886.9	21857
887.025	21956
887.149	21709
887.274	21583
887.399	21519
887.523	21473
887.648	21507
887.773	21462
887.897	21671
888.021	21603
888.146	21500
888.27	21625
888.395	21641
888.519	21439
888.643	21663
888.767	21641
888.891	21519
889.015	21363
889.139	21462
889.263	21382
889.387	21378
889.511	21481
889.635	21523
889.759	21329
889.883	21291
890.006	21211
890.13	21454
890.254	21272
890.377	21291
890.501	20994
890.624	21001
890.748	21100
890.871	20918
890.995	20952
891.118	20906
891.241	20800
891.364	21001
891.488	21093
891.611	20861
891.734	20929
891.857	20861
891.98	20899
892.103	20941
892.226	20880
892.349	20705
892.471	20625
892.594	20754
892.717	20853
892.839	20785
892.962	20838
893.085	20883
893.207	20735
893.33	20762
893.452	20785
893.575	20834
893.697	20701
893.819	20971
893.941	21047
894.064	20861
894.186	20762
894.308	20716
894.43	20948
894.552	20868
894.674	21051
894.796	20727
894.918	20716
895.04	20864
895.161	20944
895.283	20762
895.405	20644
895.526	20758
895.648	20746
895.769	20807
895.891	20868
896.012	20838
896.134	20773
896.255	20876
896.376	20648
896.498	20750
896.619	20785
896.74	20758
896.861	20876
896.982	21039
897.103	21317
897.224	20990
897.345	20921
897.466	20895
897.587	21020
897.708	21142
897.828	20986
897.949	20933
898.07	20883
898.19	20925
898.311	21020
898.431	20990
898.552	20914
898.672	21028
898.792	20937
898.913	20982
899.033	20952
899.153	20823
899.273	20655
899.393	20777
899.513	20777
899.633	20644
899.753	20754
899.873	20777
899.993	20743
900.113	20560
900.232	20788
900.352	20587
900.472	20590
900.591	20465
900.711	20606
900.83	20488
900.95	20507
901.069	20579
901.189	20370
901.308	20183
901.427	20142
901.546	20065
901.665	20073
901.784	20100
901.904	19955
902.023	19909
902.141	19685
902.26	19616
902.379	19590
902.498	19624
902.617	19537
902.735	19761
902.854	19571
902.973	19403
903.091	19251
903.21	19228
903.328	19270
903.446	19129
903.565	19034
903.683	19065
903.801	18875
903.919	18924
904.038	18951
904.156	18806
904.274	18882
904.392	18696
904.51	18760
904.627	18825
904.745	18932
904.863	18928
904.981	18669
905.098	18418
905.216	18483
905.334	18593
905.451	18536
905.569	18395
905.686	18437
905.803	18445
905.921	18277
906.038	18304
906.155	18167
906.272	18163
906.389	18178
906.506	18022
906.623	18030
906.74	18057
906.857	17931
906.974	17870
907.091	18076
907.208	18060
907.324	17889
907.441	17863
907.557	17718
907.674	17672
907.79	17566
907.907	17642
908.023	17707
908.139	17570
908.256	17642
908.372	17554
908.488	17619
908.604	17444
908.72	17421
908.836	17341
908.952	17433
909.068	17421
909.184	17414
909.3	17368
909.415	17467
909.531	17391
909.647	17284
909.762	17189
909.878	17052
909.993	17170
910.108	17174
910.224	17086
910.339	17025
910.454	17010
910.57	16839
910.685	16995
910.8	17174
910.915	17189
911.03	16885
911.145	16866
911.259	16687
911.374	16740
911.489	16641
911.604	16607
911.718	16462
911.833	16504
911.947	16405
912.062	16352
912.176	16386
912.291	16405
912.405	16481
912.519	16558
912.633	16538
912.748	16451
912.862	16375
912.976	16344
913.09	16223
913.204	16230
913.318	16348
913.431	16310
913.545	16329
913.659	16386
913.772	16223
913.886	16090
914	16093
914.113	16006
914.226	16143
914.34	16101
914.453	15964
914.566	16059
914.68	15888
914.793	15873
914.906	15679
915.019	15564
915.132	15610
915.245	15591
915.358	15599
915.47	15663
915.583	15496
915.696	15618
915.809	15671
915.921	15743
916.034	15515
916.146	15492
916.259	15519
916.371	15580
916.483	15545
916.595	15458
916.708	15473
916.82	15481
916.932	15420
917.044	15469
917.156	15424
917.268	15245
917.38	15325
917.491	15256
917.603	15256
917.715	15348
917.826	15336
917.938	15237
918.049	15138
918.161	15192
918.272	15264
918.384	15348
918.495	15169
918.606	15028
918.717	14967
918.828	14979
918.939	15043
919.05	14902
919.161	14967
919.272	14880
919.383	14937
919.494	14986
919.604	15085
919.715	15058
919.826	15017
919.936	15001
920.047	15081
920.157	15074
920.267	15233
920.378	14979
920.488	14963
920.598	15138
920.708	15264
920.818	15112
920.928	15066
921.038	15351
921.148	15268
921.258	14910
921.368	14845
921.477	14735
921.587	14648
921.697	14564
921.806	14834
921.916	14590
922.025	14385
922.134	14324
922.244	14313
922.353	14336
922.462	14244
922.571	14172
922.68	14035
922.789	13917
922.898	13944
923.007	13864
923.116	13993
923.224	13970
923.333	13947
923.442	13868
923.55	13719
923.659	13841
923.767	13864
923.876	13780
923.984	13731
924.092	13624
924.201	13693
924.309	13765
924.417	13742
924.525	13674
924.633	13632
924.741	14343
924.849	13407
924.956	13559
925.064	13392
925.172	13297
925.279	13335
925.387	13335
925.494	13411
925.602	13476
925.709	13301
925.816	13209
925.924	13289
926.031	13362
926.138	13289
926.245	13358
926.352	13171
926.459	13384
926.566	13400
926.673	13164
926.779	13225
926.886	13110
926.993	13015
927.099	12882
927.206	13000
927.312	12802
927.419	12916
927.525	12833
927.631	12909
927.737	12764
927.843	12772
927.95	12604
928.056	12738
928.162	12722
928.267	12840
928.373	13324
928.479	12688
928.585	12631
928.69	12677
928.796	12684
928.901	12593
929.007	12471
929.112	12525
929.218	12566
929.323	12426
929.428	12372
929.533	12604
929.638	12441
929.743	12361
929.848	12422
929.953	12399
930.058	12289
930.163	12155
930.267	12144
930.372	12254
930.477	12064
930.581	12273
930.685	12072
930.79	12026
930.894	12045
930.998	12022
931.103	12053
931.207	11710
931.311	11695
931.415	11608
931.519	11387
931.623	11372
