Data from test_V78500241_2231.txt Node
Date: Fri Mar 25 15:57:15 CST 2022
User: usil
Spectrometer: V785-0024
Trigger mode: 0
Integration Time (sec): 4.000000E-1
Scans to average: 1
Nonlinearity correction enabled: false
Boxcar width: 0
Storing dark spectrum: false
XAxis mode: Wavelengths
Number of Pixels in Spectrum: 1024
>>>>>Begin Spectral Data<<<<<
801.071	29094
801.214	29071
801.356	29048
801.499	28892
801.641	28847
801.783	28847
801.926	28995
802.068	28866
802.211	28710
802.353	28634
802.496	28497
802.638	28554
802.78	28424
802.923	28462
803.065	28436
803.208	28382
803.35	28596
803.492	28691
803.635	28812
803.777	28710
803.919	28706
804.061	29052
804.204	28721
804.346	28672
804.488	28592
804.63	28847
804.773	28649
804.915	28717
805.057	28938
805.199	28752
805.341	28805
805.483	28824
805.626	28873
805.768	28790
805.91	28908
806.052	29041
806.194	28892
806.336	29041
806.478	28809
806.62	28976
806.762	29060
806.904	29349
807.046	29524
807.188	29337
807.33	29436
807.472	29490
807.614	29334
807.756	29558
807.898	29356
808.04	29102
808.182	29136
808.324	29395
808.465	29341
808.607	29665
808.749	29554
808.891	29726
809.033	29809
809.174	29638
809.316	29623
809.458	29592
809.6	29425
809.741	29805
809.883	29965
810.025	29992
810.166	29885
810.308	30045
810.45	30015
810.591	29935
810.733	29851
810.875	29642
811.016	29630
811.158	29611
811.299	29859
811.441	29828
811.582	29802
811.724	29980
811.865	29691
812.007	29668
812.148	29680
812.29	29649
812.431	29794
812.573	29935
812.714	30114
812.855	30068
812.997	30380
813.138	30536
813.279	30277
813.421	30155
813.562	29992
813.703	30045
813.845	29813
813.986	29699
814.127	29425
814.268	29509
814.41	29452
814.551	29345
814.692	29406
814.833	29265
814.974	29368
815.115	29436
815.256	29258
815.397	29284
815.539	29429
815.68	29094
815.821	29113
815.962	29193
816.103	29083
816.244	29105
816.385	29079
816.526	29010
816.666	28816
816.807	28771
816.948	28812
817.089	28896
817.23	28805
817.371	28691
817.512	28782
817.653	28630
817.793	28683
817.934	28592
818.075	28877
818.216	28679
818.356	28774
818.497	28500
818.638	28596
818.778	28596
818.919	28485
819.06	28672
819.2	28622
819.341	28869
819.481	28675
819.622	28869
819.762	29170
819.903	29098
820.043	28919
820.184	28797
820.324	28831
820.465	28965
820.605	28946
820.746	28900
820.886	28713
821.026	28850
821.167	28991
821.307	28835
821.447	28675
821.588	28664
821.728	28561
821.868	28390
822.008	28246
822.149	28242
822.289	28291
822.429	28017
822.569	27930
822.709	27892
822.849	27770
822.99	27705
823.13	27717
823.27	27644
823.41	27519
823.55	27469
823.69	27405
823.83	27618
823.97	27564
824.11	27344
824.25	27294
824.389	27412
824.529	27698
824.669	27310
824.809	27443
824.949	27534
825.089	27443
825.228	27496
825.368	27275
825.508	27233
825.648	27336
825.787	27386
825.927	27363
826.067	27218
826.206	27268
826.346	27351
826.485	27405
826.625	27275
826.765	27291
826.904	27306
827.044	27070
827.183	27020
827.323	27070
827.462	27138
827.601	27013
827.741	26921
827.88	27089
828.02	26986
828.159	26956
828.298	27089
828.437	27089
828.577	26910
828.716	26967
828.855	26868
828.994	26636
829.134	26590
829.273	26686
829.412	26492
829.551	26674
829.69	26693
829.829	26621
829.968	26731
830.107	26720
830.246	26625
830.385	26678
830.524	26583
830.663	26469
830.802	26434
830.941	26355
831.08	26225
831.219	26237
831.357	26343
831.496	26431
831.635	26252
831.774	26248
831.913	26202
832.051	25955
832.19	26050
832.329	26077
832.467	26054
832.606	25852
832.744	25909
832.883	25913
833.022	25875
833.16	25944
833.299	25936
833.437	26069
833.576	26001
833.714	25894
833.852	26062
833.991	25925
834.129	26016
834.267	26046
834.406	26016
834.544	26024
834.682	25978
834.821	25982
834.959	26183
835.097	25993
835.235	25986
835.373	26062
835.511	25944
835.65	25879
835.788	25868
835.926	25708
836.064	25704
836.202	25559
836.34	25734
836.478	25913
836.615	25727
836.753	25719
836.891	25731
837.029	25742
837.167	25727
837.305	25708
837.443	25632
837.58	25529
837.718	25712
837.856	25685
837.993	25544
838.131	25742
838.269	25438
838.406	25529
838.544	25308
838.681	25320
838.819	25232
838.956	25190
839.094	25072
839.231	25297
839.369	25209
839.506	25422
839.643	25282
839.781	25008
839.918	25038
840.055	25221
840.193	25053
840.33	24977
840.467	24905
840.604	25023
840.742	25339
840.879	24935
841.016	24837
841.153	24966
841.29	25084
841.427	24989
841.564	24947
841.701	24977
841.838	24962
841.975	24837
842.112	24890
842.249	24745
842.385	24730
842.522	25103
842.659	24772
842.796	24684
842.933	24787
843.069	24890
843.206	24654
843.343	24749
843.479	24825
843.616	24627
843.752	24391
843.889	24471
844.025	24711
844.162	24528
844.298	24608
844.435	24585
844.571	24486
844.708	24544
844.844	24669
844.98	24722
845.117	24753
845.253	24372
845.389	24350
845.525	24414
845.661	24338
845.798	24133
845.934	24251
846.07	24220
846.206	24311
846.342	24289
846.478	24194
846.614	23984
846.75	23866
846.886	23901
847.022	24003
847.158	23999
847.294	24015
847.429	23923
847.565	24038
847.701	24281
847.837	23684
847.972	23718
848.108	23847
848.244	23771
848.379	23630
848.515	23585
848.65	23474
848.786	23589
848.921	23668
849.057	23718
849.192	23722
849.328	23558
849.463	23474
849.598	23509
849.734	23383
849.869	23410
850.004	23391
850.14	23330
850.275	23292
850.41	23318
850.545	23387
850.68	23356
850.815	23395
850.95	23288
851.085	23520
851.22	23463
851.355	23318
851.49	23258
851.625	23307
851.76	23265
851.895	23288
852.03	23315
852.165	23421
852.299	23429
852.434	23512
852.569	23471
852.703	23254
852.838	23261
852.973	23391
853.107	23398
853.242	23254
853.376	23174
853.511	23075
853.645	23109
853.78	23337
853.914	23117
854.048	23143
854.183	23185
854.317	23162
854.451	23326
854.585	23060
854.72	23181
854.854	23189
854.988	23071
855.122	23041
855.256	23166
855.39	23159
855.524	23246
855.658	23159
855.792	23181
855.926	23189
856.06	23231
856.194	23250
856.327	23052
856.461	23102
856.595	23220
856.729	23303
856.862	23200
856.996	23170
857.13	23250
857.263	23292
857.397	23322
857.53	23090
857.664	23330
857.797	23151
857.931	23311
858.064	23155
858.197	23334
858.331	23117
858.464	23037
858.597	23029
858.731	23124
858.864	23143
858.997	23185
859.13	23235
859.263	23162
859.396	23292
859.529	23162
859.662	23117
859.795	23170
859.928	23128
860.061	23227
860.194	23197
860.327	23151
860.46	23231
860.592	23227
860.725	23254
860.858	23178
860.99	23265
861.123	23075
861.256	23155
861.388	23204
861.521	23813
861.653	23105
861.786	23037
861.918	23010
862.05	23113
862.183	23098
862.315	23010
862.447	23098
862.58	23098
862.712	22949
862.844	22866
862.976	22949
863.108	22850
863.24	23356
863.372	22805
863.504	22877
863.636	22900
863.768	22892
863.9	22843
864.032	22767
864.164	22816
864.296	22892
864.428	23010
864.559	22854
864.691	23048
864.823	22896
864.954	22740
865.086	22767
865.217	22717
865.349	22615
865.48	22664
865.612	22771
865.743	22957
865.875	22740
866.006	22618
866.137	22710
866.269	22752
866.4	22645
866.531	22573
866.662	22618
866.793	22660
866.924	22641
867.055	22771
867.186	22599
867.317	22679
867.448	22611
867.579	22599
867.71	22630
867.841	22462
867.972	22634
868.103	22592
868.233	22721
868.364	22675
868.495	22607
868.625	22854
868.756	23079
868.886	22759
869.017	22904
869.147	22915
869.278	22995
869.408	22831
869.539	22778
869.669	22984
869.799	23010
869.929	22923
870.06	22934
870.19	23269
870.32	23151
870.45	23231
870.58	23349
870.71	23376
870.84	23334
870.97	23387
871.1	23330
871.23	23410
871.36	23490
871.489	23345
871.619	23486
871.749	23528
871.879	23505
872.008	23714
872.138	23490
872.267	23490
872.397	23417
872.526	23299
872.656	23311
872.785	23280
872.915	23482
873.044	23551
873.173	23600
873.303	23707
873.432	23535
873.561	23752
873.69	23356
873.819	23505
873.948	23619
874.077	23600
874.206	23402
874.335	23497
874.464	23581
874.593	23726
874.722	23665
874.851	23775
874.979	23729
875.108	23779
875.237	23665
875.365	23627
875.494	23657
875.623	23756
875.751	23653
875.88	23775
876.008	23805
876.136	23805
876.265	24159
876.393	24216
876.521	24121
876.65	24167
876.778	24155
876.906	24060
877.034	24018
877.162	24159
877.29	23992
877.418	24095
877.546	24034
877.674	24015
877.802	23908
877.93	23923
878.058	23920
878.185	23996
878.313	23961
878.441	24049
878.568	23703
878.696	24041
878.824	24068
878.951	24030
879.079	24140
879.206	24262
879.333	24171
879.461	24079
879.588	24148
879.715	24254
879.842	24376
879.97	24026
880.097	23817
880.224	23726
880.351	23863
880.478	23870
880.605	23836
880.732	23843
880.859	24243
880.986	23824
881.112	23908
881.239	23608
881.366	23573
881.493	23554
881.619	23455
881.746	23505
881.872	23364
881.999	23391
882.125	23402
882.252	23379
882.378	23364
882.505	23505
882.631	23189
882.757	23143
882.883	23159
883.01	23124
883.136	23075
883.262	22957
883.388	22801
883.514	23086
883.64	23086
883.766	22957
883.892	22877
884.018	22793
884.143	22976
884.269	23014
884.395	22744
884.52	22752
884.646	22683
884.772	22660
884.897	22561
885.023	22637
885.148	22835
885.274	22854
885.399	22809
885.524	22660
885.65	22672
885.775	22649
885.9	22660
886.025	22740
886.15	22759
886.275	22706
886.4	22527
886.525	22637
886.65	22618
886.775	22611
886.9	22733
887.025	22957
887.149	22584
887.274	22504
887.399	22413
887.523	22481
887.648	22413
887.773	22356
887.897	22455
888.021	22500
888.146	22417
888.27	22512
888.395	22474
888.519	22512
888.643	22363
888.767	22592
888.891	22280
889.015	22223
889.139	22284
889.263	22299
889.387	22402
889.511	22344
889.635	22268
889.759	22105
889.883	22242
890.006	22188
890.13	22348
890.254	22086
890.377	22230
890.501	21983
890.624	21975
890.748	21926
890.871	21888
890.995	21739
891.118	21633
891.241	21812
891.364	21778
891.488	21941
891.611	21800
891.734	21690
891.857	21789
891.98	21743
892.103	21770
892.226	21652
892.349	21633
892.471	21591
892.594	21568
892.717	21743
892.839	21633
892.962	21705
893.085	21759
893.207	21622
893.33	21580
893.452	21553
893.575	21694
893.697	21591
893.819	21804
893.941	21766
894.064	21797
894.186	21618
894.308	21511
894.43	21770
894.552	21739
894.674	21736
894.796	21564
894.918	21595
895.04	21675
895.161	21705
895.283	21709
895.405	21618
895.526	21736
895.648	21564
895.769	21652
895.891	21637
896.012	21614
896.134	21599
896.255	21622
896.376	21610
896.498	21603
896.619	21614
896.74	21538
896.861	21564
896.982	21915
897.103	21972
897.224	21854
897.345	21766
897.466	21823
897.587	21770
897.708	21937
897.828	21774
897.949	21739
898.07	21679
898.19	21671
898.311	21899
898.431	21797
898.552	21823
898.672	21857
898.792	21823
898.913	21728
899.033	21667
899.153	21709
899.273	21348
899.393	21523
899.513	21504
899.633	21561
899.753	21545
899.873	21348
899.993	21572
900.113	21428
900.232	21485
900.352	21515
900.472	21272
900.591	21214
900.711	21302
900.83	21237
900.95	21374
901.069	21351
901.189	21112
901.308	20948
901.427	20845
901.546	20853
901.665	20937
901.784	20842
901.904	20674
902.023	20549
902.141	20412
902.26	20393
902.379	20393
902.498	20336
902.617	20374
902.735	20313
902.854	20282
902.973	20214
903.091	20050
903.21	19932
903.328	19955
903.446	19837
903.565	19814
903.683	19788
903.801	19696
903.919	19677
904.038	19719
904.156	19696
904.274	19670
904.392	19544
904.51	19483
904.627	19430
904.745	19620
904.863	19677
904.981	19339
905.098	19152
905.216	19240
905.334	19274
905.451	19251
905.569	19202
905.686	19110
905.803	19107
905.921	19034
906.038	19156
906.155	19038
906.272	18871
906.389	19012
906.506	18760
906.623	18715
906.74	18715
906.857	18578
906.974	18669
907.091	18852
907.208	18798
907.324	18684
907.441	18642
907.557	18498
907.674	18376
907.79	18391
907.907	18467
908.023	18399
908.139	18433
908.256	18418
908.372	18254
908.488	18289
908.604	18197
908.72	18148
908.836	18106
908.952	18087
909.068	18194
909.184	18083
909.3	18064
909.415	18209
909.531	18155
909.647	17870
909.762	17851
909.878	17817
909.993	17836
910.108	17851
910.224	17847
910.339	17707
910.454	17672
910.57	17512
910.685	17497
910.8	17912
910.915	17748
911.03	17608
911.145	17364
911.259	17414
911.374	17406
911.489	17265
911.604	17269
911.718	17174
911.833	17086
911.947	17090
912.062	17041
912.176	17204
912.291	17212
912.405	17128
912.519	17345
912.633	17334
912.748	17162
912.862	17086
912.976	16957
913.09	16850
913.204	16976
913.318	16919
913.431	16980
913.545	16995
913.659	17086
913.772	16877
913.886	16725
914	16790
914.113	16839
914.226	16824
914.34	16790
914.453	16645
914.566	16691
914.68	16611
914.793	16558
914.906	16306
915.019	16223
915.132	16230
915.245	16371
915.358	16375
915.47	16268
915.583	16306
915.696	16344
915.809	16497
915.921	16485
916.034	16268
916.146	16105
916.259	16101
916.371	16207
916.483	16093
916.595	16143
916.708	16048
916.82	16090
916.932	15991
917.044	16059
917.156	15983
917.268	15797
917.38	15949
917.491	15880
917.603	15983
917.715	15991
917.826	15937
917.938	15838
918.049	15717
918.161	15892
918.272	15930
918.384	15991
918.495	15759
918.606	15606
918.717	15507
918.828	15633
918.939	15660
919.05	15485
919.161	15500
919.272	15279
919.383	15500
919.494	15667
919.604	15880
919.715	15622
919.826	15473
919.936	15618
920.047	15584
920.157	15564
920.267	15682
920.378	15458
920.488	15519
920.598	15759
920.708	15838
920.818	15701
920.928	15637
921.038	15934
921.148	15842
921.258	15473
921.368	15416
921.477	15294
921.587	15321
921.697	15108
921.806	15344
921.916	15173
922.025	15043
922.134	14876
922.244	14826
922.353	14918
922.462	14838
922.571	14686
922.68	14579
922.789	14587
922.898	14495
923.007	14377
923.116	14629
923.224	14518
923.333	14488
923.442	14301
923.55	14366
923.659	14343
923.767	14389
923.876	14248
923.984	14355
924.092	14233
924.201	14336
924.309	14244
924.417	14278
924.525	14126
924.633	14180
924.741	14990
924.849	13944
924.956	14073
925.064	13913
925.172	13849
925.279	13879
925.387	13868
925.494	13917
925.602	13963
925.709	13860
925.816	13776
925.924	13921
926.031	13951
926.138	13765
926.245	13856
926.352	13761
926.459	13822
926.566	13902
926.673	13772
926.779	13616
926.886	13605
926.993	13525
927.099	13415
927.206	13358
927.312	13491
927.419	13499
927.525	13457
927.631	13354
927.737	13358
927.843	13236
927.95	13065
928.056	13198
928.162	13183
928.267	13301
928.373	13833
928.479	13350
928.585	12985
928.69	13190
928.796	13244
928.901	13019
929.007	12909
929.112	13084
929.218	13000
929.323	12951
929.428	12913
929.533	13080
929.638	12859
929.743	12890
929.848	12924
929.953	12916
930.058	12821
930.163	12589
930.267	12623
930.372	12707
930.477	12536
930.581	12806
930.685	12711
930.79	12441
930.894	12582
930.998	12426
931.103	12574
931.207	12190
931.311	12125
931.415	11999
931.519	11840
931.623	11893
