Data from test_V78500241_307.txt Node
Date: Fri Mar 25 15:43:55 CST 2022
User: usil
Spectrometer: V785-0024
Trigger mode: 0
Integration Time (sec): 4.000000E-1
Scans to average: 1
Nonlinearity correction enabled: false
Boxcar width: 0
Storing dark spectrum: false
XAxis mode: Wavelengths
Number of Pixels in Spectrum: 1024
>>>>>Begin Spectral Data<<<<<
801.071	29718
801.214	29668
801.356	29383
801.499	29330
801.641	29334
801.783	29193
801.926	29337
802.068	29246
802.211	29174
802.353	29075
802.496	28987
802.638	28919
802.78	28847
802.923	28885
803.065	28927
803.208	28828
803.35	28850
803.492	28972
803.635	29166
803.777	29033
803.919	28999
804.061	29303
804.204	29220
804.346	28968
804.488	28953
804.63	29128
804.773	29018
804.915	29231
805.057	29181
805.199	29071
805.341	29231
805.483	29162
805.626	29113
805.768	29204
805.91	29261
806.052	29280
806.194	29113
806.336	29383
806.478	29280
806.62	29197
806.762	29315
806.904	29585
807.046	29687
807.188	29551
807.33	29707
807.472	29767
807.614	29684
807.756	29589
807.898	29539
808.04	29395
808.182	29448
808.324	29516
808.465	29589
808.607	29619
808.749	29893
808.891	29920
809.033	30106
809.174	30007
809.316	29889
809.458	29828
809.6	29794
809.741	29908
809.883	30030
810.025	30083
810.166	30117
810.308	30079
810.45	30152
810.591	30076
810.733	29893
810.875	29794
811.016	29855
811.158	29783
811.299	30079
811.441	30057
811.582	30018
811.724	29843
811.865	29828
812.007	29996
812.148	29847
812.29	30030
812.431	29942
812.573	30106
812.714	30182
812.855	30330
812.997	30532
813.138	30642
813.279	30494
813.421	30410
813.562	30247
813.703	30186
813.845	29992
813.986	29741
814.127	29649
814.268	29497
814.41	29509
814.551	29444
814.692	29604
814.833	29482
814.974	29296
815.115	29592
815.256	29440
815.397	29372
815.539	29277
815.68	29265
815.821	29250
815.962	29246
816.103	29292
816.244	29174
816.385	29010
816.526	28911
816.666	28839
816.807	28809
816.948	28805
817.089	28839
817.23	28949
817.371	28873
817.512	28736
817.653	28843
817.793	28706
817.934	28694
818.075	28793
818.216	28634
818.356	28611
818.497	28634
818.638	28398
818.778	28470
818.919	28470
819.06	28493
819.2	28531
819.341	28824
819.481	28550
819.622	28843
819.762	29086
819.903	28923
820.043	28733
820.184	28809
820.324	28805
820.465	28965
820.605	28881
820.746	28946
820.886	28729
821.026	28824
821.167	28733
821.307	28968
821.447	28573
821.588	28599
821.728	28379
821.868	28287
822.008	28147
822.149	28067
822.289	28124
822.429	27804
822.569	27842
822.709	27861
822.849	27751
822.99	27618
823.13	27515
823.27	27663
823.41	27313
823.55	27397
823.69	27389
823.83	27534
823.97	27374
824.11	27241
824.25	27180
824.389	27237
824.529	27435
824.669	27192
824.809	27355
824.949	27367
825.089	27317
825.228	27207
825.368	27058
825.508	26925
825.648	27081
825.787	27150
825.927	27165
826.067	26933
826.206	27039
826.346	27062
826.485	27062
826.625	27017
826.765	27207
826.904	27047
827.044	26735
827.183	26777
827.323	26712
827.462	26975
827.601	26781
827.741	26830
827.88	26864
828.02	26663
828.159	26720
828.298	26689
828.437	26750
828.577	26644
828.716	26906
828.855	26708
828.994	26613
829.134	26533
829.273	26655
829.412	26518
829.551	26233
829.69	26389
829.829	26358
829.968	26492
830.107	26579
830.246	26412
830.385	26233
830.524	26221
830.663	26164
830.802	26153
830.941	25982
831.08	25959
831.219	26016
831.357	25894
831.496	26218
831.635	26008
831.774	25993
831.913	25811
832.051	25799
832.19	25696
832.329	25974
832.467	25700
832.606	25582
832.744	25605
832.883	25674
833.022	25578
833.16	25693
833.299	25738
833.437	25700
833.576	25632
833.714	25696
833.852	25830
833.991	25651
834.129	25666
834.267	25769
834.406	25712
834.544	25620
834.682	25715
834.821	25613
834.959	25837
835.097	25529
835.235	25700
835.373	25613
835.511	25403
835.65	25430
835.788	25464
835.926	25312
836.064	25445
836.202	25354
836.34	25540
836.478	25575
836.615	25346
836.753	25434
836.891	25529
837.029	25571
837.167	25453
837.305	25422
837.443	25343
837.58	25278
837.718	25434
837.856	25259
837.993	25346
838.131	25289
838.269	25152
838.406	25206
838.544	25133
838.681	25027
838.819	24947
838.956	24825
839.094	24749
839.231	24791
839.369	24825
839.506	25126
839.643	24863
839.781	24688
839.918	24490
840.055	24696
840.193	24582
840.33	24559
840.467	24578
840.604	24719
840.742	24909
840.879	24585
841.016	24642
841.153	24536
841.29	24589
841.427	24616
841.564	24589
841.701	24452
841.838	24601
841.975	24433
842.112	24483
842.249	24372
842.385	24216
842.522	24578
842.659	24418
842.796	24384
842.933	24239
843.069	24285
843.206	24270
843.343	24300
843.479	24281
843.616	24224
843.752	24133
843.889	24106
844.025	24152
844.162	24060
844.298	24129
844.435	24072
844.571	24034
844.708	24091
844.844	24296
844.98	24144
845.117	24072
845.253	24072
845.389	23908
845.525	23958
845.661	23786
845.798	23714
845.934	23821
846.07	23855
846.206	23771
846.342	23916
846.478	23813
846.614	23509
846.75	23326
846.886	23596
847.022	23562
847.158	23516
847.294	23501
847.429	23452
847.565	23493
847.701	23707
847.837	23162
847.972	23143
848.108	23239
848.244	23143
848.379	23124
848.515	23071
848.65	23067
848.786	23033
848.921	23048
849.057	23102
849.192	23185
849.328	23071
849.463	23132
849.598	22965
849.734	22900
849.869	22847
850.004	22877
850.14	22805
850.275	22801
850.41	22710
850.545	22774
850.68	22771
850.815	22850
850.95	22866
851.085	22965
851.22	22984
851.355	22820
851.49	22713
851.625	22843
851.76	22645
851.895	22801
852.03	22630
852.165	22710
852.299	22786
852.434	22820
852.569	22721
852.703	22725
852.838	22862
852.973	22809
853.107	22679
853.242	22668
853.376	22561
853.511	22504
853.645	22512
853.78	22797
853.914	22645
854.048	22481
854.183	22618
854.317	22683
854.451	22607
854.585	22653
854.72	22584
854.854	22626
854.988	22535
855.122	22554
855.256	22478
855.39	22523
855.524	22637
855.658	22626
855.792	22656
855.926	22538
856.06	22641
856.194	22660
856.327	22527
856.461	22664
856.595	22531
856.729	22512
856.862	22626
856.996	22504
857.13	22634
857.263	22634
857.397	22611
857.53	22531
857.664	22694
857.797	22596
857.931	22664
858.064	22603
858.197	22653
858.331	22580
858.464	22424
858.597	22519
858.731	22527
858.864	22485
858.997	22402
859.13	22516
859.263	22527
859.396	22550
859.529	22436
859.662	22466
859.795	22489
859.928	22462
860.061	22672
860.194	22675
860.327	22519
860.46	22436
860.592	22653
860.725	22733
860.858	22660
860.99	22459
861.123	22348
861.256	22424
861.388	22527
861.521	23166
861.653	22360
861.786	22352
861.918	22299
862.05	22504
862.183	22512
862.315	22649
862.447	22580
862.58	22394
862.712	22181
862.844	22158
862.976	22284
863.108	22367
863.24	22809
863.372	22150
863.504	22261
863.636	22173
863.768	22295
863.9	22223
864.032	22097
864.164	22090
864.296	22200
864.428	22306
864.559	22169
864.691	22405
864.823	22139
864.954	22188
865.086	22219
865.217	22105
865.349	22021
865.48	22124
865.612	22143
865.743	22162
865.875	22074
866.006	22048
866.137	21975
866.269	22086
866.4	22188
866.531	22063
866.662	22025
866.793	22040
866.924	22010
867.055	22029
867.186	22086
867.317	22025
867.448	21903
867.579	21945
867.71	21911
867.841	22032
867.972	21937
868.103	21915
868.233	22059
868.364	21987
868.495	22177
868.625	22196
868.756	22306
868.886	22181
869.017	22097
869.147	22333
869.278	22322
869.408	22158
869.539	22234
869.669	22318
869.799	22276
869.929	22318
870.06	22257
870.19	22550
870.32	22394
870.45	22588
870.58	22694
870.71	22889
870.84	22790
870.97	22592
871.1	22664
871.23	22786
871.36	22900
871.489	22698
871.619	22771
871.749	22881
871.879	22980
872.008	22908
872.138	22824
872.267	22961
872.397	22675
872.526	22668
872.656	22698
872.785	22546
872.915	22869
873.044	22953
873.173	22854
873.303	22866
873.432	23006
873.561	22976
873.69	22877
873.819	22858
873.948	22965
874.077	22911
874.206	22736
874.335	22885
874.464	22946
874.593	22995
874.722	23094
874.851	23090
874.979	23094
875.108	23071
875.237	23086
875.365	23010
875.494	22991
875.623	23166
875.751	22995
875.88	23048
876.008	23204
876.136	23254
876.265	23414
876.393	23687
876.521	23455
876.65	23535
876.778	23455
876.906	23497
877.034	23376
877.162	23341
877.29	23372
877.418	23360
877.546	23398
877.674	23417
877.802	23486
877.93	23414
878.058	23421
878.185	23311
878.313	23326
878.441	23505
878.568	23166
878.696	23353
878.824	23482
878.951	23524
879.079	23398
879.206	23680
879.333	23642
879.461	23398
879.588	23531
879.715	23608
879.842	23748
879.97	23429
880.097	23337
880.224	23178
880.351	23254
880.478	23280
880.605	23189
880.732	23284
880.859	23429
880.986	23261
881.112	23296
881.239	23037
881.366	22923
881.493	22911
881.619	22725
881.746	22668
881.872	22710
881.999	22660
882.125	22763
882.252	22862
882.378	22691
882.505	22752
882.631	22561
882.757	22493
882.883	22599
883.01	22542
883.136	22466
883.262	22405
883.388	22299
883.514	22508
883.64	22523
883.766	22402
883.892	22287
884.018	22371
884.143	22409
884.269	22535
884.395	22268
884.52	22029
884.646	22128
884.772	22048
884.897	21983
885.023	22090
885.148	22166
885.274	22234
885.399	22272
885.524	22086
885.65	22135
885.775	22063
885.9	22226
886.025	22234
886.15	22261
886.275	22032
886.4	22002
886.525	21941
886.65	22139
886.775	21994
886.9	22116
887.025	22306
887.149	22112
887.274	21998
887.399	21911
887.523	21831
887.648	21926
887.773	21739
887.897	21926
888.021	21793
888.146	21709
888.27	21895
888.395	21991
888.519	21964
888.643	21736
888.767	21831
888.891	21728
889.015	21663
889.139	21774
889.263	21625
889.387	21705
889.511	21869
889.635	21610
889.759	21690
889.883	21652
890.006	21568
890.13	21694
890.254	21523
890.377	21606
890.501	21428
890.624	21389
890.748	21382
890.871	21294
890.995	21096
891.118	21283
891.241	21123
891.364	21077
891.488	21222
891.611	21093
891.734	21062
891.857	21306
891.98	21184
892.103	21161
892.226	21199
892.349	21131
892.471	20952
892.594	21131
892.717	21127
892.839	21005
892.962	21230
893.085	21138
893.207	21036
893.33	21036
893.452	20990
893.575	21135
893.697	21116
893.819	21135
893.941	21116
894.064	21169
894.186	20937
894.308	20845
894.43	21127
894.552	21176
894.674	21195
894.796	20967
894.918	21020
895.04	20994
895.161	21184
895.283	21005
895.405	20994
895.526	20941
895.648	20979
895.769	21104
895.891	21112
896.012	21180
896.134	21051
896.255	21081
896.376	21024
896.498	21036
896.619	21039
896.74	21089
896.861	21112
896.982	21294
897.103	21542
897.224	21294
897.345	21218
897.466	21214
897.587	21260
897.708	21466
897.828	21291
897.949	21154
898.07	21112
898.19	21108
898.311	21359
898.431	21218
898.552	21245
898.672	21279
898.792	21272
898.913	21131
899.033	21195
899.153	20975
899.273	20842
899.393	20895
899.513	21001
899.633	20925
899.753	20872
899.873	20807
899.993	21039
900.113	20777
900.232	20880
900.352	20830
900.472	20804
900.591	20743
900.711	20834
900.83	20834
900.95	20830
901.069	20830
901.189	20621
901.308	20351
901.427	20324
901.546	20332
901.665	20229
901.784	20278
901.904	20229
902.023	19986
902.141	19868
902.26	19734
902.379	19811
902.498	19940
902.617	19746
902.735	19761
902.854	19769
902.973	19578
903.091	19460
903.21	19472
903.328	19316
903.446	19426
903.565	19304
903.683	19255
903.801	19065
903.919	19152
904.038	19213
904.156	19091
904.274	19046
904.392	18932
904.51	18970
904.627	18981
904.745	19012
904.863	19004
904.981	18829
905.098	18608
905.216	18566
905.334	18757
905.451	18684
905.569	18574
905.686	18661
905.803	18627
905.921	18422
906.038	18509
906.155	18464
906.272	18315
906.389	18330
906.506	18171
906.623	18266
906.74	18152
906.857	18019
906.974	17961
907.091	18224
907.208	18315
907.324	18220
907.441	18076
907.557	17912
907.674	17908
907.79	17710
907.907	17764
908.023	17855
908.139	17794
908.256	17764
908.372	17843
908.488	17775
908.604	17649
908.72	17539
908.836	17551
908.952	17604
909.068	17558
909.184	17699
909.3	17459
909.415	17608
909.531	17532
909.647	17303
909.762	17208
909.878	17162
909.993	17220
910.108	17170
910.224	17159
910.339	17223
910.454	17079
910.57	17048
910.685	16968
910.8	17178
910.915	17128
911.03	16930
911.145	16854
911.259	16873
911.374	16862
911.489	16831
911.604	16774
911.718	16478
911.833	16618
911.947	16519
912.062	16405
912.176	16500
912.291	16634
912.405	16516
912.519	16668
912.633	16687
912.748	16569
912.862	16569
912.976	16390
913.09	16242
913.204	16322
913.318	16455
913.431	16432
913.545	16394
913.659	16485
913.772	16265
913.886	16101
914	16078
914.113	16276
914.226	16257
914.34	16230
914.453	15907
914.566	16162
914.68	16067
914.793	15915
914.906	15827
915.019	15686
915.132	15599
915.245	15747
915.358	15751
915.47	15663
915.583	15804
915.696	15694
915.809	15880
915.921	15751
916.034	15652
916.146	15652
916.259	15549
916.371	15625
916.483	15675
916.595	15595
916.708	15534
916.82	15481
916.932	15492
917.044	15542
917.156	15435
917.268	15313
917.38	15283
917.491	15306
917.603	15325
917.715	15424
917.826	15367
917.938	15272
918.049	15222
918.161	15310
918.272	15397
918.384	15367
918.495	15256
918.606	15108
918.717	15001
918.828	15051
918.939	15093
919.05	14971
919.161	14998
919.272	14906
919.383	14963
919.494	15131
919.604	15222
919.715	14948
919.826	14914
919.936	15009
920.047	15100
920.157	15055
920.267	15199
920.378	15085
920.488	14986
920.598	15302
920.708	15313
920.818	15135
920.928	15104
921.038	15344
921.148	15192
921.258	14876
921.368	14864
921.477	14785
921.587	14792
921.697	14594
921.806	14815
921.916	14450
922.025	14492
922.134	14328
922.244	14374
922.353	14396
922.462	14191
922.571	14126
922.68	14024
922.789	14077
922.898	13955
923.007	13936
923.116	13978
923.224	14001
923.333	13936
923.442	13822
923.55	13795
923.659	13887
923.767	13982
923.876	13746
923.984	13803
924.092	13742
924.201	13795
924.309	13772
924.417	13776
924.525	13605
924.633	13655
924.741	14610
924.849	13449
924.956	13575
925.064	13339
925.172	13358
925.279	13343
925.387	13350
925.494	13346
925.602	13510
925.709	13422
925.816	13282
925.924	13228
926.031	13419
926.138	13285
926.245	13369
926.352	13247
926.459	13331
926.566	13362
926.673	13232
926.779	13103
926.886	13133
926.993	12916
927.099	12958
927.206	12837
927.312	12909
927.419	12993
927.525	12890
927.631	12905
927.737	12844
927.843	12741
927.95	12669
928.056	12749
928.162	12734
928.267	12779
928.373	13438
928.479	12795
928.585	12578
928.69	12722
928.796	12798
928.901	12620
929.007	12422
929.112	12639
929.218	12642
929.323	12399
929.428	12506
929.533	12521
929.638	12414
929.743	12422
929.848	12426
929.953	12353
930.058	12292
930.163	12041
930.267	12136
930.372	12228
930.477	12136
930.581	12300
930.685	12175
930.79	11996
930.894	11988
930.998	11923
931.103	12129
931.207	11767
931.311	11688
931.415	11570
931.519	11368
931.623	11341
