Data from test_V78500241_2357.txt Node
Date: Fri Mar 25 15:58:07 CST 2022
User: usil
Spectrometer: V785-0024
Trigger mode: 0
Integration Time (sec): 4.000000E-1
Scans to average: 1
Nonlinearity correction enabled: false
Boxcar width: 0
Storing dark spectrum: false
XAxis mode: Wavelengths
Number of Pixels in Spectrum: 1024
>>>>>Begin Spectral Data<<<<<
801.071	29064
801.214	28946
801.356	28759
801.499	28634
801.641	28599
801.783	28698
801.926	28569
802.068	28466
802.211	28493
802.353	28527
802.496	28455
802.638	28226
802.78	28185
802.923	28249
803.065	28223
803.208	28276
803.35	28310
803.492	28440
803.635	28462
803.777	28329
803.919	28535
804.061	28934
804.204	28546
804.346	28409
804.488	28348
804.63	28569
804.773	28630
804.915	28694
805.057	28694
805.199	28535
805.341	28569
805.483	28778
805.626	28755
805.768	28626
805.91	28752
806.052	28771
806.194	28580
806.336	28904
806.478	28656
806.62	28622
806.762	28976
806.904	28934
807.046	29261
807.188	29102
807.33	29136
807.472	29090
807.614	29018
807.756	29147
807.898	28877
808.04	28957
808.182	28930
808.324	29037
808.465	29075
808.607	29239
808.749	29349
808.891	29528
809.033	29417
809.174	29452
809.316	29417
809.458	29391
809.6	29216
809.741	29524
809.883	29547
810.025	29771
810.166	29729
810.308	29627
810.45	29608
810.591	29528
810.733	29414
810.875	29261
811.016	29345
811.158	29307
811.299	29444
811.441	29634
811.582	29547
811.724	29459
811.865	29398
812.007	29516
812.148	29406
812.29	29467
812.431	29562
812.573	29630
812.714	29710
812.855	29988
812.997	30091
813.138	30232
813.279	30110
813.421	29927
813.562	29832
813.703	29775
813.845	29668
813.986	29372
814.127	29162
814.268	29079
814.41	29140
814.551	29037
814.692	29223
814.833	28999
814.974	29044
815.115	29060
815.256	29048
815.397	28866
815.539	28900
815.68	29121
815.821	28919
815.962	28873
816.103	28915
816.244	28744
816.385	28790
816.526	28626
816.666	28713
816.807	28508
816.948	28462
817.089	28618
817.23	28459
817.371	28375
817.512	28535
817.653	28421
817.793	28322
817.934	28443
818.075	28432
818.216	28481
818.356	28500
818.497	28375
818.638	28181
818.778	28211
818.919	28181
819.06	28280
819.2	28352
819.341	28424
819.481	28401
819.622	28653
819.762	28752
819.903	28664
820.043	28809
820.184	28687
820.324	28565
820.465	28736
820.605	28717
820.746	28592
820.886	28382
821.026	28569
821.167	28489
821.307	28523
821.447	28413
821.588	28394
821.728	28329
821.868	28188
822.008	28029
822.149	27930
822.289	27914
822.429	27857
822.569	27553
822.709	27622
822.849	27561
822.99	27462
823.13	27317
823.27	27329
823.41	27367
823.55	27138
823.69	27230
823.83	27176
823.97	27245
824.11	27062
824.25	27051
824.389	27066
824.529	27279
824.669	27058
824.809	27241
824.949	27348
825.089	27241
825.228	27241
825.368	27036
825.508	27047
825.648	27055
825.787	27104
825.927	27032
826.067	26895
826.206	27020
826.346	26990
826.485	26979
826.625	27036
826.765	27028
826.904	26929
827.044	26773
827.183	26880
827.323	26796
827.462	26769
827.601	26716
827.741	26754
827.88	26682
828.02	26598
828.159	26746
828.298	26579
828.437	26826
828.577	26575
828.716	26815
828.855	26549
828.994	26370
829.134	26351
829.273	26393
829.412	26461
829.551	26457
829.69	26571
829.829	26492
829.968	26473
830.107	26484
830.246	26370
830.385	26282
830.524	26290
830.663	26206
830.802	26035
830.941	25966
831.08	25883
831.219	26035
831.357	26100
831.496	26259
831.635	25959
831.774	25970
831.913	25803
832.051	25830
832.19	25696
832.329	25837
832.467	25670
832.606	25674
832.744	25772
832.883	25639
833.022	25552
833.16	25696
833.299	25616
833.437	25647
833.576	25875
833.714	25799
833.852	25715
833.991	25822
834.129	25890
834.267	25788
834.406	25772
834.544	25871
834.682	25791
834.821	25769
834.959	25849
835.097	25670
835.235	25742
835.373	25723
835.511	25670
835.65	25495
835.788	25609
835.926	25460
836.064	25396
836.202	25324
836.34	25552
836.478	25643
836.615	25358
836.753	25613
836.891	25594
837.029	25635
837.167	25575
837.305	25491
837.443	25350
837.58	25282
837.718	25449
837.856	25445
837.993	25259
838.131	25381
838.269	25247
838.406	25270
838.544	25152
838.681	24977
838.819	24947
838.956	24882
839.094	24791
839.231	24947
839.369	24973
839.506	25289
839.643	25046
839.781	24863
839.918	24795
840.055	24817
840.193	24821
840.33	24856
840.467	24661
840.604	24768
840.742	25042
840.879	24696
841.016	24749
841.153	24654
841.29	24875
841.427	24700
841.564	24715
841.701	24650
841.838	24684
841.975	24677
842.112	24597
842.249	24547
842.385	24540
842.522	24711
842.659	24563
842.796	24399
842.933	24460
843.069	24509
843.206	24464
843.343	24490
843.479	24448
843.616	24479
843.752	24220
843.889	24213
844.025	24437
844.162	24308
844.298	24319
844.435	24235
844.571	24232
844.708	24235
844.844	24456
844.98	24445
845.117	24346
845.253	24209
845.389	24045
845.525	24095
845.661	24087
845.798	24049
845.934	24182
846.07	24003
846.206	24068
846.342	24068
846.478	24026
846.614	23878
846.75	23695
846.886	23783
847.022	23836
847.158	23710
847.294	23729
847.429	23649
847.565	23547
847.701	23958
847.837	23455
847.972	23509
848.108	23474
848.244	23452
848.379	23269
848.515	23349
848.65	23250
848.786	23368
848.921	23250
849.057	23372
849.192	23383
849.328	23414
849.463	23277
849.598	23162
849.734	23292
849.869	23212
850.004	22923
850.14	23041
850.275	22999
850.41	22919
850.545	22923
850.68	22980
850.815	23124
850.95	23067
851.085	23235
851.22	23075
851.355	23056
851.49	23086
851.625	23037
851.76	23151
851.895	23003
852.03	22820
852.165	23220
852.299	23056
852.434	23037
852.569	22957
852.703	23014
852.838	23109
852.973	23193
853.107	23056
853.242	23143
853.376	22953
853.511	22733
853.645	22748
853.78	22934
853.914	22904
854.048	22801
854.183	22877
854.317	22850
854.451	23136
854.585	22767
854.72	22949
854.854	22934
854.988	22809
855.122	22793
855.256	22752
855.39	22812
855.524	22980
855.658	22911
855.792	22927
855.926	22847
856.06	22896
856.194	22942
856.327	22850
856.461	22786
856.595	22885
856.729	22793
856.862	22976
856.996	22881
857.13	22862
857.263	22946
857.397	22934
857.53	22854
857.664	22881
857.797	22953
857.931	22968
858.064	22938
858.197	23083
858.331	22790
858.464	22793
858.597	22809
858.731	22854
858.864	22847
858.997	22759
859.13	22934
859.263	22801
859.396	23037
859.529	22843
859.662	22763
859.795	22915
859.928	22881
860.061	23113
860.194	23083
860.327	22828
860.46	22877
860.592	22892
860.725	22980
860.858	23033
860.99	22812
861.123	22835
861.256	22934
861.388	22835
861.521	23558
861.653	22778
861.786	22664
861.918	22634
862.05	22748
862.183	22725
862.315	22824
862.447	22847
862.58	22763
862.712	22634
862.844	22729
862.976	22790
863.108	22672
863.24	23056
863.372	22459
863.504	22565
863.636	22588
863.768	22584
863.9	22550
864.032	22535
864.164	22599
864.296	22546
864.428	22683
864.559	22698
864.691	22664
864.823	22554
864.954	22615
865.086	22470
865.217	22405
865.349	22246
865.48	22512
865.612	22394
865.743	22626
865.875	22508
866.006	22417
866.137	22421
866.269	22310
866.4	22424
866.531	22348
866.662	22329
866.793	22363
866.924	22314
867.055	22394
867.186	22432
867.317	22303
867.448	22173
867.579	22348
867.71	22382
867.841	22265
867.972	22348
868.103	22367
868.233	22356
868.364	22470
868.495	22348
868.625	22584
868.756	22774
868.886	22557
869.017	22607
869.147	22656
869.278	22744
869.408	22797
869.539	22592
869.669	22702
869.799	22637
869.929	22698
870.06	22790
870.19	22946
870.32	22999
870.45	22915
870.58	22900
870.71	22908
870.84	23124
870.97	23067
871.1	23140
871.23	23071
871.36	23227
871.489	23265
871.619	23212
871.749	23200
871.879	23181
872.008	23220
872.138	23189
872.267	23208
872.397	23170
872.526	22980
872.656	23075
872.785	23170
872.915	23181
873.044	23341
873.173	23265
873.303	23334
873.432	23356
873.561	23452
873.69	23170
873.819	23220
873.948	23296
874.077	23208
874.206	23204
874.335	23239
874.464	23288
874.593	23459
874.722	23516
874.851	23414
874.979	23440
875.108	23520
875.237	23330
875.365	23376
875.494	23410
875.623	23490
875.751	23497
875.88	23421
876.008	23611
876.136	23573
876.265	23817
876.393	23912
876.521	23878
876.65	23824
876.778	23737
876.906	23783
877.034	23638
877.162	23775
877.29	23714
877.418	23699
877.546	23741
877.674	23790
877.802	23760
877.93	23828
878.058	23638
878.185	23623
878.313	23592
878.441	23775
878.568	23531
878.696	23718
878.824	23733
878.951	23939
879.079	23965
879.206	24102
879.333	23939
879.461	23786
879.588	23836
879.715	23961
879.842	24076
879.97	23859
880.097	23710
880.224	23554
880.351	23600
880.478	23687
880.605	23699
880.732	23482
880.859	23703
880.986	23600
881.112	23649
881.239	23391
881.366	23364
881.493	23315
881.619	23185
881.746	23128
881.872	23239
881.999	23086
882.125	23033
882.252	23166
882.378	23143
882.505	23193
882.631	23079
882.757	22729
882.883	22892
883.01	22949
883.136	22919
883.262	22733
883.388	22664
883.514	22793
883.64	22828
883.766	22763
883.892	22565
884.018	22626
884.143	22790
884.269	22752
884.395	22500
884.52	22413
884.646	22470
884.772	22360
884.897	22390
885.023	22516
885.148	22436
885.274	22596
885.399	22577
885.524	22500
885.65	22493
885.775	22424
885.9	22352
886.025	22637
886.15	22508
886.275	22516
886.4	22329
886.525	22257
886.65	22367
886.775	22428
886.9	22546
887.025	22615
887.149	22295
887.274	22253
887.399	22166
887.523	22185
887.648	22265
887.773	22143
887.897	22291
888.021	22299
888.146	22177
888.27	22257
888.395	22280
888.519	22219
888.643	22291
888.767	22211
888.891	22051
889.015	21975
889.139	22063
889.263	22074
889.387	22074
889.511	22162
889.635	22112
889.759	22029
889.883	22025
890.006	21892
890.13	22070
890.254	21937
890.377	21850
890.501	21732
890.624	21713
890.748	21751
890.871	21591
890.995	21542
891.118	21477
891.241	21549
891.364	21553
891.488	21641
891.611	21564
891.734	21572
891.857	21549
891.98	21549
892.103	21492
892.226	21355
892.349	21477
892.471	21462
892.594	21424
892.717	21481
892.839	21447
892.962	21363
893.085	21488
893.207	21481
893.33	21329
893.452	21408
893.575	21454
893.697	21466
893.819	21538
893.941	21553
894.064	21561
894.186	21382
894.308	21355
894.43	21431
894.552	21454
894.674	21344
894.796	21268
894.918	21374
895.04	21268
895.161	21420
895.283	21245
895.405	21420
895.526	21389
895.648	21298
895.769	21416
895.891	21351
896.012	21530
896.134	21386
896.255	21511
896.376	21302
896.498	21424
896.619	21526
896.74	21424
896.861	21477
896.982	21644
897.103	21865
897.224	21614
897.345	21561
897.466	21477
897.587	21496
897.708	21698
897.828	21629
897.949	21549
898.07	21386
898.19	21603
898.311	21694
898.431	21629
898.552	21583
898.672	21610
898.792	21633
898.913	21644
899.033	21515
899.153	21363
899.273	21325
899.393	21325
899.513	21355
899.633	21268
899.753	21241
899.873	21199
899.993	21317
900.113	21317
900.232	21279
900.352	21108
900.472	21195
900.591	20975
900.711	21070
900.83	20971
900.95	21161
901.069	21100
901.189	21028
901.308	20716
901.427	20640
901.546	20678
901.665	20686
901.784	20579
901.904	20412
902.023	20374
902.141	20286
902.26	20172
902.379	20214
902.498	20202
902.617	20107
902.735	20130
902.854	20039
902.973	20031
903.091	19894
903.21	19715
903.328	19814
903.446	19700
903.565	19457
903.683	19635
903.801	19480
903.919	19510
904.038	19457
904.156	19327
904.274	19445
904.392	19236
904.51	19270
904.627	19365
904.745	19392
904.863	19453
904.981	19141
905.098	19027
905.216	19084
905.334	19080
905.451	18970
905.569	19015
905.686	19046
905.803	18954
905.921	18741
906.038	18825
906.155	18810
906.272	18673
906.389	18719
906.506	18544
906.623	18525
906.74	18467
906.857	18467
906.974	18418
907.091	18582
907.208	18574
907.324	18517
907.441	18410
907.557	18266
907.674	18323
907.79	18186
907.907	18239
908.023	18182
908.139	18239
908.256	18087
908.372	18038
908.488	18106
908.604	17969
908.72	17942
908.836	17946
908.952	17954
909.068	17904
909.184	18064
909.3	18015
909.415	17923
909.531	17866
909.647	17581
909.762	17665
909.878	17573
909.993	17535
910.108	17630
910.224	17665
910.339	17687
910.454	17524
910.57	17410
910.685	17379
910.8	17676
910.915	17592
911.03	17379
911.145	17288
911.259	17170
911.374	17296
911.489	17174
911.604	17212
911.718	16984
911.833	16930
911.947	16854
912.062	16790
912.176	16900
912.291	16968
912.405	16953
912.519	17280
912.633	17105
912.748	16915
912.862	16957
912.976	16778
913.09	16687
913.204	16615
913.318	16740
913.431	16900
913.545	16812
913.659	16820
913.772	16755
913.886	16584
914	16538
914.113	16607
914.226	16664
914.34	16565
914.453	16474
914.566	16626
914.68	16421
914.793	16440
914.906	16204
915.019	16150
915.132	16055
915.245	16112
915.358	16192
915.47	16135
915.583	16169
915.696	16135
915.809	16177
915.921	16284
916.034	16078
916.146	16105
916.259	16063
916.371	16055
916.483	15956
916.595	16013
916.708	15930
916.82	15972
916.932	15835
917.044	15987
917.156	15869
917.268	15835
917.38	15793
917.491	15686
917.603	15865
917.715	15831
917.826	15785
917.938	15720
918.049	15633
918.161	15656
918.272	15892
918.384	15835
918.495	15675
918.606	15572
918.717	15416
918.828	15469
918.939	15545
919.05	15431
919.161	15561
919.272	15332
919.383	15317
919.494	15606
919.604	15717
919.715	15416
919.826	15348
919.936	15435
920.047	15584
920.157	15431
920.267	15557
920.378	15412
920.488	15420
920.598	15595
920.708	15804
920.818	15564
920.928	15568
921.038	15751
921.148	15690
921.258	15348
921.368	15310
921.477	15218
921.587	15195
921.697	15043
921.806	15138
921.916	15043
922.025	14804
922.134	14655
922.244	14743
922.353	14762
922.462	14670
922.571	14621
922.68	14347
922.789	14404
922.898	14473
923.007	14347
923.116	14484
923.224	14404
923.333	14366
923.442	14362
923.55	14271
923.659	14271
923.767	14400
923.876	14206
923.984	14214
924.092	14062
924.201	14161
924.309	14206
924.417	14088
924.525	14088
924.633	14027
924.741	15017
924.849	13807
924.956	13982
925.064	13860
925.172	13761
925.279	13742
925.387	13841
925.494	13757
925.602	13841
925.709	13860
925.816	13643
925.924	13788
926.031	13765
926.138	13753
926.245	13769
926.352	13567
926.459	13719
926.566	13746
926.673	13647
926.779	13548
926.886	13548
926.993	13381
927.099	13320
927.206	13259
927.312	13263
927.419	13331
927.525	13369
927.631	13396
927.737	13209
927.843	13103
927.95	13046
928.056	13133
928.162	13228
928.267	13095
928.373	13830
928.479	13168
928.585	12970
928.69	13183
928.796	13099
928.901	13069
929.007	12837
929.112	12966
929.218	12958
929.323	12821
929.428	12829
929.533	12966
929.638	12875
929.743	12772
929.848	12894
929.953	12738
930.058	12665
930.163	12494
930.267	12544
930.372	12684
930.477	12494
930.581	12673
930.685	12597
930.79	12376
930.894	12391
930.998	12395
931.103	12433
931.207	12106
931.311	12003
931.415	11889
931.519	11771
931.623	11798
