Data from test_V78500241_1125.txt Node
Date: Fri Mar 25 15:49:35 CST 2022
User: usil
Spectrometer: V785-0024
Trigger mode: 0
Integration Time (sec): 4.000000E-1
Scans to average: 1
Nonlinearity correction enabled: false
Boxcar width: 0
Storing dark spectrum: false
XAxis mode: Wavelengths
Number of Pixels in Spectrum: 1024
>>>>>Begin Spectral Data<<<<<
801.071	28744
801.214	28740
801.356	28573
801.499	28531
801.641	28207
801.783	28417
801.926	28466
802.068	28432
802.211	28215
802.353	28329
802.496	28120
802.638	28112
802.78	27937
802.923	27998
803.065	27949
803.208	27888
803.35	28116
803.492	28207
803.635	28276
803.777	28211
803.919	28226
804.061	28637
804.204	28310
804.346	28192
804.488	28215
804.63	28196
804.773	28230
804.915	28257
805.057	28405
805.199	28192
805.341	28287
805.483	28474
805.626	28512
805.768	28417
805.91	28497
806.052	28516
806.194	28398
806.336	28649
806.478	28462
806.62	28462
806.762	28588
806.904	28835
807.046	28930
807.188	28816
807.33	28892
807.472	28949
807.614	28809
807.756	28801
807.898	28759
808.04	28641
808.182	28729
808.324	28744
808.465	28930
808.607	29025
808.749	29162
808.891	29273
809.033	29349
809.174	29140
809.316	29090
809.458	29166
809.6	29067
809.741	29307
809.883	29269
810.025	29402
810.166	29474
810.308	29482
810.45	29288
810.591	29463
810.733	29239
810.875	29162
811.016	29033
811.158	29079
811.299	29444
811.441	29296
811.582	29280
811.724	29147
811.865	29189
812.007	29200
812.148	29212
812.29	29273
812.431	29356
812.573	29410
812.714	29497
812.855	29783
812.997	29752
813.138	29920
813.279	29866
813.421	29745
813.562	29596
813.703	29520
813.845	29452
813.986	29128
814.127	28980
814.268	28843
814.41	28991
814.551	28812
814.692	29037
814.833	28961
814.974	28771
815.115	28782
815.256	28725
815.397	28694
815.539	28850
815.68	28687
815.821	28588
815.962	28755
816.103	28694
816.244	28580
816.385	28508
816.526	28459
816.666	28360
816.807	28185
816.948	28341
817.089	28310
817.23	28314
817.371	28291
817.512	28284
817.653	28211
817.793	28188
817.934	28303
818.075	28139
818.216	28310
818.356	28169
818.497	28173
818.638	27857
818.778	28032
818.919	27941
819.06	28063
819.2	28166
819.341	28230
819.481	28074
819.622	28436
819.762	28653
819.903	28554
820.043	28409
820.184	28424
820.324	28272
820.465	28367
820.605	28424
820.746	28272
820.886	28230
821.026	28287
821.167	28325
821.307	28440
821.447	28188
821.588	28177
821.728	27888
821.868	27812
822.008	27800
822.149	27690
822.289	27804
822.429	27389
822.569	27458
822.709	27507
822.849	27241
822.99	27192
823.13	27169
823.27	27085
823.41	27013
823.55	26921
823.69	27096
823.83	27043
823.97	26960
824.11	26796
824.25	26887
824.389	26956
824.529	27081
824.669	26895
824.809	26960
824.949	26883
825.089	26990
825.228	27051
825.368	26701
825.508	26811
825.648	26743
825.787	26979
825.927	26826
826.067	26697
826.206	26739
826.346	26739
826.485	26876
826.625	26693
826.765	26937
826.904	26785
827.044	26507
827.183	26492
827.323	26434
827.462	26560
827.601	26537
827.741	26518
827.88	26518
828.02	26294
828.159	26549
828.298	26434
828.437	26530
828.577	26488
828.716	26537
828.855	26400
828.994	26164
829.134	26240
829.273	26176
829.412	26084
829.551	26168
829.69	26164
829.829	26305
829.968	26263
830.107	26233
830.246	26187
830.385	26020
830.524	26111
830.663	25997
830.802	25803
830.941	25700
831.08	25795
831.219	25849
831.357	25875
831.496	25997
831.635	25757
831.774	25677
831.913	25677
832.051	25700
832.19	25635
832.329	25460
832.467	25464
832.606	25476
832.744	25350
832.883	25495
833.022	25373
833.16	25430
833.299	25449
833.437	25502
833.576	25540
833.714	25491
833.852	25533
833.991	25723
834.129	25639
834.267	25453
834.406	25434
834.544	25502
834.682	25422
834.821	25396
834.959	25578
835.097	25438
835.235	25506
835.373	25525
835.511	25400
835.65	25343
835.788	25244
835.926	25289
836.064	25122
836.202	25179
836.34	25400
836.478	25438
836.615	25168
836.753	25289
836.891	25381
837.029	25228
837.167	25266
837.305	25095
837.443	25137
837.58	25213
837.718	25251
837.856	25175
837.993	25031
838.131	25129
838.269	25122
838.406	25091
838.544	24859
838.681	24878
838.819	24829
838.956	24745
839.094	24563
839.231	24623
839.369	24787
839.506	24920
839.643	24852
839.781	24521
839.918	24582
840.055	24612
840.193	24646
840.33	24585
840.467	24525
840.604	24608
840.742	24882
840.879	24471
841.016	24407
841.153	24334
841.29	24585
841.427	24311
841.564	24471
841.701	24505
841.838	24513
841.975	24467
842.112	24426
842.249	24365
842.385	24270
842.522	24559
842.659	24319
842.796	24277
842.933	24251
843.069	24194
843.206	24300
843.343	24270
843.479	24289
843.616	24144
843.752	23965
843.889	24015
844.025	24289
844.162	24125
844.298	24091
844.435	24030
844.571	23973
844.708	24057
844.844	24270
844.98	24136
845.117	24129
845.253	23980
845.389	23813
845.525	23901
845.661	23885
845.798	23885
845.934	23809
846.07	23798
846.206	23760
846.342	23786
846.478	23676
846.614	23577
846.75	23467
846.886	23448
847.022	23543
847.158	23429
847.294	23478
847.429	23512
847.565	23570
847.701	23760
847.837	23178
847.972	23216
848.108	23189
848.244	23242
848.379	23086
848.515	23014
848.65	23132
848.786	23094
848.921	23067
849.057	23227
849.192	23212
849.328	23185
849.463	23132
849.598	23033
849.734	22965
849.869	23044
850.004	22892
850.14	22831
850.275	22881
850.41	22634
850.545	22801
850.68	22771
850.815	22778
850.95	22729
851.085	23071
851.22	22938
851.355	22839
851.49	22797
851.625	22889
851.76	22717
851.895	22744
852.03	22854
852.165	22930
852.299	22946
852.434	22972
852.569	22748
852.703	22793
852.838	22774
852.973	23003
853.107	22915
853.242	22858
853.376	22744
853.511	22603
853.645	22797
853.78	22721
853.914	22588
854.048	22683
854.183	22679
854.317	22698
854.451	22771
854.585	22618
854.72	22721
854.854	22740
854.988	22656
855.122	22672
855.256	22531
855.39	22653
855.524	22721
855.658	22713
855.792	22554
855.926	22668
856.06	22687
856.194	22664
856.327	22580
856.461	22523
856.595	22603
856.729	22516
856.862	22771
856.996	22824
857.13	22748
857.263	22820
857.397	22752
857.53	22504
857.664	22660
857.797	22729
857.931	22752
858.064	22660
858.197	22706
858.331	22561
858.464	22592
858.597	22641
858.731	22664
858.864	22687
858.997	22668
859.13	22672
859.263	22763
859.396	22774
859.529	22660
859.662	22824
859.795	22569
859.928	22752
860.061	22805
860.194	22812
860.327	22729
860.46	22733
860.592	22592
860.725	22805
860.858	22748
860.99	22774
861.123	22596
861.256	22702
861.388	22786
861.521	23474
861.653	22360
861.786	22371
861.918	22363
862.05	22573
862.183	22626
862.315	22634
862.447	22729
862.58	22660
862.712	22432
862.844	22409
862.976	22405
863.108	22394
863.24	22896
863.372	22344
863.504	22310
863.636	22421
863.768	22295
863.9	22348
864.032	22219
864.164	22268
864.296	22424
864.428	22451
864.559	22379
864.691	22489
864.823	22265
864.954	22230
865.086	22322
865.217	22204
865.349	22143
865.48	22261
865.612	22284
865.743	22348
865.875	22246
866.006	22200
866.137	22166
866.269	22215
866.4	22257
866.531	22181
866.662	22112
866.793	22154
866.924	22188
867.055	22177
867.186	22162
867.317	22109
867.448	22166
867.579	22154
867.71	22002
867.841	22188
867.972	22181
868.103	22188
868.233	22185
868.364	22143
868.495	22249
868.625	22405
868.756	22512
868.886	22246
869.017	22390
869.147	22489
869.278	22497
869.408	22337
869.539	22226
869.669	22508
869.799	22474
869.929	22535
870.06	22421
870.19	22592
870.32	22694
870.45	22782
870.58	22691
870.71	22896
870.84	22850
870.97	22752
871.1	22892
871.23	22942
871.36	22980
871.489	22892
871.619	23037
871.749	23018
871.879	23052
872.008	23048
872.138	22812
872.267	23105
872.397	22877
872.526	22908
872.656	22843
872.785	22713
872.915	23094
873.044	23166
873.173	22972
873.303	22987
873.432	23037
873.561	23159
873.69	22946
873.819	23060
873.948	23079
874.077	22984
874.206	22999
874.335	23003
874.464	23090
874.593	23223
874.722	23204
874.851	23303
874.979	23185
875.108	23178
875.237	23132
875.365	23113
875.494	23235
875.623	23204
875.751	23121
875.88	23143
876.008	23311
876.136	23452
876.265	23657
876.393	23726
876.521	23638
876.65	23745
876.778	23589
876.906	23604
877.034	23505
877.162	23490
877.29	23562
877.418	23512
877.546	23539
877.674	23554
877.802	23566
877.93	23630
878.058	23490
878.185	23512
878.313	23543
878.441	23463
878.568	23341
878.696	23482
878.824	23520
878.951	23619
879.079	23729
879.206	23889
879.333	23805
879.461	23672
879.588	23615
879.715	23760
879.842	23920
879.97	23562
880.097	23402
880.224	23486
880.351	23425
880.478	23398
880.605	23322
880.732	23429
880.859	23668
880.986	23296
881.112	23474
881.239	23223
881.366	23041
881.493	23143
881.619	22995
881.746	22968
881.872	22923
881.999	22873
882.125	22782
882.252	22892
882.378	22801
882.505	22976
882.631	22786
882.757	22694
882.883	22599
883.01	22717
883.136	22584
883.262	22497
883.388	22512
883.514	22554
883.64	22664
883.766	22527
883.892	22402
884.018	22394
884.143	22512
884.269	22603
884.395	22314
884.52	22207
884.646	22234
884.772	22196
884.897	22139
885.023	22226
885.148	22352
885.274	22341
885.399	22291
885.524	22223
885.65	22215
885.775	22246
885.9	22120
886.025	22424
886.15	22333
886.275	22272
886.4	22124
886.525	22173
886.65	22226
886.775	22013
886.9	22356
887.025	22409
887.149	22169
887.274	22051
887.399	22093
887.523	22082
887.648	21968
887.773	21937
887.897	22070
888.021	22006
888.146	21781
888.27	22082
888.395	22147
888.519	21903
888.643	22055
888.767	22010
888.891	21926
889.015	21739
889.139	21766
889.263	21736
889.387	21903
889.511	21937
889.635	21899
889.759	21766
889.883	21709
890.006	21804
890.13	21915
890.254	21648
890.377	21614
890.501	21477
890.624	21454
890.748	21557
890.871	21382
890.995	21264
891.118	21241
891.241	21294
891.364	21355
891.488	21443
891.611	21382
891.734	21424
891.857	21359
891.98	21287
892.103	21504
892.226	21264
892.349	21355
892.471	21161
892.594	21241
892.717	21279
892.839	21233
892.962	21283
893.085	21214
893.207	21150
893.33	21100
893.452	21195
893.575	21173
893.697	21142
893.819	21367
893.941	21336
894.064	21298
894.186	21138
894.308	21100
894.43	21298
894.552	21367
894.674	21287
894.796	21062
894.918	21138
895.04	21146
895.161	21226
895.283	21272
895.405	21062
895.526	21138
895.648	21188
895.769	21180
895.891	21169
896.012	21264
896.134	21218
896.255	21249
896.376	21100
896.498	21085
896.619	21237
896.74	21070
896.861	21214
896.982	21526
897.103	21625
897.224	21458
897.345	21454
897.466	21291
897.587	21439
897.708	21526
897.828	21428
897.949	21351
898.07	21233
898.19	21272
898.311	21424
898.431	21207
898.552	21359
898.672	21332
898.792	21401
898.913	21344
899.033	21203
899.153	21287
899.273	21070
899.393	21119
899.513	21131
899.633	21024
899.753	21074
899.873	21017
899.993	21173
900.113	21028
900.232	21013
900.352	21100
900.472	20918
900.591	20963
900.711	20925
900.83	20910
900.95	20902
901.069	21005
901.189	20731
901.308	20431
901.427	20423
901.546	20446
901.665	20598
901.784	20461
901.904	20294
902.023	20187
902.141	19974
902.26	19856
902.379	19940
902.498	19940
902.617	19841
902.735	19986
902.854	19841
902.973	19795
903.091	19685
903.21	19639
903.328	19601
903.446	19407
903.565	19365
903.683	19426
903.801	19278
903.919	19354
904.038	19400
904.156	19103
904.274	19240
904.392	19168
904.51	19148
904.627	19072
904.745	19228
904.863	19187
904.981	19088
905.098	18894
905.216	18875
905.334	18882
905.451	18901
905.569	18764
905.686	18859
905.803	18791
905.921	18589
906.038	18646
906.155	18677
906.272	18551
906.389	18555
906.506	18410
906.623	18490
906.74	18304
906.857	18163
906.974	18296
907.091	18380
907.208	18407
907.324	18365
907.441	18239
907.557	18098
907.674	18117
907.79	18011
907.907	18064
908.023	18114
908.139	18038
908.256	17977
908.372	17950
908.488	18038
908.604	17889
908.72	17775
908.836	17764
908.952	17619
909.068	17790
909.184	17817
909.3	17813
909.415	17817
909.531	17745
909.647	17562
909.762	17516
909.878	17524
909.993	17493
910.108	17505
910.224	17467
910.339	17543
910.454	17185
910.57	17261
910.685	17147
910.8	17478
910.915	17379
911.03	17311
911.145	17193
911.259	17117
911.374	17022
911.489	16942
911.604	16961
911.718	16809
911.833	16854
911.947	16607
912.062	16603
912.176	16748
912.291	16793
912.405	16752
912.519	16862
912.633	16942
912.748	16805
912.862	16630
912.976	16580
913.09	16440
913.204	16546
913.318	16588
913.431	16752
913.545	16656
913.659	16607
913.772	16504
913.886	16348
914	16390
914.113	16402
914.226	16451
914.34	16375
914.453	16284
914.566	16341
914.68	16295
914.793	16173
914.906	16013
915.019	16013
915.132	15983
915.245	15869
915.358	16044
915.47	16002
915.583	15983
915.696	15972
915.809	16067
915.921	16029
916.034	15915
916.146	15705
916.259	15762
916.371	15934
916.483	15975
916.595	15747
916.708	15755
916.82	15751
916.932	15728
917.044	15717
917.156	15675
917.268	15492
917.38	15576
917.491	15587
917.603	15625
917.715	15637
917.826	15667
917.938	15511
918.049	15386
918.161	15572
918.272	15641
918.384	15644
918.495	15458
918.606	15393
918.717	15340
918.828	15321
918.939	15355
919.05	15203
919.161	15256
919.272	15180
919.383	15104
919.494	15363
919.604	15542
919.715	15348
919.826	15195
919.936	15336
920.047	15245
920.157	15363
920.267	15450
920.378	15283
920.488	15226
920.598	15462
920.708	15675
920.818	15443
920.928	15420
921.038	15545
921.148	15542
921.258	15199
921.368	15119
921.477	14899
921.587	14948
921.697	14853
921.806	15017
921.916	14788
922.025	14686
922.134	14663
922.244	14682
922.353	14708
922.462	14530
922.571	14355
922.68	14294
922.789	14275
922.898	14263
923.007	14142
923.116	14282
923.224	14240
923.333	14187
923.442	14092
923.55	14081
923.659	14092
923.767	14202
923.876	14020
923.984	13997
924.092	13921
924.201	14050
924.309	13894
924.417	14039
924.525	13917
924.633	13871
924.741	14670
924.849	13651
924.956	13841
925.064	13685
925.172	13559
925.279	13559
925.387	13605
925.494	13601
925.602	13833
925.709	13712
925.816	13495
925.924	13571
926.031	13590
926.138	13590
926.245	13616
926.352	13415
926.459	13544
926.566	13609
926.673	13499
926.779	13346
926.886	13403
926.993	13156
927.099	13213
927.206	13126
927.312	13110
927.419	13149
927.525	13088
927.631	13156
927.737	13004
927.843	13080
927.95	12962
928.056	12993
928.162	12989
928.267	13038
928.373	13487
928.479	13118
928.585	12798
928.69	12882
928.796	12935
928.901	12852
929.007	12711
929.112	12837
929.218	12722
929.323	12745
929.428	12650
929.533	12894
929.638	12582
929.743	12673
929.848	12677
929.953	12597
930.058	12467
930.163	12338
930.267	12464
930.372	12563
930.477	12308
930.581	12547
930.685	12403
930.79	12277
930.894	12251
930.998	12277
931.103	12372
931.207	11984
931.311	11973
931.415	11847
931.519	11665
931.623	11581
