Data from test_V78500241_1136.txt Node
Date: Fri Mar 25 15:49:40 CST 2022
User: usil
Spectrometer: V785-0024
Trigger mode: 0
Integration Time (sec): 4.000000E-1
Scans to average: 1
Nonlinearity correction enabled: false
Boxcar width: 0
Storing dark spectrum: false
XAxis mode: Wavelengths
Number of Pixels in Spectrum: 1024
>>>>>Begin Spectral Data<<<<<
801.071	28154
801.214	28139
801.356	27880
801.499	27846
801.641	27599
801.783	27591
801.926	27633
802.068	27610
802.211	27648
802.353	27542
802.496	27374
802.638	27370
802.78	27367
802.923	27313
803.065	27359
803.208	27180
803.35	27317
803.492	27382
803.635	27663
803.777	27359
803.919	27458
804.061	27785
804.204	27614
804.346	27374
804.488	27321
804.63	27507
804.773	27408
804.915	27599
805.057	27572
805.199	27485
805.341	27705
805.483	27644
805.626	27785
805.768	27622
805.91	27663
806.052	27698
806.194	27545
806.336	27827
806.478	27743
806.62	27739
806.762	27892
806.904	28059
807.046	28173
807.188	28120
807.33	28211
807.472	28257
807.614	28112
807.756	28131
807.898	27926
808.04	27949
808.182	27720
808.324	27934
808.465	28002
808.607	28158
808.749	28443
808.891	28390
809.033	28462
809.174	28455
809.316	28363
809.458	28386
809.6	28318
809.741	28478
809.883	28603
810.025	28550
810.166	28580
810.308	28698
810.45	28675
810.591	28580
810.733	28253
810.875	28322
811.016	28310
811.158	28276
811.299	28504
811.441	28573
811.582	28527
811.724	28405
811.865	28329
812.007	28280
812.148	28322
812.29	28344
812.431	28478
812.573	28733
812.714	28782
812.855	28831
812.997	28873
813.138	29166
813.279	28942
813.421	28927
813.562	28927
813.703	28752
813.845	28527
813.986	28238
814.127	28230
814.268	28051
814.41	28067
814.551	28017
814.692	28200
814.833	27945
814.974	27987
815.115	28032
815.256	27930
815.397	27838
815.539	27854
815.68	27778
815.821	27789
815.962	27827
816.103	27816
816.244	27667
816.385	27709
816.526	27633
816.666	27427
816.807	27260
816.948	27382
817.089	27469
817.23	27382
817.371	27374
817.512	27317
817.653	27405
817.793	27260
817.934	27275
818.075	27279
818.216	27401
818.356	27264
818.497	27157
818.638	26963
818.778	27104
818.919	27028
819.06	27313
819.2	27188
819.341	27192
819.481	27302
819.622	27466
819.762	27728
819.903	27561
820.043	27481
820.184	27507
820.324	27469
820.465	27408
820.605	27397
820.746	27374
820.886	27291
821.026	27389
821.167	27439
821.307	27435
821.447	27283
821.588	27230
821.728	27237
821.868	26956
822.008	26811
822.149	26689
822.289	26758
822.429	26560
822.569	26606
822.709	26518
822.849	26419
822.99	26358
823.13	26252
823.27	26244
823.41	26218
823.55	26168
823.69	26122
823.83	26111
823.97	26054
824.11	25963
824.25	26005
824.389	26065
824.529	26092
824.669	26031
824.809	26134
824.949	26111
825.089	25982
825.228	26031
825.368	26016
825.508	25894
825.648	25780
825.787	25978
825.927	25864
826.067	25807
826.206	25807
826.346	25963
826.485	25830
826.625	25932
826.765	26081
826.904	25811
827.044	25529
827.183	25651
827.323	25556
827.462	25578
827.601	25632
827.741	25674
827.88	25700
828.02	25479
828.159	25578
828.298	25685
828.437	25662
828.577	25434
828.716	25670
828.855	25392
828.994	25297
829.134	25335
829.273	25232
829.412	25259
829.551	25225
829.69	25339
829.829	25263
829.968	25415
830.107	25411
830.246	25312
830.385	25145
830.524	25221
830.663	25031
830.802	25023
830.941	24677
831.08	24787
831.219	24962
831.357	24989
831.496	24989
831.635	24913
831.774	24795
831.913	24688
832.051	24715
832.19	24681
832.329	24749
832.467	24566
832.606	24597
832.744	24574
832.883	24456
833.022	24502
833.16	24433
833.299	24692
833.437	24544
833.576	24490
833.714	24509
833.852	24776
833.991	24597
834.129	24578
834.267	24612
834.406	24642
834.544	24642
834.682	24593
834.821	24578
834.959	24863
835.097	24570
835.235	24517
835.373	24540
835.511	24414
835.65	24433
835.788	24509
835.926	24350
836.064	24182
836.202	24262
836.34	24353
836.478	24365
836.615	24460
836.753	24509
836.891	24490
837.029	24365
837.167	24304
837.305	24418
837.443	24277
837.58	24148
837.718	24315
837.856	24270
837.993	24224
838.131	24201
838.269	24117
838.406	24205
838.544	24148
838.681	23992
838.819	23904
838.956	23718
839.094	23832
839.231	23783
839.369	23855
839.506	24163
839.643	23889
839.781	23638
839.918	23619
840.055	23710
840.193	23687
840.33	23627
840.467	23703
840.604	23699
840.742	24011
840.879	23623
841.016	23589
841.153	23585
841.29	23748
841.427	23630
841.564	23615
841.701	23562
841.838	23608
841.975	23497
842.112	23585
842.249	23440
842.385	23296
842.522	23661
842.659	23486
842.796	23299
842.933	23398
843.069	23322
843.206	23402
843.343	23421
843.479	23448
843.616	23421
843.752	23162
843.889	23075
844.025	23231
844.162	23109
844.298	23197
844.435	23124
844.571	23056
844.708	23140
844.844	23315
844.98	23288
845.117	23231
845.253	23140
845.389	23132
845.525	23022
845.661	23014
845.798	22911
845.934	22953
846.07	22892
846.206	22889
846.342	23105
846.478	22877
846.614	22618
846.75	22668
846.886	22713
847.022	22691
847.158	22516
847.294	22626
847.429	22550
847.565	22656
847.701	22877
847.837	22344
847.972	22329
848.108	22478
848.244	22523
848.379	22314
848.515	22322
848.65	22196
848.786	22238
848.921	22219
849.057	22211
849.192	22272
849.328	22329
849.463	22162
849.598	22196
849.734	22093
849.869	22105
850.004	22055
850.14	21865
850.275	22051
850.41	22021
850.545	21930
850.68	21979
850.815	22051
850.95	21964
851.085	22223
851.22	22010
851.355	21972
851.49	21922
851.625	22044
851.76	21991
851.895	21831
852.03	21888
852.165	22029
852.299	21918
852.434	21991
852.569	21937
852.703	21964
852.838	22025
852.973	22048
853.107	22086
853.242	21926
853.376	21751
853.511	21827
853.645	21835
853.78	22002
853.914	21888
854.048	21694
854.183	21827
854.317	21873
854.451	22010
854.585	21705
854.72	21705
854.854	21911
854.988	21751
855.122	21778
855.256	21603
855.39	21667
855.524	21991
855.658	21922
855.792	21869
855.926	21854
856.06	21766
856.194	21857
856.327	21720
856.461	21797
856.595	21743
856.729	21774
856.862	21941
856.996	21865
857.13	21819
857.263	21884
857.397	21972
857.53	21823
857.664	21743
857.797	21823
857.931	21835
858.064	21736
858.197	21789
858.331	21816
858.464	21759
858.597	21671
858.731	21720
858.864	21739
858.997	21759
859.13	21823
859.263	21915
859.396	21880
859.529	21812
859.662	21713
859.795	21823
859.928	21816
860.061	21903
860.194	21994
860.327	21797
860.46	21819
860.592	21926
860.725	21857
860.858	22006
860.99	21926
861.123	21717
861.256	21770
861.388	21675
861.521	22474
861.653	21622
861.786	21576
861.918	21610
862.05	21610
862.183	21671
862.315	21755
862.447	21781
862.58	21755
862.712	21477
862.844	21420
862.976	21656
863.108	21454
863.24	21930
863.372	21302
863.504	21454
863.636	21454
863.768	21595
863.9	21595
864.032	21408
864.164	21542
864.296	21378
864.428	21724
864.559	21587
864.691	21606
864.823	21660
864.954	21515
865.086	21477
865.217	21538
865.349	21416
865.48	21336
865.612	21477
865.743	21488
865.875	21351
866.006	21389
866.137	21401
866.269	21401
866.4	21389
866.531	21488
866.662	21211
866.793	21378
866.924	21351
867.055	21450
867.186	21336
867.317	21382
867.448	21233
867.579	21325
867.71	21123
867.841	21268
867.972	21355
868.103	21313
868.233	21279
868.364	21313
868.495	21359
868.625	21625
868.756	21667
868.886	21610
869.017	21595
869.147	21743
869.278	21591
869.408	21637
869.539	21454
869.669	21614
869.799	21622
869.929	21614
870.06	21629
870.19	21888
870.32	22013
870.45	21903
870.58	21926
870.71	22036
870.84	22131
870.97	21926
871.1	21934
871.23	22162
871.36	22154
871.489	22010
871.619	22082
871.749	22116
871.879	22249
872.008	22257
872.138	22204
872.267	22078
872.397	22055
872.526	22025
872.656	21956
872.785	21911
872.915	22040
873.044	22306
873.173	22169
873.303	22253
873.432	22287
873.561	22306
873.69	22093
873.819	22211
873.948	22329
874.077	22249
874.206	22230
874.335	22128
874.464	22379
874.593	22478
874.722	22375
874.851	22398
874.979	22314
875.108	22557
875.237	22318
875.365	22341
875.494	22459
875.623	22557
875.751	22379
875.88	22417
876.008	22565
876.136	22417
876.265	22835
876.393	22809
876.521	22805
876.65	22858
876.778	22877
876.906	22694
877.034	22660
877.162	22820
877.29	22656
877.418	22774
877.546	22740
877.674	22706
877.802	22687
877.93	22759
878.058	22687
878.185	22660
878.313	22622
878.441	22653
878.568	22573
878.696	22733
878.824	22706
878.951	22801
879.079	22915
879.206	22991
879.333	22957
879.461	22782
879.588	22797
879.715	22866
879.842	22877
879.97	22771
880.097	22656
880.224	22603
880.351	22546
880.478	22535
880.605	22481
880.732	22470
880.859	22790
880.986	22493
881.112	22615
881.239	22470
881.366	22352
881.493	22310
881.619	22219
881.746	22196
881.872	22086
881.999	22097
882.125	21991
882.252	22257
882.378	22162
882.505	22150
882.631	22006
882.757	21835
882.883	21930
883.01	21831
883.136	21759
883.262	21728
883.388	21629
883.514	21751
883.64	21819
883.766	21781
883.892	21690
884.018	21648
884.143	21770
884.269	21766
884.395	21523
884.52	21466
884.646	21561
884.772	21405
884.897	21351
885.023	21549
885.148	21580
885.274	21686
885.399	21458
885.524	21416
885.65	21530
885.775	21477
885.9	21401
886.025	21679
886.15	21519
886.275	21389
886.4	21462
886.525	21355
886.65	21283
886.775	21317
886.9	21591
887.025	21728
887.149	21416
887.274	21344
887.399	21180
887.523	21302
887.648	21184
887.773	21024
887.897	21370
888.021	21378
888.146	21135
888.27	21230
888.395	21302
888.519	21157
888.643	21241
888.767	21256
888.891	21264
889.015	20921
889.139	21036
889.263	20902
889.387	21214
889.511	21161
889.635	21116
889.759	20956
889.883	20971
890.006	20899
890.13	21222
890.254	20842
890.377	20956
890.501	20830
890.624	20739
890.748	20929
890.871	20819
890.995	20590
891.118	20495
891.241	20609
891.364	20625
891.488	20727
891.611	20492
891.734	20594
891.857	20762
891.98	20609
892.103	20579
892.226	20484
892.349	20613
892.471	20298
892.594	20560
892.717	20457
892.839	20530
892.962	20438
893.085	20602
893.207	20465
893.33	20336
893.452	20366
893.575	20583
893.697	20412
893.819	20484
893.941	20746
894.064	20575
894.186	20427
894.308	20389
894.43	20552
894.552	20655
894.674	20575
894.796	20362
894.918	20446
895.04	20381
895.161	20492
895.283	20507
895.405	20328
895.526	20556
895.648	20495
895.769	20465
895.891	20492
896.012	20503
896.134	20537
896.255	20461
896.376	20511
896.498	20461
896.619	20480
896.74	20484
896.861	20545
896.982	20769
897.103	20933
897.224	20739
897.345	20765
897.466	20697
897.587	20621
897.708	20895
897.828	20754
897.949	20530
898.07	20530
898.19	20609
898.311	20762
898.431	20606
898.552	20674
898.672	20743
898.792	20815
898.913	20693
899.033	20545
899.153	20454
899.273	20412
899.393	20347
899.513	20461
899.633	20427
899.753	20484
899.873	20358
899.993	20549
900.113	20377
900.232	20370
900.352	20355
900.472	20202
900.591	20142
900.711	20176
900.83	20195
900.95	20389
901.069	20320
901.189	20122
901.308	19803
901.427	19651
901.546	19715
901.665	19791
901.784	19734
901.904	19685
902.023	19575
902.141	19274
902.26	19293
902.379	19339
902.498	19339
902.617	19228
902.735	19255
902.854	19202
902.973	19171
903.091	19046
903.21	18989
903.328	18848
903.446	18871
903.565	18833
903.683	18753
903.801	18669
903.919	18814
904.038	18616
904.156	18639
904.274	18616
904.392	18563
904.51	18422
904.627	18566
904.745	18528
904.863	18646
904.981	18247
905.098	18289
905.216	18136
905.334	18201
905.451	18239
905.569	18224
905.686	18152
905.803	18304
905.921	17889
906.038	18076
906.155	18003
906.272	17920
906.389	17859
906.506	17714
906.623	17707
906.74	17710
906.857	17619
906.974	17672
907.091	17916
907.208	17897
907.324	17745
907.441	17566
907.557	17417
907.674	17516
907.79	17391
907.907	17334
908.023	17368
908.139	17486
908.256	17349
908.372	17231
908.488	17269
908.604	17178
908.72	17174
908.836	17231
908.952	17132
909.068	17128
909.184	17181
909.3	17143
909.415	17261
909.531	17079
909.647	16881
909.762	16873
909.878	16763
909.993	16881
910.108	16850
910.224	16839
910.339	16839
910.454	16717
910.57	16569
910.685	16519
910.8	16881
910.915	16805
911.03	16717
911.145	16497
911.259	16432
911.374	16497
911.489	16398
911.604	16310
911.718	16272
911.833	16238
911.947	16139
912.062	15987
912.176	16135
912.291	16185
912.405	16166
912.519	16348
912.633	16379
912.748	16287
912.862	16226
912.976	15994
913.09	15892
913.204	15998
913.318	15994
913.431	16105
913.545	16059
913.659	16055
913.772	15907
913.886	15804
914	15819
914.113	15918
914.226	15945
914.34	15892
914.453	15675
914.566	15816
914.68	15667
914.793	15671
914.906	15431
915.019	15374
915.132	15370
915.245	15389
915.358	15439
915.47	15454
915.583	15378
915.696	15401
915.809	15428
915.921	15500
916.034	15306
916.146	15188
916.259	15287
916.371	15370
916.483	15370
916.595	15180
916.708	15241
916.82	15154
916.932	15233
917.044	15150
917.156	15123
917.268	15062
917.38	15070
917.491	15020
917.603	15089
917.715	15043
917.826	15097
917.938	14948
918.049	14861
918.161	14906
918.272	15123
918.384	15085
918.495	15005
918.606	14842
918.717	14735
918.828	14819
918.939	14872
919.05	14720
919.161	14743
919.272	14625
919.383	14678
919.494	14868
919.604	14918
919.715	14743
919.826	14781
919.936	14689
920.047	14804
920.157	14689
920.267	14834
920.378	14716
920.488	14701
920.598	14910
920.708	15043
920.818	14944
920.928	14864
921.038	15009
921.148	15085
921.258	14743
921.368	14674
921.477	14469
921.587	14385
921.697	14336
921.806	14511
921.916	14237
922.025	14183
922.134	14111
922.244	14081
922.353	14240
922.462	14069
922.571	13925
922.68	13807
922.789	13769
922.898	13731
923.007	13769
923.116	13708
923.224	13784
923.333	13723
923.442	13590
923.55	13567
923.659	13582
923.767	13597
923.876	13483
923.984	13639
924.092	13403
924.201	13495
924.309	13460
924.417	13544
924.525	13388
924.633	13426
924.741	14191
924.849	13225
924.956	13320
925.064	13183
925.172	13084
925.279	13202
925.387	13202
925.494	13221
925.602	13194
925.709	13274
925.816	13019
925.924	13091
926.031	13225
926.138	13038
926.245	13156
926.352	13019
926.459	13160
926.566	13152
926.673	13031
926.779	12859
926.886	12837
926.993	12787
927.099	12764
927.206	12673
927.312	12631
927.419	12734
927.525	12570
927.631	12738
927.737	12589
927.843	12654
927.95	12498
928.056	12593
928.162	12528
928.267	12604
928.373	13072
928.479	12631
928.585	12338
928.69	12521
928.796	12490
928.901	12429
929.007	12258
929.112	12403
929.218	12369
929.323	12334
929.428	12289
929.533	12391
929.638	12175
929.743	12175
929.848	12285
929.953	12216
930.058	12175
930.163	11935
930.267	11939
930.372	12102
930.477	11939
930.581	12140
930.685	11999
930.79	11798
930.894	11840
930.998	11733
931.103	11958
931.207	11611
931.311	11581
931.415	11429
931.519	11204
931.623	11166
