Data from test_V78500241_848.txt Node
Date: Fri Mar 25 15:47:40 CST 2022
User: usil
Spectrometer: V785-0024
Trigger mode: 0
Integration Time (sec): 4.000000E-1
Scans to average: 1
Nonlinearity correction enabled: false
Boxcar width: 0
Storing dark spectrum: false
XAxis mode: Wavelengths
Number of Pixels in Spectrum: 1024
>>>>>Begin Spectral Data<<<<<
801.071	27732
801.214	27561
801.356	27207
801.499	27230
801.641	27123
801.783	27096
801.926	27119
802.068	27081
802.211	27096
802.353	27024
802.496	26826
802.638	26781
802.78	26674
802.923	26511
803.065	26743
803.208	26602
803.35	26811
803.492	26864
803.635	26804
803.777	26781
803.919	27005
804.061	27081
804.204	27116
804.346	26861
804.488	26823
804.63	26845
804.773	26788
804.915	26944
805.057	27036
805.199	26891
805.341	26967
805.483	27116
805.626	26933
805.768	26948
805.91	27089
806.052	26944
806.194	26963
806.336	27214
806.478	27108
806.62	26933
806.762	27195
806.904	27275
807.046	27523
807.188	27439
807.33	27408
807.472	27519
807.614	27450
807.756	27488
807.898	27317
808.04	27336
808.182	27116
808.324	27363
808.465	27199
808.607	27443
808.749	27728
808.891	27827
809.033	27892
809.174	27781
809.316	27637
809.458	27694
809.6	27564
809.741	27774
809.883	27804
810.025	27949
810.166	27937
810.308	27960
810.45	27945
810.591	27808
810.733	27717
810.875	27637
811.016	27713
811.158	27629
811.299	27732
811.441	27892
811.582	27895
811.724	27781
811.865	27804
812.007	27705
812.148	27667
812.29	27812
812.431	27766
812.573	28093
812.714	27960
812.855	28265
812.997	28348
813.138	28428
813.279	28215
813.421	28131
813.562	28204
813.703	28017
813.845	27880
813.986	27667
814.127	27420
814.268	27427
814.41	27504
814.551	27294
814.692	27412
814.833	27363
814.974	27389
815.115	27469
815.256	27176
815.397	27176
815.539	27203
815.68	27188
815.821	27070
815.962	27237
816.103	27135
816.244	27108
816.385	26944
816.526	26940
816.666	26705
816.807	26708
816.948	26708
817.089	26834
817.23	26686
817.371	26686
817.512	26735
817.653	26659
817.793	26575
817.934	26587
818.075	26788
818.216	26602
818.356	26678
818.497	26492
818.638	26332
818.778	26328
818.919	26381
819.06	26469
819.2	26492
819.341	26590
819.481	26564
819.622	26830
819.762	26933
819.903	27020
820.043	26880
820.184	26625
820.324	26716
820.465	26792
820.605	26746
820.746	26716
820.886	26556
821.026	26663
821.167	26549
821.307	26804
821.447	26670
821.588	26450
821.728	26362
821.868	26294
822.008	26084
822.149	26039
822.289	26046
822.429	25811
822.569	25921
822.709	25734
822.849	25556
822.99	25666
823.13	25674
823.27	25643
823.41	25335
823.55	25445
823.69	25441
823.83	25537
823.97	25403
824.11	25297
824.25	25255
824.389	25209
824.529	25518
824.669	25244
824.809	25438
824.949	25396
825.089	25335
825.228	25346
825.368	25118
825.508	25091
825.648	25099
825.787	25103
825.927	25213
826.067	24996
826.206	25042
826.346	25095
826.485	25194
826.625	25129
826.765	25343
826.904	25118
827.044	24970
827.183	24798
827.323	24840
827.462	24928
827.601	24886
827.741	24825
827.88	24757
828.02	24749
828.159	24825
828.298	24669
828.437	24954
828.577	24696
828.716	25004
828.855	24772
828.994	24585
829.134	24483
829.273	24593
829.412	24464
829.551	24399
829.69	24456
829.829	24566
829.968	24589
830.107	24544
830.246	24395
830.385	24528
830.524	24422
830.663	24346
830.802	24190
830.941	24110
831.08	24129
831.219	24190
831.357	24254
831.496	24330
831.635	24152
831.774	24030
831.913	23996
832.051	23912
832.19	23836
832.329	23912
832.467	23790
832.606	23676
832.744	23676
832.883	23878
833.022	23912
833.16	23703
833.299	23863
833.437	23836
833.576	23836
833.714	23847
833.852	23878
833.991	23916
834.129	24007
834.267	23920
834.406	23760
834.544	23798
834.682	23969
834.821	23737
834.959	24022
835.097	23783
835.235	23783
835.373	23878
835.511	23786
835.65	23802
835.788	23627
835.926	23722
836.064	23372
836.202	23589
836.34	23851
836.478	23809
836.615	23790
836.753	23646
836.891	23729
837.029	23596
837.167	23543
837.305	23630
837.443	23531
837.58	23570
837.718	23581
837.856	23611
837.993	23535
838.131	23387
838.269	23246
838.406	23448
838.544	23334
838.681	23109
838.819	23147
838.956	23037
839.094	22953
839.231	23113
839.369	23200
839.506	23444
839.643	23254
839.781	23022
839.918	22892
840.055	23018
840.193	23010
840.33	22995
840.467	23052
840.604	22923
840.742	23227
840.879	22930
841.016	22816
841.153	22698
841.29	23094
841.427	22987
841.564	22908
841.701	22957
841.838	22946
841.975	22835
842.112	22908
842.249	22771
842.385	22679
842.522	22980
842.659	22710
842.796	22645
842.933	22698
843.069	22634
843.206	22679
843.343	22672
843.479	22637
843.616	22580
843.752	22409
843.889	22546
844.025	22577
844.162	22489
844.298	22455
844.435	22432
844.571	22390
844.708	22455
844.844	22637
844.98	22535
845.117	22596
845.253	22394
845.389	22310
845.525	22424
845.661	22234
845.798	22196
845.934	22261
846.07	22223
846.206	22211
846.342	22284
846.478	22135
846.614	21895
846.75	21762
846.886	21945
847.022	22131
847.158	21812
847.294	21998
847.429	21869
847.565	21964
847.701	22177
847.837	21667
847.972	21591
848.108	21759
848.244	21698
848.379	21572
848.515	21340
848.65	21561
848.786	21576
848.921	21428
849.057	21667
849.192	21637
849.328	21572
849.463	21538
849.598	21488
849.734	21481
849.869	21389
850.004	21252
850.14	21382
850.275	21317
850.41	21317
850.545	21325
850.68	21272
850.815	21275
850.95	21252
851.085	21412
851.22	21291
851.355	21241
851.49	21310
851.625	21302
851.76	21211
851.895	21249
852.03	21207
852.165	21310
852.299	21279
852.434	21420
852.569	21313
852.703	21367
852.838	21355
852.973	21401
853.107	21412
853.242	21173
853.376	21123
853.511	21051
853.645	21085
853.78	21298
853.914	21123
854.048	21192
854.183	21055
854.317	21123
854.451	21226
854.585	21142
854.72	21089
854.854	21237
854.988	21119
855.122	21024
855.256	21024
855.39	21085
855.524	21169
855.658	21089
855.792	21081
855.926	21230
856.06	21112
856.194	21119
856.327	21192
856.461	21005
856.595	21047
856.729	21039
856.862	21188
856.996	21119
857.13	21184
857.263	21116
857.397	21184
857.53	21146
857.664	21169
857.797	21005
857.931	21192
858.064	21154
858.197	21146
858.331	21203
858.464	21093
858.597	21036
858.731	21028
858.864	21077
858.997	20952
859.13	21154
859.263	21043
859.396	21260
859.529	21024
859.662	21112
859.795	20921
859.928	21093
860.061	21241
860.194	21344
860.327	21252
860.46	21192
860.592	21287
860.725	21268
860.858	21291
860.99	21089
861.123	21074
861.256	21020
861.388	21173
861.521	21663
861.653	21070
861.786	20811
861.918	20899
862.05	20857
862.183	20990
862.315	21066
862.447	21005
862.58	20982
862.712	20796
862.844	20727
862.976	20963
863.108	20838
863.24	21348
863.372	20845
863.504	20762
863.636	20727
863.768	20853
863.9	20815
864.032	20735
864.164	20724
864.296	20777
864.428	20967
864.559	20853
864.691	20800
864.823	20773
864.954	20739
865.086	20826
865.217	20724
865.349	20587
865.48	20746
865.612	20811
865.743	20838
865.875	20701
866.006	20705
866.137	20655
866.269	20655
866.4	20663
866.531	20689
866.662	20507
866.793	20571
866.924	20613
867.055	20659
867.186	20686
867.317	20556
867.448	20533
867.579	20640
867.71	20636
867.841	20541
867.972	20792
868.103	20727
868.233	20644
868.364	20590
868.495	20758
868.625	20876
868.756	20929
868.886	20876
869.017	20823
869.147	21062
869.278	21020
869.408	20918
869.539	20861
869.669	21047
869.799	20944
869.929	20941
870.06	20971
870.19	21230
870.32	21112
870.45	21332
870.58	21401
870.71	21397
870.84	21424
870.97	21272
871.1	21214
871.23	21405
871.36	21530
871.489	21389
871.619	21412
871.749	21462
871.879	21500
872.008	21564
872.138	21386
872.267	21542
872.397	21363
872.526	21329
872.656	21298
872.785	21363
872.915	21530
873.044	21610
873.173	21576
873.303	21580
873.432	21466
873.561	21622
873.69	21561
873.819	21519
873.948	21572
874.077	21420
874.206	21420
874.335	21568
874.464	21530
874.593	21842
874.722	21622
874.851	21717
874.979	21705
875.108	21717
875.237	21701
875.365	21660
875.494	21633
875.623	21739
875.751	21660
875.88	21713
876.008	21892
876.136	21918
876.265	22021
876.393	22265
876.521	22234
876.65	22097
876.778	22177
876.906	22173
877.034	22013
877.162	22067
877.29	21918
877.418	22070
877.546	22116
877.674	22017
877.802	22162
877.93	22013
878.058	22048
878.185	22002
878.313	22078
878.441	22048
878.568	21937
878.696	22082
878.824	22097
878.951	22093
879.079	22310
879.206	22409
879.333	22329
879.461	22048
879.588	22284
879.715	22303
879.842	22363
879.97	22139
880.097	21953
880.224	22082
880.351	22013
880.478	22006
880.605	21903
880.732	21956
880.859	22230
880.986	22040
881.112	21937
881.239	21838
881.366	21800
881.493	21523
881.619	21549
881.746	21549
881.872	21641
881.999	21458
882.125	21485
882.252	21557
882.378	21504
882.505	21614
882.631	21329
882.757	21291
882.883	21340
883.01	21272
883.136	21249
883.262	21161
883.388	21043
883.514	21321
883.64	21249
883.766	21218
883.892	21093
884.018	21032
884.143	21157
884.269	21176
884.395	20952
884.52	20967
884.646	20971
884.772	20796
884.897	20804
885.023	20944
885.148	21001
885.274	21055
885.399	21017
885.524	20918
885.65	20891
885.775	20887
885.9	20788
886.025	20929
886.15	20914
886.275	20708
886.4	20788
886.525	20883
886.65	20777
886.775	20701
886.9	20933
887.025	21077
887.149	20785
887.274	20682
887.399	20693
887.523	20739
887.648	20625
887.773	20556
887.897	20750
888.021	20712
888.146	20629
888.27	20720
888.395	20796
888.519	20655
888.643	20769
888.767	20659
888.891	20552
889.015	20488
889.139	20518
889.263	20446
889.387	20602
889.511	20655
889.635	20537
889.759	20385
889.883	20393
890.006	20393
890.13	20632
890.254	20385
890.377	20377
890.501	20286
890.624	20218
890.748	20191
890.871	20092
890.995	20050
891.118	19928
891.241	20012
891.364	20012
891.488	20191
891.611	20065
891.734	19989
891.857	20103
891.98	20005
892.103	19982
892.226	20050
892.349	19978
892.471	19898
892.594	19947
892.717	20027
892.839	19989
892.962	19913
893.085	19989
893.207	19860
893.33	19871
893.452	19799
893.575	19883
893.697	19883
893.819	20069
893.941	20122
894.064	20039
894.186	19898
894.308	19833
894.43	19978
894.552	19951
894.674	19997
894.796	19837
894.918	19860
895.04	19887
895.161	19917
895.283	19902
895.405	19818
895.526	19925
895.648	19841
895.769	19974
895.891	19936
896.012	20020
896.134	19894
896.255	19894
896.376	20005
896.498	19978
896.619	19955
896.74	20035
896.861	19925
896.982	20393
897.103	20294
897.224	20183
897.345	20180
897.466	20050
897.587	20275
897.708	20309
897.828	20237
897.949	20096
898.07	19921
898.19	20122
898.311	20225
898.431	20035
898.552	20092
898.672	20256
898.792	20145
898.913	20252
899.033	20103
899.153	19974
899.273	19822
899.393	19959
899.513	19894
899.633	19860
899.753	19856
899.873	19833
899.993	19814
900.113	19795
900.232	19860
900.352	19982
900.472	19666
900.591	19552
900.711	19689
900.83	19670
900.95	19757
901.069	19826
901.189	19514
901.308	19259
901.427	19232
901.546	19358
901.665	19247
901.784	19274
901.904	19228
902.023	19034
902.141	18909
902.26	18867
902.379	18859
902.498	18749
902.617	18806
902.735	18844
902.854	18810
902.973	18616
903.091	18513
903.21	18475
903.328	18547
903.446	18414
903.565	18292
903.683	18251
903.801	18121
903.919	18315
904.038	18159
904.156	18095
904.274	18057
904.392	17935
904.51	18102
904.627	18064
904.745	18163
904.863	18068
904.981	17863
905.098	17691
905.216	17714
905.334	17893
905.451	17710
905.569	17714
905.686	17794
905.803	17764
905.921	17623
906.038	17596
906.155	17444
906.272	17398
906.389	17463
906.506	17280
906.623	17246
906.74	17284
906.857	17159
906.974	17140
907.091	17353
907.208	17471
907.324	17220
907.441	17162
907.557	16949
907.674	16980
907.79	16953
907.907	16938
908.023	17010
908.139	17022
908.256	16908
908.372	16873
908.488	16961
908.604	16782
908.72	16630
908.836	16634
908.952	16618
909.068	16729
909.184	16771
909.3	16603
909.415	16691
909.531	16733
909.647	16428
909.762	16451
909.878	16409
909.993	16436
910.108	16284
910.224	16318
910.339	16306
910.454	16242
910.57	16265
910.685	16112
910.8	16322
910.915	16333
911.03	16261
911.145	16002
911.259	16017
911.374	15953
911.489	15926
911.604	15827
911.718	15720
911.833	15804
911.947	15698
912.062	15663
912.176	15656
912.291	15732
912.405	15732
912.519	15972
912.633	15857
912.748	15865
912.862	15724
912.976	15633
913.09	15393
913.204	15454
913.318	15526
913.431	15652
913.545	15652
913.659	15652
913.772	15462
913.886	15370
914	15408
914.113	15450
914.226	15511
914.34	15496
914.453	15188
914.566	15435
914.68	15241
914.793	15214
914.906	15017
915.019	14941
915.132	14925
915.245	15028
915.358	14956
915.47	14944
915.583	15043
915.696	15039
915.809	15020
915.921	15066
916.034	14925
916.146	14914
916.259	14842
916.371	14982
916.483	14925
916.595	14811
916.708	14762
916.82	14739
916.932	14830
917.044	14636
917.156	14701
917.268	14590
917.38	14583
917.491	14579
917.603	14636
917.715	14659
917.826	14769
917.938	14549
918.049	14457
918.161	14625
918.272	14651
918.384	14716
918.495	14606
918.606	14522
918.717	14389
918.828	14461
918.939	14298
919.05	14377
919.161	14256
919.272	14195
919.383	14214
919.494	14442
919.604	14621
919.715	14362
919.826	14229
919.936	14434
920.047	14427
920.157	14320
920.267	14461
920.378	14324
920.488	14290
920.598	14431
920.708	14648
920.818	14476
920.928	14530
921.038	14648
921.148	14632
921.258	14309
921.368	14259
921.477	14130
921.587	14008
921.697	13974
921.806	14138
921.916	13947
922.025	13811
922.134	13704
922.244	13620
922.353	13791
922.462	13674
922.571	13502
922.68	13403
922.789	13426
922.898	13438
923.007	13320
923.116	13430
923.224	13381
923.333	13335
923.442	13270
923.55	13221
923.659	13236
923.767	13274
923.876	13232
923.984	13308
924.092	13202
924.201	13183
924.309	13152
924.417	13114
924.525	12943
924.633	13046
924.741	14043
924.849	12951
924.956	12954
925.064	12886
925.172	12749
925.279	12779
925.387	12772
925.494	12825
925.602	12943
925.709	12878
925.816	12791
925.924	12772
926.031	12837
926.138	12768
926.245	12852
926.352	12635
926.459	12821
926.566	12848
926.673	12639
926.779	12479
926.886	12559
926.993	12464
927.099	12445
927.206	12403
927.312	12281
927.419	12479
927.525	12441
927.631	12410
927.737	12292
927.843	12144
927.95	12125
928.056	12148
928.162	12296
928.267	12292
928.373	12981
928.479	12292
928.585	12053
928.69	12129
928.796	12213
928.901	12076
929.007	11954
929.112	12079
929.218	12019
929.323	11939
929.428	11996
929.533	12041
929.638	11893
929.743	11923
929.848	11988
929.953	11916
930.058	11809
930.163	11729
930.267	11703
930.372	11783
930.477	11539
930.581	11851
930.685	11680
930.79	11615
930.894	11501
930.998	11486
931.103	11615
931.207	11280
931.311	11235
931.415	11136
931.519	10923
931.623	10889
