Data from test_V78500241_1591.txt Node
Date: Fri Mar 25 15:52:49 CST 2022
User: usil
Spectrometer: V785-0024
Trigger mode: 0
Integration Time (sec): 4.000000E-1
Scans to average: 1
Nonlinearity correction enabled: false
Boxcar width: 0
Storing dark spectrum: false
XAxis mode: Wavelengths
Number of Pixels in Spectrum: 1024
>>>>>Begin Spectral Data<<<<<
801.071	28173
801.214	28219
801.356	27899
801.499	27880
801.641	27831
801.783	27755
801.926	27835
802.068	27762
802.211	27717
802.353	27572
802.496	27568
802.638	27572
802.78	27477
802.923	27351
803.065	27279
803.208	27374
803.35	27424
803.492	27488
803.635	27583
803.777	27469
803.919	27633
804.061	27880
804.204	27652
804.346	27690
804.488	27507
804.63	27652
804.773	27466
804.915	27610
805.057	27797
805.199	27675
805.341	27846
805.483	27873
805.626	27667
805.768	27682
805.91	27797
806.052	27842
806.194	27747
806.336	28051
806.478	27827
806.62	27797
806.762	27884
806.904	28006
807.046	28398
807.188	28253
807.33	28303
807.472	28265
807.614	28120
807.756	28105
807.898	28097
808.04	28048
808.182	28059
808.324	27953
808.465	28188
808.607	28265
808.749	28367
808.891	28561
809.033	28546
809.174	28561
809.316	28401
809.458	28474
809.6	28424
809.741	28592
809.883	28497
810.025	28816
810.166	28812
810.308	28736
810.45	28713
810.591	28630
810.733	28504
810.875	28375
811.016	28390
811.158	28261
811.299	28478
811.441	28603
811.582	28531
811.724	28447
811.865	28409
812.007	28470
812.148	28459
812.29	28470
812.431	28603
812.573	28733
812.714	28877
812.855	28915
812.997	29242
813.138	29166
813.279	29121
813.421	28938
813.562	28873
813.703	28767
813.845	28801
813.986	28337
814.127	28207
814.268	28246
814.41	28093
814.551	28109
814.692	28150
814.833	27956
814.974	28044
815.115	28154
815.256	28070
815.397	28002
815.539	28040
815.68	27975
815.821	27819
815.962	27998
816.103	27926
816.244	27892
816.385	27751
816.526	27648
816.666	27679
816.807	27477
816.948	27504
817.089	27599
817.23	27568
817.371	27378
817.512	27359
817.653	27401
817.793	27348
817.934	27416
818.075	27355
818.216	27530
818.356	27370
818.497	27492
818.638	27116
818.778	27188
818.919	27108
819.06	27245
819.2	27405
819.341	27367
819.481	27534
819.622	27420
819.762	27736
819.903	27614
820.043	27614
820.184	27587
820.324	27641
820.465	27625
820.605	27519
820.746	27473
820.886	27386
821.026	27439
821.167	27492
821.307	27553
821.447	27519
821.588	27317
821.728	27230
821.868	27032
822.008	26960
822.149	26853
822.289	26921
822.429	26762
822.569	26636
822.709	26705
822.849	26358
822.99	26469
823.13	26336
823.27	26362
823.41	26233
823.55	26218
823.69	26343
823.83	26157
823.97	26229
824.11	25944
824.25	26024
824.389	26031
824.529	26164
824.669	26081
824.809	26214
824.949	26138
825.089	26218
825.228	26122
825.368	25966
825.508	25902
825.648	25871
825.787	25883
825.927	25963
826.067	26020
826.206	25909
826.346	26005
826.485	25993
826.625	25997
826.765	25986
826.904	25894
827.044	25894
827.183	25708
827.323	25651
827.462	25742
827.601	25670
827.741	25578
827.88	25780
828.02	25594
828.159	25639
828.298	25738
828.437	25689
828.577	25658
828.716	25655
828.855	25521
828.994	25285
829.134	25419
829.273	25403
829.412	25293
829.551	25266
829.69	25213
829.829	25384
829.968	25373
830.107	25407
830.246	25331
830.385	25247
830.524	25171
830.663	25148
830.802	25206
830.941	25088
831.08	24882
831.219	25019
831.357	24966
831.496	25118
831.635	24916
831.774	24882
831.913	24829
832.051	24719
832.19	24783
832.329	24787
832.467	24700
832.606	24540
832.744	24547
832.883	24681
833.022	24589
833.16	24589
833.299	24684
833.437	24528
833.576	24593
833.714	24738
833.852	24772
833.991	24913
834.129	24837
834.267	24833
834.406	24525
834.544	24540
834.682	24700
834.821	24627
834.959	24806
835.097	24650
835.235	24768
835.373	24623
835.511	24551
835.65	24479
835.788	24407
835.926	24536
836.064	24270
836.202	24319
836.34	24604
836.478	24479
836.615	24521
836.753	24471
836.891	24665
837.029	24517
837.167	24505
837.305	24445
837.443	24289
837.58	24422
837.718	24300
837.856	24357
837.993	24270
838.131	24384
838.269	24273
838.406	24201
838.544	24083
838.681	23996
838.819	23946
838.956	23958
839.094	23699
839.231	23931
839.369	24038
839.506	24232
839.643	24095
839.781	23912
839.918	23619
840.055	23813
840.193	23733
840.33	23741
840.467	23695
840.604	23809
840.742	23931
840.879	23611
841.016	23524
841.153	23531
841.29	23836
841.427	23684
841.564	23695
841.701	23699
841.838	23737
841.975	23619
842.112	23608
842.249	23539
842.385	23436
842.522	23680
842.659	23577
842.796	23531
842.933	23398
843.069	23379
843.206	23433
843.343	23604
843.479	23585
843.616	23501
843.752	23166
843.889	23185
844.025	23452
844.162	23273
844.298	23383
844.435	23353
844.571	23269
844.708	23307
844.844	23417
844.98	23315
845.117	23349
845.253	23181
845.389	23159
845.525	23235
845.661	23048
845.798	22953
845.934	23041
846.07	23022
846.206	22972
846.342	23079
846.478	23037
846.614	22740
846.75	22733
846.886	22649
847.022	22710
847.158	22733
847.294	22653
847.429	22584
847.565	22626
847.701	22953
847.837	22333
847.972	22542
848.108	22611
848.244	22481
848.379	22352
848.515	22337
848.65	22238
848.786	22249
848.921	22348
849.057	22306
849.192	22409
849.328	22390
849.463	22257
849.598	22295
849.734	22154
849.869	22185
850.004	22177
850.14	21991
850.275	22010
850.41	21975
850.545	22070
850.68	22124
850.815	22074
850.95	22017
851.085	22295
851.22	22215
851.355	22120
851.49	22078
851.625	21941
851.76	21964
851.895	21907
852.03	21945
852.165	22086
852.299	22078
852.434	22242
852.569	21964
852.703	22120
852.838	22124
852.973	22128
853.107	22120
853.242	21953
853.376	21854
853.511	21686
853.645	21770
853.78	22021
853.914	21911
854.048	21781
854.183	21823
854.317	21926
854.451	22059
854.585	21865
854.72	21930
854.854	22048
854.988	21835
855.122	21778
855.256	21812
855.39	21869
855.524	21918
855.658	21953
855.792	21793
855.926	22006
856.06	21911
856.194	21979
856.327	21911
856.461	21842
856.595	21846
856.729	21812
856.862	21972
856.996	21922
857.13	22044
857.263	22109
857.397	22021
857.53	21994
857.664	21854
857.797	21880
857.931	21960
858.064	21899
858.197	21979
858.331	21823
858.464	21827
858.597	21854
858.731	21819
858.864	21800
858.997	21937
859.13	21857
859.263	21953
859.396	21888
859.529	21793
859.662	21857
859.795	21747
859.928	21949
860.061	22006
860.194	22143
860.327	21918
860.46	21979
860.592	21930
860.725	22131
860.858	22063
860.99	21823
861.123	21880
861.256	21835
861.388	21854
861.521	22580
861.653	21774
861.786	21629
861.918	21778
862.05	21774
862.183	21778
862.315	21895
862.447	21903
862.58	21804
862.712	21583
862.844	21542
862.976	21720
863.108	21606
863.24	22143
863.372	21614
863.504	21553
863.636	21583
863.768	21694
863.9	21652
864.032	21583
864.164	21545
864.296	21488
864.428	21751
864.559	21553
864.691	21561
864.823	21644
864.954	21420
865.086	21644
865.217	21428
865.349	21477
865.48	21557
865.612	21416
865.743	21572
865.875	21538
866.006	21511
866.137	21481
866.269	21420
866.4	21473
866.531	21275
866.662	21363
866.793	21325
866.924	21374
867.055	21462
867.186	21481
867.317	21348
867.448	21488
867.579	21336
867.71	21325
867.841	21355
867.972	21370
868.103	21359
868.233	21332
868.364	21488
868.495	21500
868.625	21652
868.756	21819
868.886	21572
869.017	21557
869.147	21720
869.278	21671
869.408	21759
869.539	21542
869.669	21808
869.799	21705
869.929	21732
870.06	21713
870.19	22120
870.32	21926
870.45	22051
870.58	21987
870.71	22200
870.84	22226
870.97	22048
871.1	22048
871.23	22207
871.36	22200
871.489	22063
871.619	22360
871.749	22261
871.879	22325
872.008	22394
872.138	22261
872.267	22394
872.397	22177
872.526	22032
872.656	22097
872.785	22067
872.915	22303
873.044	22314
873.173	22226
873.303	22310
873.432	22379
873.561	22557
873.69	22360
873.819	22291
873.948	22409
874.077	22287
874.206	22303
874.335	22272
874.464	22375
874.593	22561
874.722	22516
874.851	22360
874.979	22512
875.108	22679
875.237	22413
875.365	22459
875.494	22451
875.623	22626
875.751	22360
875.88	22519
876.008	22668
876.136	22588
876.265	22835
876.393	22972
876.521	22816
876.65	22892
876.778	22828
876.906	22828
877.034	22896
877.162	22809
877.29	22744
877.418	22839
877.546	22755
877.674	22774
877.802	22850
877.93	22729
878.058	22733
878.185	22672
878.313	22755
878.441	22694
878.568	22565
878.696	22782
878.824	22820
878.951	22949
879.079	22980
879.206	23109
879.333	22972
879.461	22812
879.588	22892
879.715	22961
879.842	23132
879.97	22987
880.097	22672
880.224	22713
880.351	22698
880.478	22588
880.605	22603
880.732	22675
880.859	22869
880.986	22615
881.112	22713
881.239	22584
881.366	22394
881.493	22386
881.619	22147
881.746	22204
881.872	22295
881.999	22226
882.125	22158
882.252	22272
882.378	22249
882.505	22402
882.631	22059
882.757	21865
882.883	21975
883.01	21831
883.136	21819
883.262	21816
883.388	21732
883.514	21903
883.64	21926
883.766	21842
883.892	21568
884.018	21690
884.143	21937
884.269	21945
884.395	21625
884.52	21622
884.646	21523
884.772	21557
884.897	21454
885.023	21709
885.148	21682
885.274	21652
885.399	21606
885.524	21507
885.65	21583
885.775	21496
885.9	21557
886.025	21724
886.15	21553
886.275	21561
886.4	21549
886.525	21473
886.65	21492
886.775	21466
886.9	21724
887.025	21648
887.149	21397
887.274	21397
887.399	21249
887.523	21393
887.648	21241
887.773	21104
887.897	21325
888.021	21340
888.146	21291
888.27	21332
888.395	21488
888.519	21351
888.643	21310
888.767	21374
888.891	21218
889.015	21252
889.139	21169
889.263	21081
889.387	21188
889.511	21283
889.635	21310
889.759	21146
889.883	21051
890.006	21005
890.13	21237
890.254	21028
890.377	21058
890.501	20902
890.624	20792
890.748	20868
890.871	20727
890.995	20735
891.118	20560
891.241	20750
891.364	20674
891.488	20910
891.611	20655
891.734	20579
891.857	20758
891.98	20682
892.103	20716
892.226	20689
892.349	20629
892.471	20518
892.594	20537
892.717	20708
892.839	20507
892.962	20507
893.085	20629
893.207	20556
893.33	20442
893.452	20423
893.575	20689
893.697	20598
893.819	20686
893.941	20697
894.064	20636
894.186	20427
894.308	20617
894.43	20613
894.552	20845
894.674	20560
894.796	20450
894.918	20499
895.04	20617
895.161	20613
895.283	20617
895.405	20682
895.526	20556
895.648	20549
895.769	20587
895.891	20568
896.012	20571
896.134	20648
896.255	20530
896.376	20583
896.498	20552
896.619	20659
896.74	20590
896.861	20785
896.982	20925
897.103	20990
897.224	20773
897.345	20811
897.466	20701
897.587	20788
897.708	20948
897.828	20807
897.949	20701
898.07	20705
898.19	20739
898.311	20819
898.431	20872
898.552	20876
898.672	20800
898.792	20785
898.913	20857
899.033	20602
899.153	20556
899.273	20377
899.393	20507
899.513	20545
899.633	20659
899.753	20469
899.873	20587
899.993	20530
900.113	20438
900.232	20575
900.352	20374
900.472	20396
900.591	20358
900.711	20305
900.83	20263
900.95	20419
901.069	20339
901.189	20294
901.308	20024
901.427	19830
901.546	19811
901.665	19894
901.784	19898
901.904	19833
902.023	19670
902.141	19521
902.26	19438
902.379	19483
902.498	19403
902.617	19354
902.735	19468
902.854	19350
902.973	19327
903.091	19110
903.21	19015
903.328	19069
903.446	18947
903.565	18932
903.683	18848
903.801	18711
903.919	18798
904.038	18814
904.156	18631
904.274	18783
904.392	18635
904.51	18646
904.627	18559
904.745	18654
904.863	18681
904.981	18380
905.098	18334
905.216	18292
905.334	18334
905.451	18292
905.569	18361
905.686	18403
905.803	18220
905.921	18220
906.038	18098
906.155	18167
906.272	17969
906.389	18060
906.506	17752
906.623	17802
906.74	17931
906.857	17733
906.974	17710
907.091	17927
907.208	17988
907.324	17863
907.441	17691
907.557	17646
907.674	17562
907.79	17444
907.907	17345
908.023	17627
908.139	17532
908.256	17509
908.372	17414
908.488	17463
908.604	17398
908.72	17242
908.836	17311
908.952	17261
909.068	17284
909.184	17387
909.3	17372
909.415	17212
909.531	17223
909.647	17132
909.762	16866
909.878	17022
909.993	16923
910.108	16908
910.224	16957
910.339	16858
910.454	16881
910.57	16752
910.685	16672
910.8	17064
910.915	16877
911.03	16744
911.145	16519
911.259	16573
911.374	16516
911.489	16493
911.604	16386
911.718	16344
911.833	16257
911.947	16196
912.062	16177
912.176	16280
912.291	16329
912.405	16162
912.519	16337
912.633	16489
912.748	16314
912.862	16257
912.976	16112
913.09	16010
913.204	16120
913.318	16071
913.431	16143
913.545	16097
913.659	16246
913.772	15972
913.886	15869
914	15762
914.113	15930
914.226	15968
914.34	15915
914.453	15739
914.566	15911
914.68	15789
914.793	15682
914.906	15530
915.019	15473
915.132	15359
915.245	15435
915.358	15557
915.47	15542
915.583	15469
915.696	15496
915.809	15675
915.921	15644
916.034	15439
916.146	15401
916.259	15412
916.371	15564
916.483	15450
916.595	15336
916.708	15237
916.82	15291
916.932	15363
917.044	15298
917.156	15184
917.268	15150
917.38	15138
917.491	15085
917.603	15188
917.715	15211
917.826	15165
917.938	15131
918.049	15051
918.161	15066
918.272	15138
918.384	15138
918.495	15116
918.606	14941
918.717	14788
918.828	14944
918.939	14834
919.05	14765
919.161	14807
919.272	14693
919.383	14777
919.494	14921
919.604	15013
919.715	14773
919.826	14762
919.936	14678
920.047	14861
920.157	14746
920.267	15005
920.378	14838
920.488	14853
920.598	15077
920.708	15074
920.818	15005
920.928	14986
921.038	15112
921.148	15104
921.258	14693
921.368	14689
921.477	14636
921.587	14560
921.697	14518
921.806	14636
921.916	14366
922.025	14309
922.134	14248
922.244	14248
922.353	14282
922.462	14115
922.571	13963
922.68	13906
922.789	13841
922.898	13894
923.007	13909
923.116	13875
923.224	13772
923.333	13719
923.442	13731
923.55	13639
923.659	13712
923.767	13765
923.876	13651
923.984	13715
924.092	13578
924.201	13681
924.309	13609
924.417	13472
924.525	13518
924.633	13521
924.741	14328
924.849	13308
924.956	13441
925.064	13289
925.172	13141
925.279	13259
925.387	13232
925.494	13217
925.602	13346
925.709	13247
925.816	13129
925.924	13175
926.031	13282
926.138	13202
926.245	13137
926.352	13065
926.459	13183
926.566	13278
926.673	13110
926.779	13057
926.886	13031
926.993	12897
927.099	12859
927.206	12673
927.312	12711
927.419	12848
927.525	12814
927.631	12730
927.737	12768
927.843	12658
927.95	12566
928.056	12635
928.162	12642
928.267	12738
928.373	13171
928.479	12665
928.585	12456
928.69	12601
928.796	12707
928.901	12498
929.007	12361
929.112	12559
929.218	12418
929.323	12372
929.428	12270
929.533	12395
929.638	12311
929.743	12277
929.848	12338
929.953	12327
930.058	12121
930.163	12038
930.267	12053
930.372	12102
930.477	12026
930.581	12235
930.685	11996
930.79	11923
930.894	11923
930.998	11908
931.103	11931
931.207	11547
931.311	11558
931.415	11493
931.519	11292
931.623	11235
