Data from test_V78500241_1099.txt Node
Date: Fri Mar 25 15:49:24 CST 2022
User: usil
Spectrometer: V785-0024
Trigger mode: 0
Integration Time (sec): 4.000000E-1
Scans to average: 1
Nonlinearity correction enabled: false
Boxcar width: 0
Storing dark spectrum: false
XAxis mode: Wavelengths
Number of Pixels in Spectrum: 1024
>>>>>Begin Spectral Data<<<<<
801.071	28455
801.214	28234
801.356	28013
801.499	28013
801.641	27869
801.783	27914
801.926	27964
802.068	27934
802.211	27797
802.353	27724
802.496	27591
802.638	27603
802.78	27591
802.923	27538
803.065	27485
803.208	27549
803.35	27504
803.492	27671
803.635	27732
803.777	27519
803.919	27770
804.061	28158
804.204	27793
804.346	27876
804.488	27682
804.63	27854
804.773	27671
804.915	27724
805.057	27880
805.199	27873
805.341	27827
805.483	28029
805.626	27876
805.768	27759
805.91	27972
806.052	28040
806.194	27835
806.336	28291
806.478	28048
806.62	28021
806.762	28006
806.904	28246
807.046	28462
807.188	28443
807.33	28268
807.472	28257
807.614	28390
807.756	28394
807.898	28181
808.04	28272
808.182	28211
808.324	28215
808.465	28348
808.607	28637
808.749	28615
808.891	28717
809.033	28774
809.174	28683
809.316	28596
809.458	28554
809.6	28519
809.741	28630
809.883	28824
810.025	29018
810.166	29159
810.308	29006
810.45	29018
810.591	28801
810.733	28710
810.875	28713
811.016	28611
811.158	28557
811.299	28771
811.441	28972
811.582	28679
811.724	28679
811.865	28664
812.007	28656
812.148	28516
812.29	28771
812.431	28816
812.573	28965
812.714	28900
812.855	29064
812.997	29151
813.138	29364
813.279	29360
813.421	29189
813.562	29155
813.703	28938
813.845	28790
813.986	28588
814.127	28363
814.268	28299
814.41	28375
814.551	28344
814.692	28432
814.833	28405
814.974	28382
815.115	28306
815.256	28337
815.397	28306
815.539	28268
815.68	28219
815.821	27998
815.962	28192
816.103	28105
816.244	28044
816.385	27945
816.526	27930
816.666	27755
816.807	27762
816.948	27751
817.089	27854
817.23	27751
817.371	27610
817.512	27755
817.653	27542
817.793	27572
817.934	27580
818.075	27648
818.216	27641
818.356	27644
818.497	27595
818.638	27363
818.778	27336
818.919	27431
819.06	27523
819.2	27606
819.341	27694
819.481	27656
819.622	27698
819.762	27964
819.903	27869
820.043	27926
820.184	27705
820.324	27720
820.465	27953
820.605	27800
820.746	27694
820.886	27553
821.026	27705
821.167	27660
821.307	27835
821.447	27648
821.588	27568
821.728	27667
821.868	27359
822.008	27237
822.149	27161
822.289	27070
822.429	26921
822.569	26727
822.709	26804
822.849	26587
822.99	26651
823.13	26712
823.27	26629
823.41	26522
823.55	26336
823.69	26427
823.83	26396
823.97	26408
824.11	26298
824.25	26298
824.389	26385
824.529	26423
824.669	26320
824.809	26400
824.949	26377
825.089	26412
825.228	26419
825.368	26214
825.508	26191
825.648	26370
825.787	26172
825.927	26252
826.067	26225
826.206	26077
826.346	26309
826.485	26176
826.625	26195
826.765	26278
826.904	26100
827.044	25925
827.183	25974
827.323	25986
827.462	25864
827.601	25803
827.741	25868
827.88	25890
828.02	25742
828.159	25811
828.298	25909
828.437	26050
828.577	25982
828.716	25982
828.855	25715
828.994	25628
829.134	25651
829.273	25708
829.412	25430
829.551	25415
829.69	25571
829.829	25578
829.968	25662
830.107	25685
830.246	25605
830.385	25525
830.524	25548
830.663	25472
830.802	25381
830.941	25069
831.08	25137
831.219	25202
831.357	25263
831.496	25403
831.635	25137
831.774	25050
831.913	25008
832.051	25053
832.19	24867
832.329	25008
832.467	24958
832.606	24859
832.744	24783
832.883	24935
833.022	24772
833.16	24840
833.299	24916
833.437	24920
833.576	24954
833.714	24932
833.852	24928
833.991	24954
834.129	25065
834.267	24894
834.406	24932
834.544	24939
834.682	24920
834.821	24814
834.959	25088
835.097	24779
835.235	24996
835.373	24897
835.511	24905
835.65	24810
835.788	24776
835.926	24661
836.064	24555
836.202	24536
836.34	24833
836.478	24806
836.615	24711
836.753	24825
836.891	24719
837.029	24741
837.167	24665
837.305	24627
837.443	24593
837.58	24490
837.718	24654
837.856	24608
837.993	24578
838.131	24688
838.269	24361
838.406	24471
838.544	24388
838.681	24243
838.819	24152
838.956	24007
839.094	24072
839.231	24106
839.369	24235
839.506	24277
839.643	24289
839.781	24007
839.918	24034
840.055	24041
840.193	23973
840.33	23950
840.467	24045
840.604	24018
840.742	24235
840.879	23828
841.016	23904
841.153	23748
841.29	23935
841.427	23950
841.564	24106
841.701	23935
841.838	23901
841.975	23798
842.112	23889
842.249	23798
842.385	23684
842.522	23908
842.659	23756
842.796	23649
842.933	23714
843.069	23699
843.206	23627
843.343	23668
843.479	23680
843.616	23745
843.752	23493
843.889	23551
844.025	23615
844.162	23467
844.298	23493
844.435	23463
844.571	23387
844.708	23395
844.844	23695
844.98	23531
845.117	23520
845.253	23330
845.389	23246
845.525	23330
845.661	23459
845.798	23227
845.934	23269
846.07	23189
846.206	23269
846.342	23258
846.478	23322
846.614	22869
846.75	22854
846.886	22885
847.022	23003
847.158	22953
847.294	23052
847.429	22984
847.565	22809
847.701	23033
847.837	22702
847.972	22713
848.108	22729
848.244	22778
848.379	22679
848.515	22538
848.65	22519
848.786	22504
848.921	22519
849.057	22538
849.192	22603
849.328	22481
849.463	22481
849.598	22508
849.734	22318
849.869	22394
850.004	22265
850.14	22268
850.275	22348
850.41	22158
850.545	22185
850.68	22101
850.815	22363
850.95	22322
851.085	22504
851.22	22322
851.355	22242
851.49	22348
851.625	22124
851.76	22257
851.895	22265
852.03	22173
852.165	22322
852.299	22314
852.434	22314
852.569	22253
852.703	22352
852.838	22348
852.973	22436
853.107	22398
853.242	22154
853.376	22169
853.511	22021
853.645	22101
853.78	22219
853.914	22135
854.048	21956
854.183	22074
854.317	22173
854.451	22379
854.585	22006
854.72	22150
854.854	22207
854.988	22021
855.122	22097
855.256	22006
855.39	22055
855.524	22154
855.658	22143
855.792	22029
855.926	22158
856.06	22196
856.194	22188
856.327	22051
856.461	22070
856.595	22078
856.729	22055
856.862	22131
856.996	22150
857.13	22109
857.263	22219
857.397	22196
857.53	22044
857.664	22177
857.797	22173
857.931	22242
858.064	22116
858.197	22188
858.331	22036
858.464	22051
858.597	22070
858.731	22059
858.864	22082
858.997	22059
859.13	22040
859.263	22200
859.396	22242
859.529	22006
859.662	22067
859.795	22074
859.928	21979
860.061	22223
860.194	22261
860.327	22226
860.46	22093
860.592	22158
860.725	22310
860.858	22177
860.99	22128
861.123	22090
861.256	21991
861.388	22029
861.521	22820
861.653	21975
861.786	21915
861.918	21831
862.05	21949
862.183	22017
862.315	22002
862.447	22207
862.58	22006
862.712	21808
862.844	21861
862.976	21907
863.108	21831
863.24	22287
863.372	21819
863.504	21846
863.636	21835
863.768	21869
863.9	21854
864.032	21701
864.164	21774
864.296	21682
864.428	21930
864.559	21854
864.691	21876
864.823	21922
864.954	21656
865.086	21804
865.217	21698
865.349	21587
865.48	21633
865.612	21637
865.743	21857
865.875	21603
866.006	21606
866.137	21671
866.269	21709
866.4	21610
866.531	21656
866.662	21583
866.793	21644
866.924	21595
867.055	21637
867.186	21580
867.317	21644
867.448	21488
867.579	21587
867.71	21443
867.841	21511
867.972	21606
868.103	21595
868.233	21507
868.364	21507
868.495	21793
868.625	21690
868.756	21960
868.886	21831
869.017	21895
869.147	21926
869.278	21941
869.408	21854
869.539	21846
869.669	22021
869.799	21793
869.929	21979
870.06	22017
870.19	22188
870.32	22082
870.45	22188
870.58	22207
870.71	22386
870.84	22280
870.97	22147
871.1	22314
871.23	22303
871.36	22466
871.489	22440
871.619	22504
871.749	22481
871.879	22360
872.008	22626
872.138	22455
872.267	22459
872.397	22371
872.526	22185
872.656	22268
872.785	22280
872.915	22478
873.044	22557
873.173	22527
873.303	22508
873.432	22447
873.561	22462
873.69	22352
873.819	22500
873.948	22626
874.077	22516
874.206	22459
874.335	22470
874.464	22584
874.593	22656
874.722	22672
874.851	22740
874.979	22683
875.108	22740
875.237	22645
875.365	22504
875.494	22706
875.623	22706
875.751	22675
875.88	22767
876.008	22858
876.136	22835
876.265	23079
876.393	23143
876.521	23033
876.65	23151
876.778	22908
876.906	22987
877.034	22980
877.162	23079
877.29	22877
877.418	22892
877.546	23083
877.674	23067
877.802	22980
877.93	23010
878.058	22911
878.185	22782
878.313	22961
878.441	23048
878.568	22927
878.696	22995
878.824	22968
878.951	23162
879.079	23098
879.206	23368
879.333	23189
879.461	23079
879.588	23143
879.715	23174
879.842	23345
879.97	23075
880.097	22858
880.224	22828
880.351	22934
880.478	22771
880.605	22774
880.732	22805
880.859	23003
880.986	22812
881.112	22885
881.239	22580
881.366	22611
881.493	22497
881.619	22405
881.746	22470
881.872	22398
881.999	22322
882.125	22333
882.252	22466
882.378	22310
882.505	22447
882.631	22230
882.757	22044
882.883	22261
883.01	22215
883.136	22128
883.262	21968
883.388	21949
883.514	22116
883.64	22154
883.766	21854
883.892	21876
884.018	21926
884.143	22093
884.269	22006
884.395	21835
884.52	21656
884.646	21656
884.772	21717
884.897	21618
885.023	21739
885.148	21747
885.274	21895
885.399	21876
885.524	21709
885.65	21709
885.775	21686
885.9	21637
886.025	21709
886.15	21781
886.275	21625
886.4	21667
886.525	21648
886.65	21656
886.775	21526
886.9	21854
887.025	21819
887.149	21644
887.274	21595
887.399	21530
887.523	21496
887.648	21469
887.773	21515
887.897	21435
888.021	21450
888.146	21496
888.27	21568
888.395	21545
888.519	21523
888.643	21564
888.767	21507
888.891	21397
889.015	21298
889.139	21408
889.263	21291
889.387	21401
889.511	21500
889.635	21336
889.759	21340
889.883	21256
890.006	21298
890.13	21393
890.254	21214
890.377	21218
890.501	21089
890.624	21028
890.748	21070
890.871	20967
890.995	20891
891.118	20891
891.241	20842
891.364	20876
891.488	20891
891.611	20819
891.734	20735
891.857	20910
891.98	20918
892.103	20823
892.226	20963
892.349	20876
892.471	20594
892.594	20902
892.717	20823
892.839	20823
892.962	20762
893.085	20792
893.207	20678
893.33	20602
893.452	20697
893.575	20804
893.697	20602
893.819	20902
893.941	20960
894.064	20933
894.186	20609
894.308	20754
894.43	20804
894.552	20800
894.674	20910
894.796	20746
894.918	20686
895.04	20655
895.161	20788
895.283	20807
895.405	20640
895.526	20804
895.648	20708
895.769	20815
895.891	20804
896.012	20746
896.134	20792
896.255	20739
896.376	20739
896.498	20796
896.619	20830
896.74	20800
896.861	20769
896.982	21085
897.103	21203
897.224	21024
897.345	20800
897.466	20948
897.587	21066
897.708	21074
897.828	21024
897.949	20960
898.07	20762
898.19	20845
898.311	21028
898.431	20960
898.552	21066
898.672	21039
898.792	21051
898.913	21017
899.033	20785
899.153	20754
899.273	20598
899.393	20754
899.513	20693
899.633	20651
899.753	20727
899.873	20609
899.993	20682
900.113	20590
900.232	20644
900.352	20579
900.472	20454
900.591	20377
900.711	20503
900.83	20461
900.95	20492
901.069	20590
901.189	20385
901.308	20172
901.427	20012
901.546	20024
901.665	20046
901.784	20024
901.904	19959
902.023	19841
902.141	19632
902.26	19529
902.379	19628
902.498	19556
902.617	19491
902.735	19597
902.854	19480
902.973	19438
903.091	19255
903.21	19183
903.328	19148
903.446	19137
903.565	19069
903.683	18996
903.801	18863
903.919	18932
904.038	19031
904.156	18757
904.274	18722
904.392	18760
904.51	18798
904.627	18734
904.745	18753
904.863	18878
904.981	18597
905.098	18422
905.216	18330
905.334	18597
905.451	18486
905.569	18391
905.686	18407
905.803	18445
905.921	18205
906.038	18376
906.155	18270
906.272	18152
906.389	18228
906.506	18091
906.623	18072
906.74	17893
906.857	17859
906.974	17885
907.091	17931
907.208	18053
907.324	18041
907.441	17866
907.557	17786
907.674	17665
907.79	17581
907.907	17600
908.023	17592
908.139	17707
908.256	17691
908.372	17566
908.488	17524
908.604	17505
908.72	17383
908.836	17429
908.952	17368
909.068	17364
909.184	17406
909.3	17379
909.415	17467
909.531	17391
909.647	17200
909.762	17162
909.878	17033
909.993	17098
910.108	16961
910.224	17064
910.339	17014
910.454	16923
910.57	16957
910.685	16843
910.8	17090
910.915	17022
911.03	16816
911.145	16710
911.259	16683
911.374	16679
911.489	16558
911.604	16561
911.718	16409
911.833	16481
911.947	16371
912.062	16230
912.176	16432
912.291	16527
912.405	16405
912.519	16706
912.633	16630
912.748	16497
912.862	16451
912.976	16147
913.09	16101
913.204	16200
913.318	16181
913.431	16112
913.545	16306
913.659	16299
913.772	16143
913.886	16143
914	16017
914.113	16158
914.226	16116
914.34	16013
914.453	15899
914.566	16063
914.68	15899
914.793	15922
914.906	15568
915.019	15606
915.132	15492
915.245	15511
915.358	15591
915.47	15622
915.583	15690
915.696	15603
915.809	15812
915.921	15732
916.034	15629
916.146	15466
916.259	15462
916.371	15656
916.483	15511
916.595	15378
916.708	15458
916.82	15405
916.932	15466
917.044	15412
917.156	15408
917.268	15222
917.38	15272
917.491	15226
917.603	15321
917.715	15329
917.826	15302
917.938	15119
918.049	15081
918.161	15237
918.272	15321
918.384	15367
918.495	15108
918.606	14956
918.717	14998
918.828	15020
918.939	14982
919.05	14929
919.161	14948
919.272	14701
919.383	14899
919.494	15024
919.604	15047
919.715	14990
919.826	14872
919.936	14906
920.047	15039
920.157	14986
920.267	15108
920.378	14941
920.488	15028
920.598	15222
920.708	15176
920.818	15009
920.928	15131
921.038	15199
921.148	15157
921.258	14975
921.368	14804
921.477	14606
921.587	14712
921.697	14556
921.806	14667
921.916	14549
922.025	14339
922.134	14301
922.244	14240
922.353	14336
922.462	14282
922.571	14081
922.68	13955
922.789	13959
922.898	14008
923.007	13845
923.116	13917
923.224	13837
923.333	13959
923.442	13746
923.55	13795
923.659	13841
923.767	13932
923.876	13704
923.984	13765
924.092	13700
924.201	13693
924.309	13674
924.417	13620
924.525	13658
924.633	13662
924.741	14309
924.849	13343
924.956	13594
925.064	13346
925.172	13324
925.279	13350
925.387	13324
925.494	13369
925.602	13460
925.709	13426
925.816	13282
925.924	13232
926.031	13388
926.138	13362
926.245	13312
926.352	13194
926.459	13335
926.566	13415
926.673	13221
926.779	13091
926.886	13152
926.993	12951
927.099	13031
927.206	12901
927.312	12871
927.419	12905
927.525	12848
927.631	12901
927.737	12787
927.843	12681
927.95	12616
928.056	12692
928.162	12730
928.267	12738
928.373	13331
928.479	12810
928.585	12490
928.69	12642
928.796	12730
928.901	12551
929.007	12429
929.112	12597
929.218	12426
929.323	12547
929.428	12414
929.533	12486
929.638	12350
929.743	12445
929.848	12471
929.953	12346
930.058	12296
930.163	12091
930.267	12102
930.372	12232
930.477	12015
930.581	12289
930.685	12163
930.79	12091
930.894	12011
930.998	11961
931.103	12072
931.207	11828
931.311	11699
931.415	11638
931.519	11402
931.623	11425
