Data from test_V78500241_1462.txt Node
Date: Fri Mar 25 15:51:55 CST 2022
User: usil
Spectrometer: V785-0024
Trigger mode: 0
Integration Time (sec): 4.000000E-1
Scans to average: 1
Nonlinearity correction enabled: false
Boxcar width: 0
Storing dark spectrum: false
XAxis mode: Wavelengths
Number of Pixels in Spectrum: 1024
>>>>>Begin Spectral Data<<<<<
801.071	27618
801.214	27526
801.356	27260
801.499	27252
801.641	27150
801.783	27032
801.926	27131
802.068	27074
802.211	27081
802.353	26899
802.496	26883
802.638	26655
802.78	26705
802.923	26731
803.065	26511
803.208	26796
803.35	26765
803.492	26925
803.635	26956
803.777	26659
803.919	26769
804.061	27218
804.204	27017
804.346	26792
804.488	26720
804.63	26826
804.773	26861
804.915	27043
805.057	26777
805.199	26940
805.341	26956
805.483	26902
805.626	26967
805.768	26842
805.91	26876
806.052	27127
806.194	26971
806.336	27222
806.478	27009
806.62	27001
806.762	27161
806.904	27321
807.046	27458
807.188	27386
807.33	27591
807.472	27469
807.614	27386
807.756	27355
807.898	27268
808.04	27192
808.182	27180
808.324	27310
808.465	27268
808.607	27583
808.749	27717
808.891	27652
809.033	27743
809.174	27564
809.316	27587
809.458	27557
809.6	27557
809.741	27857
809.883	27823
810.025	27838
810.166	27907
810.308	27964
810.45	27941
810.591	27816
810.733	27644
810.875	27526
811.016	27492
811.158	27583
811.299	27629
811.441	27899
811.582	27755
811.724	27614
811.865	27580
812.007	27462
812.148	27625
812.29	27587
812.431	27603
812.573	27979
812.714	27922
812.855	28090
812.997	28207
813.138	28280
813.279	28306
813.421	28261
813.562	28032
813.703	27876
813.845	27804
813.986	27610
814.127	27454
814.268	27355
814.41	27313
814.551	27313
814.692	27329
814.833	27264
814.974	27260
815.115	27237
815.256	27176
815.397	27211
815.539	27176
815.68	26990
815.821	26948
815.962	27135
816.103	27013
816.244	26902
816.385	26804
816.526	26948
816.666	26705
816.807	26355
816.948	26602
817.089	26625
817.23	26518
817.371	26689
817.512	26560
817.653	26609
817.793	26507
817.934	26655
818.075	26492
818.216	26518
818.356	26533
818.497	26313
818.638	26221
818.778	26324
818.919	26328
819.06	26389
819.2	26514
819.341	26640
819.481	26537
819.622	26663
819.762	26838
819.903	26819
820.043	26781
820.184	26712
820.324	26663
820.465	26765
820.605	26575
820.746	26739
820.886	26579
821.026	26651
821.167	26739
821.307	26594
821.447	26667
821.588	26465
821.728	26180
821.868	26214
822.008	26008
822.149	26005
822.289	25940
822.429	25742
822.569	25776
822.709	25632
822.849	25578
822.99	25559
823.13	25556
823.27	25460
823.41	25381
823.55	25285
823.69	25487
823.83	25396
823.97	25301
824.11	25198
824.25	25053
824.389	25031
824.529	25137
824.669	25198
824.809	25274
824.949	25335
825.089	25221
825.228	25187
825.368	25072
825.508	25053
825.648	25050
825.787	25015
825.927	25194
826.067	25000
826.206	24970
826.346	25008
826.485	25122
826.625	24897
826.765	25046
826.904	24916
827.044	24802
827.183	24848
827.323	24719
827.462	24844
827.601	24779
827.741	24738
827.88	24760
828.02	24692
828.159	24658
828.298	24726
828.437	24745
828.577	24597
828.716	24802
828.855	24612
828.994	24445
829.134	24407
829.273	24528
829.412	24471
829.551	24311
829.69	24433
829.829	24433
829.968	24509
830.107	24585
830.246	24429
830.385	24334
830.524	24357
830.663	24201
830.802	24171
830.941	23878
831.08	24076
831.219	24140
831.357	23988
831.496	24235
831.635	23935
831.774	23996
831.913	23958
832.051	23790
832.19	23874
832.329	23824
832.467	23760
832.606	23676
832.744	23687
832.883	23604
833.022	23608
833.16	23783
833.299	23687
833.437	23779
833.576	23764
833.714	23821
833.852	23794
833.991	23817
834.129	23870
834.267	23790
834.406	23710
834.544	23779
834.682	23775
834.821	23756
834.959	23889
835.097	23684
835.235	23843
835.373	23726
835.511	23638
835.65	23611
835.788	23531
835.926	23463
836.064	23383
836.202	23429
836.34	23611
836.478	23726
836.615	23421
836.753	23710
836.891	23646
837.029	23531
837.167	23573
837.305	23414
837.443	23429
837.58	23471
837.718	23448
837.856	23520
837.993	23311
838.131	23402
838.269	23292
838.406	23330
838.544	23250
838.681	23113
838.819	23037
838.956	22873
839.094	22869
839.231	22946
839.369	23113
839.506	23250
839.643	23166
839.781	22942
839.918	22790
840.055	22858
840.193	22869
840.33	22816
840.467	22820
840.604	22839
840.742	23121
840.879	22748
841.016	22778
841.153	22691
841.29	22771
841.427	22748
841.564	22839
841.701	22847
841.838	22713
841.975	22691
842.112	22820
842.249	22630
842.385	22500
842.522	22942
842.659	22641
842.796	22519
842.933	22436
843.069	22409
843.206	22599
843.343	22630
843.479	22580
843.616	22523
843.752	22409
843.889	22295
844.025	22436
844.162	22303
844.298	22538
844.435	22223
844.571	22314
844.708	22322
844.844	22561
844.98	22489
845.117	22436
845.253	22318
845.389	22207
845.525	22261
845.661	22280
845.798	22169
845.934	22101
846.07	21941
846.206	22143
846.342	22116
846.478	22059
846.614	21838
846.75	21770
846.886	21869
847.022	21880
847.158	21907
847.294	21934
847.429	21797
847.565	21842
847.701	22067
847.837	21530
847.972	21397
848.108	21641
848.244	21667
848.379	21435
848.515	21302
848.65	21329
848.786	21511
848.921	21412
849.057	21511
849.192	21405
849.328	21439
849.463	21363
849.598	21332
849.734	21294
849.869	21203
850.004	21211
850.14	21268
850.275	21138
850.41	21180
850.545	21192
850.68	21070
850.815	21169
850.95	21192
851.085	21233
851.22	21241
851.355	21283
851.49	21173
851.625	21089
851.76	21142
851.895	21268
852.03	21237
852.165	21176
852.299	21150
852.434	21252
852.569	21329
852.703	21150
852.838	21203
852.973	21351
853.107	21344
853.242	21085
853.376	20994
853.511	20998
853.645	20933
853.78	21058
853.914	21009
854.048	20952
854.183	21043
854.317	21146
854.451	21233
854.585	21020
854.72	20979
854.854	21138
854.988	21036
855.122	21058
855.256	20925
855.39	20944
855.524	21001
855.658	20975
855.792	20921
855.926	21066
856.06	21142
856.194	21089
856.327	21062
856.461	20975
856.595	20902
856.729	21032
856.862	21169
856.996	21100
857.13	21192
857.263	21176
857.397	21032
857.53	21058
857.664	20956
857.797	21096
857.931	21123
858.064	20982
858.197	21127
858.331	20880
858.464	21051
858.597	20906
858.731	21013
858.864	20895
858.997	20941
859.13	20960
859.263	21039
859.396	21131
859.529	20982
859.662	20941
859.795	20941
859.928	21047
860.061	21211
860.194	21138
860.327	21199
860.46	21142
860.592	21138
860.725	21241
860.858	21116
860.99	21150
861.123	21032
861.256	20925
861.388	20994
861.521	21724
861.653	20891
861.786	20864
861.918	20868
862.05	20861
862.183	20925
862.315	21085
862.447	20956
862.58	20944
862.712	20887
862.844	20625
862.976	20815
863.108	20842
863.24	21150
863.372	20667
863.504	20644
863.636	20765
863.768	20807
863.9	20792
864.032	20590
864.164	20811
864.296	20785
864.428	20724
864.559	20861
864.691	20819
864.823	20785
864.954	20674
865.086	20682
865.217	20750
865.349	20629
865.48	20530
865.612	20507
865.743	20629
865.875	20689
866.006	20518
866.137	20648
866.269	20705
866.4	20708
866.531	20632
866.662	20552
866.793	20609
866.924	20571
867.055	20495
867.186	20617
867.317	20560
867.448	20454
867.579	20415
867.71	20556
867.841	20385
867.972	20507
868.103	20583
868.233	20552
868.364	20492
868.495	20511
868.625	20724
868.756	20864
868.886	20762
869.017	20811
869.147	20929
869.278	21024
869.408	20826
869.539	20857
869.669	20979
869.799	20902
869.929	20960
870.06	20990
870.19	21058
870.32	21058
870.45	21131
870.58	21154
870.71	21329
870.84	21310
870.97	20960
871.1	21176
871.23	21439
871.36	21454
871.489	21313
871.619	21348
871.749	21374
871.879	21454
872.008	21412
872.138	21454
872.267	21416
872.397	21363
872.526	21298
872.656	21302
872.785	21310
872.915	21542
873.044	21462
873.173	21481
873.303	21507
873.432	21576
873.561	21564
873.69	21526
873.819	21545
873.948	21549
874.077	21473
874.206	21424
874.335	21454
874.464	21568
874.593	21641
874.722	21701
874.851	21766
874.979	21614
875.108	21747
875.237	21641
875.365	21656
875.494	21671
875.623	21857
875.751	21587
875.88	21690
876.008	21808
876.136	21804
876.265	22124
876.393	22249
876.521	22109
876.65	22154
876.778	22036
876.906	22101
877.034	22063
877.162	22036
877.29	21975
877.418	22051
877.546	21994
877.674	22082
877.802	22070
877.93	22025
878.058	22044
878.185	21846
878.313	22013
878.441	22044
878.568	21968
878.696	21953
878.824	22055
878.951	22078
879.079	22143
879.206	22219
879.333	22253
879.461	22147
879.588	22090
879.715	22223
879.842	22310
879.97	22051
880.097	21857
880.224	21907
880.351	21903
880.478	21835
880.605	21720
880.732	21770
880.859	22029
880.986	21778
881.112	21941
881.239	21789
881.366	21496
881.493	21507
881.619	21443
881.746	21530
881.872	21321
881.999	21405
882.125	21321
882.252	21492
882.378	21389
882.505	21542
882.631	21207
882.757	21104
882.883	21367
883.01	21161
883.136	21024
883.262	20982
883.388	20914
883.514	21089
883.64	21058
883.766	21051
883.892	20864
884.018	20861
884.143	20956
884.269	21077
884.395	20811
884.52	20667
884.646	20868
884.772	20629
884.897	20693
885.023	20663
885.148	20815
885.274	20956
885.399	20880
885.524	20773
885.65	20796
885.775	20762
885.9	20868
886.025	20921
886.15	20845
886.275	20682
886.4	20701
886.525	20663
886.65	20773
886.775	20651
886.9	20849
887.025	20914
887.149	20731
887.274	20530
887.399	20457
887.523	20522
887.648	20427
887.773	20514
887.897	20693
888.021	20632
888.146	20423
888.27	20754
888.395	20522
888.519	20522
888.643	20499
888.767	20590
888.891	20412
889.015	20328
889.139	20339
889.263	20290
889.387	20328
889.511	20583
889.635	20484
889.759	20290
889.883	20423
890.006	20503
890.13	20408
890.254	20225
890.377	20252
890.501	20077
890.624	20096
890.748	20180
890.871	20039
890.995	19902
891.118	19772
891.241	19868
891.364	19871
891.488	20100
891.611	19868
891.734	19822
891.857	19928
891.98	19906
892.103	20005
892.226	19963
892.349	19822
892.471	19746
892.594	19841
892.717	19807
892.839	19849
892.962	19860
893.085	19940
893.207	19780
893.33	19674
893.452	19811
893.575	19940
893.697	19871
893.819	19955
893.941	20073
894.064	19868
894.186	19700
894.308	19746
894.43	19845
894.552	20046
894.674	19887
894.796	19712
894.918	19814
895.04	19845
895.161	19883
895.283	19803
895.405	19746
895.526	19799
895.648	19753
895.769	19970
895.891	19822
896.012	20005
896.134	19974
896.255	19841
896.376	19856
896.498	19917
896.619	20043
896.74	19845
896.861	19898
896.982	20202
897.103	20286
897.224	20176
897.345	20103
897.466	20065
897.587	19978
897.708	20240
897.828	19986
897.949	19970
898.07	19822
898.19	19750
898.311	20122
898.431	20016
898.552	20240
898.672	20069
898.792	20126
898.913	20122
899.033	19947
899.153	19917
899.273	19799
899.393	19955
899.513	19772
899.633	19811
899.753	19837
899.873	19811
899.993	19913
900.113	19738
900.232	19791
900.352	19681
900.472	19670
900.591	19616
900.711	19624
900.83	19537
900.95	19742
901.069	19624
901.189	19548
901.308	19251
901.427	19141
901.546	19110
901.665	19190
901.784	19232
901.904	19152
902.023	18993
902.141	18783
902.26	18753
902.379	18734
902.498	18757
902.617	18734
902.735	18688
902.854	18635
902.973	18692
903.091	18460
903.21	18277
903.328	18258
903.446	18220
903.565	18144
903.683	18285
903.801	18045
903.919	18190
904.038	18136
904.156	17794
904.274	18060
904.392	17870
904.51	17836
904.627	18019
904.745	18034
904.863	17954
904.981	17722
905.098	17634
905.216	17623
905.334	17577
905.451	17627
905.569	17695
905.686	17657
905.803	17581
905.921	17414
906.038	17562
906.155	17436
906.272	17334
906.389	17296
906.506	17223
906.623	17208
906.74	17208
906.857	17151
906.974	17170
907.091	17254
907.208	17220
907.324	17231
907.441	17052
907.557	16934
907.674	16858
907.79	16797
907.907	16847
908.023	16900
908.139	16900
908.256	16721
908.372	16854
908.488	16683
908.604	16683
908.72	16512
908.836	16611
908.952	16653
909.068	16626
909.184	16660
909.3	16588
909.415	16634
909.531	16622
909.647	16314
909.762	16341
909.878	16230
909.993	16257
910.108	16287
910.224	16287
910.339	16116
910.454	16204
910.57	16128
910.685	15975
910.8	16421
910.915	16226
911.03	16154
911.145	15956
911.259	15903
911.374	15892
911.489	15895
911.604	15850
911.718	15679
911.833	15679
911.947	15587
912.062	15618
912.176	15652
912.291	15732
912.405	15561
912.519	15899
912.633	15865
912.748	15591
912.862	15671
912.976	15614
913.09	15462
913.204	15458
913.318	15515
913.431	15511
913.545	15496
913.659	15584
913.772	15458
913.886	15214
914	15332
914.113	15279
914.226	15336
914.34	15374
914.453	15089
914.566	15275
914.68	15135
914.793	15119
914.906	14921
915.019	14990
915.132	14807
915.245	14918
915.358	14804
915.47	14872
915.583	14910
915.696	14941
915.809	14975
915.921	15032
916.034	14838
916.146	14838
916.259	14716
916.371	14941
916.483	14864
916.595	14792
916.708	14708
916.82	14724
916.932	14587
917.044	14602
917.156	14682
917.268	14511
917.38	14663
917.491	14457
917.603	14594
917.715	14678
917.826	14522
917.938	14575
918.049	14400
918.161	14492
918.272	14724
918.384	14552
918.495	14526
918.606	14396
918.717	14336
918.828	14225
918.939	14404
919.05	14199
919.161	14389
919.272	14043
919.383	14088
919.494	14374
919.604	14552
919.715	14355
919.826	14134
919.936	14240
920.047	14381
920.157	14320
920.267	14473
920.378	14244
920.488	14225
920.598	14431
920.708	14564
920.818	14400
920.928	14431
921.038	14636
921.148	14533
921.258	14218
921.368	14130
921.477	14031
921.587	14016
921.697	13940
921.806	14020
921.916	13826
922.025	13708
922.134	13616
922.244	13670
922.353	13712
922.462	13609
922.571	13533
922.68	13369
922.789	13282
922.898	13460
923.007	13183
923.116	13411
923.224	13255
923.333	13187
923.442	13171
923.55	13198
923.659	13183
923.767	13160
923.876	13053
923.984	13168
924.092	13008
924.201	13126
924.309	13122
924.417	13137
924.525	13031
924.633	13031
924.741	13715
924.849	12787
924.956	12920
925.064	12745
925.172	12711
925.279	12738
925.387	12726
925.494	12764
925.602	12821
925.709	12745
925.816	12730
925.924	12703
926.031	12837
926.138	12669
926.245	12730
926.352	12585
926.459	12734
926.566	12722
926.673	12597
926.779	12525
926.886	12528
926.993	12323
927.099	12342
927.206	12194
927.312	12262
927.419	12296
927.525	12281
927.631	12277
927.737	12175
927.843	12247
927.95	11984
928.056	12224
928.162	12140
928.267	12232
928.373	12787
928.479	12292
928.585	11931
928.69	12072
928.796	12102
928.901	12076
929.007	11813
929.112	12041
929.218	11916
929.323	11961
929.428	11843
929.533	11923
929.638	11863
929.743	11764
929.848	11935
929.953	11824
930.058	11779
930.163	11467
930.267	11581
930.372	11718
930.477	11539
930.581	11851
930.685	11615
930.79	11471
930.894	11425
930.998	11395
931.103	11581
931.207	11170
931.311	11151
931.415	11056
931.519	10896
931.623	10881
