Data from test_V78500241_3202.txt Node
Date: Fri Mar 25 16:03:58 CST 2022
User: usil
Spectrometer: V785-0024
Trigger mode: 0
Integration Time (sec): 4.000000E-1
Scans to average: 1
Nonlinearity correction enabled: false
Boxcar width: 0
Storing dark spectrum: false
XAxis mode: Wavelengths
Number of Pixels in Spectrum: 1024
>>>>>Begin Spectral Data<<<<<
801.071	28599
801.214	28546
801.356	28352
801.499	28299
801.641	28177
801.783	28173
801.926	28295
802.068	28162
802.211	28200
802.353	28074
802.496	27987
802.638	27838
802.78	27899
802.923	27804
803.065	27679
803.208	27751
803.35	27857
803.492	28059
803.635	28112
803.777	28070
803.919	28181
804.061	28542
804.204	28219
804.346	28006
804.488	27945
804.63	28173
804.773	28097
804.915	28242
805.057	28314
805.199	27994
805.341	28287
805.483	28375
805.626	28371
805.768	28044
805.91	28299
806.052	28478
806.194	28238
806.336	28390
806.478	28390
806.62	28284
806.762	28306
806.904	28596
807.046	28843
807.188	28668
807.33	28744
807.472	28831
807.614	28763
807.756	28656
807.898	28504
808.04	28550
808.182	28519
808.324	28584
808.465	28641
808.607	28805
808.749	28972
808.891	29056
809.033	29185
809.174	29037
809.316	28961
809.458	29037
809.6	29102
809.741	29159
809.883	29075
810.025	29197
810.166	29539
810.308	29353
810.45	29258
810.591	29326
810.733	29071
810.875	28999
811.016	28892
811.158	29037
811.299	29018
811.441	29235
811.582	29178
811.724	29090
811.865	28957
812.007	29014
812.148	28934
812.29	29041
812.431	29220
812.573	29360
812.714	29482
812.855	29391
812.997	29608
813.138	29649
813.279	29680
813.421	29627
813.562	29452
813.703	29315
813.845	29155
813.986	28919
814.127	28828
814.268	28736
814.41	28653
814.551	28679
814.692	28835
814.833	28721
814.974	28691
815.115	28812
815.256	28637
815.397	28508
815.539	28573
815.68	28485
815.821	28504
815.962	28664
816.103	28535
816.244	28382
816.385	28223
816.526	28367
816.666	28249
816.807	27987
816.948	28158
817.089	28040
817.23	28032
817.371	28010
817.512	27934
817.653	28002
817.793	27835
817.934	27873
818.075	28013
818.216	27964
818.356	27953
818.497	27987
818.638	27701
818.778	27819
818.919	27701
819.06	27800
819.2	28002
819.341	27934
819.481	28048
819.622	28219
819.762	28314
819.903	28325
820.043	28367
820.184	28169
820.324	28139
820.465	28234
820.605	28185
820.746	28196
820.886	27850
821.026	28234
821.167	28078
821.307	28211
821.447	28063
821.588	27953
821.728	27880
821.868	27690
822.008	27568
822.149	27481
822.289	27405
822.429	27245
822.569	27146
822.709	27154
822.849	26937
822.99	26914
823.13	26925
823.27	27028
823.41	26800
823.55	26868
823.69	26785
823.83	26834
823.97	26769
824.11	26583
824.25	26549
824.389	26617
824.529	26792
824.669	26651
824.809	26712
824.949	26815
825.089	26750
825.228	26670
825.368	26336
825.508	26492
825.648	26541
825.787	26609
825.927	26655
826.067	26457
826.206	26469
826.346	26560
826.485	26636
826.625	26423
826.765	26644
826.904	26629
827.044	26381
827.183	26355
827.323	26328
827.462	26298
827.601	26278
827.741	26267
827.88	26339
828.02	26187
828.159	26119
828.298	26366
828.437	26343
828.577	26263
828.716	26408
828.855	26119
828.994	25890
829.134	25966
829.273	26069
829.412	25879
829.551	25788
829.69	25940
829.829	25970
829.968	25966
830.107	25913
830.246	25989
830.385	26008
830.524	25837
830.663	25784
830.802	25643
830.941	25506
831.08	25537
831.219	25601
831.357	25616
831.496	25734
831.635	25567
831.774	25445
831.913	25460
832.051	25426
832.19	25324
832.329	25282
832.467	25297
832.606	25251
832.744	25422
832.883	25206
833.022	25209
833.16	25259
833.299	25183
833.437	25209
833.576	25228
833.714	25403
833.852	25346
833.991	25312
834.129	25400
834.267	25384
834.406	25369
834.544	25343
834.682	25187
834.821	25213
834.959	25449
835.097	25282
835.235	25457
835.373	25179
835.511	25152
835.65	25217
835.788	25133
835.926	25091
836.064	24973
836.202	25069
836.34	25156
836.478	25168
836.615	25000
836.753	25107
836.891	25217
837.029	25156
837.167	24947
837.305	25065
837.443	25019
837.58	24905
837.718	24932
837.856	24958
837.993	24951
838.131	24992
838.269	24821
838.406	24787
838.544	24779
838.681	24639
838.819	24627
838.956	24475
839.094	24365
839.231	24559
839.369	24540
839.506	24897
839.643	24719
839.781	24433
839.918	24407
840.055	24319
840.193	24410
840.33	24311
840.467	24388
840.604	24372
840.742	24528
840.879	24243
841.016	24361
841.153	24174
841.29	24395
841.427	24205
841.564	24334
841.701	24220
841.838	24262
841.975	24232
842.112	24254
842.249	24133
842.385	24041
842.522	24308
842.659	23996
842.796	24190
842.933	24152
843.069	24007
843.206	24003
843.343	24254
843.479	24110
843.616	24068
843.752	23836
843.889	23821
844.025	24022
844.162	23726
844.298	23988
844.435	23809
844.571	23805
844.708	23916
844.844	24079
844.98	24106
845.117	23923
845.253	23828
845.389	23760
845.525	23809
845.661	23649
845.798	23493
845.934	23733
846.07	23600
846.206	23592
846.342	23653
846.478	23646
846.614	23372
846.75	23197
846.886	23368
847.022	23448
847.158	23322
847.294	23318
847.429	23296
847.565	23383
847.701	23570
847.837	23132
847.972	23094
848.108	23048
848.244	23132
848.379	23064
848.515	22911
848.65	22881
848.786	22987
848.921	22908
849.057	22980
849.192	23025
849.328	22820
849.463	22892
849.598	22881
849.734	22782
849.869	22786
850.004	22653
850.14	22675
850.275	22637
850.41	22580
850.545	22550
850.68	22607
850.815	22580
850.95	22645
851.085	22759
851.22	22744
851.355	22805
851.49	22656
851.625	22584
851.76	22778
851.895	22618
852.03	22626
852.165	22630
852.299	22702
852.434	22713
852.569	22702
852.703	22771
852.838	22675
852.973	22858
853.107	22740
853.242	22649
853.376	22436
853.511	22333
853.645	22322
853.78	22554
853.914	22447
854.048	22455
854.183	22409
854.317	22447
854.451	22721
854.585	22554
854.72	22504
854.854	22527
854.988	22451
855.122	22729
855.256	22352
855.39	22375
855.524	22512
855.658	22459
855.792	22409
855.926	22561
856.06	22466
856.194	22516
856.327	22421
856.461	22371
856.595	22447
856.729	22481
856.862	22569
856.996	22470
857.13	22645
857.263	22531
857.397	22557
857.53	22417
857.664	22519
857.797	22565
857.931	22592
858.064	22569
858.197	22519
858.331	22466
858.464	22542
858.597	22432
858.731	22527
858.864	22417
858.997	22390
859.13	22504
859.263	22409
859.396	22641
859.529	22527
859.662	22478
859.795	22466
859.928	22421
860.061	22713
860.194	22691
860.327	22527
860.46	22554
860.592	22531
860.725	22577
860.858	22554
860.99	22478
861.123	22371
861.256	22409
861.388	22382
861.521	23075
861.653	22363
861.786	22230
861.918	22265
862.05	22337
862.183	22447
862.315	22318
862.447	22596
862.58	22405
862.712	22230
862.844	22135
862.976	22200
863.108	22112
863.24	22599
863.372	22158
863.504	22158
863.636	22188
863.768	22173
863.9	22215
864.032	22067
864.164	22074
864.296	22177
864.428	22226
864.559	22154
864.691	22295
864.823	22242
864.954	22211
865.086	22234
865.217	22078
865.349	22032
865.48	22128
865.612	22120
865.743	22215
865.875	22086
866.006	22059
866.137	22166
866.269	21983
866.4	22112
866.531	22040
866.662	22025
866.793	21884
866.924	21915
867.055	21983
867.186	21972
867.317	21930
867.448	21945
867.579	21934
867.71	21964
867.841	21930
867.972	22002
868.103	21991
868.233	21972
868.364	21994
868.495	22116
868.625	22200
868.756	22287
868.886	22257
869.017	22253
869.147	22329
869.278	22268
869.408	22265
869.539	22272
869.669	22219
869.799	22318
869.929	22215
870.06	22310
870.19	22519
870.32	22569
870.45	22584
870.58	22603
870.71	22577
870.84	22660
870.97	22489
871.1	22626
871.23	22809
871.36	22869
871.489	22710
871.619	22748
871.749	22801
871.879	22816
872.008	23018
872.138	22809
872.267	22862
872.397	22790
872.526	22694
872.656	22729
872.785	22637
872.915	22919
873.044	22991
873.173	22923
873.303	22927
873.432	22904
873.561	22965
873.69	22892
873.819	22850
873.948	22915
874.077	22892
874.206	22892
874.335	22889
874.464	23067
874.593	22972
874.722	23056
874.851	22995
874.979	23132
875.108	23128
875.237	23006
875.365	22911
875.494	23159
875.623	23056
875.751	23083
875.88	23128
876.008	23288
876.136	23242
876.265	23455
876.393	23585
876.521	23672
876.65	23516
876.778	23341
876.906	23398
877.034	23436
877.162	23421
877.29	23486
877.418	23448
877.546	23444
877.674	23337
877.802	23341
877.93	23478
878.058	23444
878.185	23364
878.313	23509
878.441	23406
878.568	23299
878.696	23425
878.824	23452
878.951	23463
879.079	23665
879.206	23707
879.333	23539
879.461	23512
879.588	23509
879.715	23531
879.842	23745
879.97	23589
880.097	23284
880.224	23372
880.351	23444
880.478	23315
880.605	23140
880.732	23208
880.859	23531
880.986	23197
881.112	23216
881.239	23246
881.366	23086
881.493	22908
881.619	22759
881.746	22908
881.872	22809
881.999	22786
882.125	22801
882.252	22949
882.378	22797
882.505	22911
882.631	22672
882.757	22664
882.883	22588
883.01	22615
883.136	22504
883.262	22284
883.388	22386
883.514	22497
883.64	22580
883.766	22432
883.892	22280
884.018	22265
884.143	22402
884.269	22402
884.395	22211
884.52	22120
884.646	22173
884.772	21998
884.897	22105
885.023	22166
885.148	22219
885.274	22386
885.399	22143
885.524	22120
885.65	22143
885.775	22105
885.9	22051
886.025	22128
886.15	22234
886.275	22147
886.4	21998
886.525	22063
886.65	21949
886.775	22059
886.9	22219
887.025	22303
887.149	22086
887.274	21918
887.399	21941
887.523	21899
887.648	21880
887.773	21892
887.897	22010
888.021	21884
888.146	21831
888.27	22055
888.395	21964
888.519	22017
888.643	21835
888.767	21759
888.891	21854
889.015	21781
889.139	21827
889.263	21732
889.387	21857
889.511	21827
889.635	21800
889.759	21637
889.883	21652
890.006	21789
890.13	21690
890.254	21648
890.377	21523
890.501	21412
890.624	21549
890.748	21370
890.871	21329
890.995	21256
891.118	21199
891.241	21294
891.364	21287
891.488	21348
891.611	21325
891.734	21252
891.857	21207
891.98	21199
892.103	21218
892.226	21207
892.349	21256
892.471	20971
892.594	21195
892.717	21173
892.839	21180
892.962	21165
893.085	21203
893.207	21108
893.33	21093
893.452	20971
893.575	21146
893.697	20986
893.819	21294
893.941	21268
894.064	21256
894.186	21009
894.308	21043
894.43	21188
894.552	21222
894.674	21199
894.796	21032
894.918	21093
895.04	21081
895.161	21211
895.283	20952
895.405	21062
895.526	21013
895.648	21165
895.769	21214
895.891	21074
896.012	21051
896.134	21112
896.255	21135
896.376	21138
896.498	21123
896.619	21112
896.74	20963
896.861	21161
896.982	21591
897.103	21428
897.224	21321
897.345	21302
897.466	21287
897.587	21420
897.708	21393
897.828	21291
897.949	21127
898.07	21142
898.19	21249
898.311	21249
898.431	21195
898.552	21226
898.672	21378
898.792	21405
898.913	21306
899.033	21245
899.153	21161
899.273	20960
899.393	20963
899.513	21180
899.633	21020
899.753	20982
899.873	21005
899.993	20998
900.113	20956
900.232	20971
900.352	20796
900.472	20849
900.591	20785
900.711	20925
900.83	20815
900.95	20910
901.069	20830
901.189	20575
901.308	20533
901.427	20415
901.546	20301
901.665	20381
901.784	20290
901.904	20229
902.023	20130
902.141	19986
902.26	19864
902.379	19982
902.498	19906
902.617	19818
902.735	19947
902.854	19871
902.973	19814
903.091	19632
903.21	19483
903.328	19628
903.446	19400
903.565	19194
903.683	19434
903.801	19228
903.919	19316
904.038	19232
904.156	19057
904.274	19050
904.392	19027
904.51	19103
904.627	19103
904.745	19023
904.863	19110
904.981	18897
905.098	18837
905.216	18764
905.334	18692
905.451	18749
905.569	18696
905.686	18741
905.803	18779
905.921	18631
906.038	18604
906.155	18342
906.272	18517
906.389	18422
906.506	18391
906.623	18266
906.74	18258
906.857	18171
906.974	18228
907.091	18285
907.208	18384
907.324	18308
907.441	18117
907.557	18087
907.674	18019
907.79	17874
907.907	17946
908.023	17973
908.139	17980
908.256	18045
908.372	17836
908.488	17809
908.604	17790
908.72	17676
908.836	17684
908.952	17600
909.068	17646
909.184	17798
909.3	17687
909.415	17790
909.531	17615
909.647	17452
909.762	17337
909.878	17395
909.993	17353
910.108	17334
910.224	17284
910.339	17269
910.454	17132
910.57	17071
910.685	17147
910.8	17334
910.915	17322
911.03	17200
911.145	17079
911.259	16930
911.374	16942
911.489	16919
911.604	16869
911.718	16634
911.833	16820
911.947	16607
912.062	16519
912.176	16660
912.291	16740
912.405	16771
912.519	16866
912.633	16847
912.748	16740
912.862	16615
912.976	16470
913.09	16417
913.204	16550
913.318	16493
913.431	16679
913.545	16599
913.659	16611
913.772	16500
913.886	16424
914	16337
914.113	16318
914.226	16451
914.34	16413
914.453	16131
914.566	16344
914.68	16246
914.793	16048
914.906	15998
915.019	15960
915.132	15857
915.245	15842
915.358	15892
915.47	15869
915.583	15865
915.696	15888
915.809	15895
915.921	16044
916.034	15781
916.146	15778
916.259	15755
916.371	15793
916.483	15827
916.595	15698
916.708	15732
916.82	15682
916.932	15739
917.044	15675
917.156	15549
917.268	15504
917.38	15500
917.491	15481
917.603	15523
917.715	15523
917.826	15629
917.938	15466
918.049	15367
918.161	15435
918.272	15660
918.384	15530
918.495	15454
918.606	15173
918.717	15252
918.828	15222
918.939	15294
919.05	15157
919.161	15272
919.272	15093
919.383	15131
919.494	15393
919.604	15435
919.715	15260
919.826	15165
919.936	15199
920.047	15332
920.157	15161
920.267	15329
920.378	15325
920.488	15135
920.598	15458
920.708	15614
920.818	15294
920.928	15313
921.038	15526
921.148	15462
921.258	15058
921.368	15051
921.477	14963
921.587	14883
921.697	14853
921.806	14876
921.916	14743
922.025	14610
922.134	14473
922.244	14511
922.353	14575
922.462	14358
922.571	14461
922.68	14252
922.789	14195
922.898	14153
923.007	14138
923.116	14199
923.224	14111
923.333	14278
923.442	14020
923.55	13978
923.659	13989
923.767	14096
923.876	14016
923.984	14027
924.092	13955
924.201	14054
924.309	13959
924.417	13944
924.525	13913
924.633	13814
924.741	14655
924.849	13616
924.956	13674
925.064	13605
925.172	13476
925.279	13518
925.387	13674
925.494	13613
925.602	13632
925.709	13655
925.816	13403
925.924	13449
926.031	13651
926.138	13567
926.245	13590
926.352	13396
926.459	13575
926.566	13582
926.673	13483
926.779	13331
926.886	13308
926.993	13194
927.099	13228
927.206	13088
927.312	13129
927.419	13137
927.525	13008
927.631	13107
927.737	12996
927.843	12863
927.95	12856
928.056	12916
928.162	12951
928.267	13027
928.373	13495
928.479	12951
928.585	12730
928.69	12882
928.796	12913
928.901	12673
929.007	12627
929.112	12772
929.218	12779
929.323	12745
929.428	12681
929.533	12791
929.638	12642
929.743	12604
929.848	12570
929.953	12612
930.058	12456
930.163	12243
930.267	12304
930.372	12464
930.477	12323
930.581	12467
930.685	12346
930.79	12209
930.894	12076
930.998	12117
931.103	12216
931.207	11916
931.311	11855
931.415	11752
931.519	11589
931.623	11608
