Data from test_V78500241_952.txt Node
Date: Fri Mar 25 15:48:23 CST 2022
User: usil
Spectrometer: V785-0024
Trigger mode: 0
Integration Time (sec): 4.000000E-1
Scans to average: 1
Nonlinearity correction enabled: false
Boxcar width: 0
Storing dark spectrum: false
XAxis mode: Wavelengths
Number of Pixels in Spectrum: 1024
>>>>>Begin Spectral Data<<<<<
801.071	28641
801.214	28573
801.356	28329
801.499	28204
801.641	28200
801.783	28120
801.926	28276
802.068	28135
802.211	28036
802.353	27945
802.496	27812
802.638	27888
802.78	27732
802.923	27846
803.065	27823
803.208	27762
803.35	27884
803.492	27895
803.635	27998
803.777	28006
803.919	28036
804.061	28306
804.204	28055
804.346	27903
804.488	27949
804.63	28147
804.773	27960
804.915	27987
805.057	28272
805.199	27998
805.341	28207
805.483	28192
805.626	28188
805.768	28150
805.91	28177
806.052	28120
806.194	28154
806.336	28417
806.478	28169
806.62	28265
806.762	28329
806.904	28531
807.046	28824
807.188	28679
807.33	28500
807.472	28637
807.614	28527
807.756	28672
807.898	28550
808.04	28440
808.182	28390
808.324	28481
808.465	28508
808.607	28744
808.749	28847
808.891	28927
809.033	29056
809.174	29109
809.316	28995
809.458	28835
809.6	28816
809.741	28930
809.883	28976
810.025	29090
810.166	29155
810.308	29204
810.45	29140
810.591	29094
810.733	28942
810.875	28809
811.016	28828
811.158	28729
811.299	29121
811.441	29102
811.582	29079
811.724	29052
811.865	28881
812.007	28786
812.148	28965
812.29	28968
812.431	29124
812.573	29299
812.714	29387
812.855	29520
812.997	29539
813.138	29691
813.279	29554
813.421	29440
813.562	29436
813.703	29383
813.845	29189
813.986	28888
814.127	28752
814.268	28504
814.41	28713
814.551	28683
814.692	28748
814.833	28660
814.974	28672
815.115	28721
815.256	28557
815.397	28557
815.539	28546
815.68	28504
815.821	28413
815.962	28516
816.103	28504
816.244	28238
816.385	28120
816.526	28169
816.666	28063
816.807	27918
816.948	27983
817.089	28078
817.23	27975
817.371	28017
817.512	27857
817.653	27953
817.793	27873
817.934	27987
818.075	27964
818.216	27941
818.356	28010
818.497	27873
818.638	27603
818.778	27694
818.919	27759
819.06	27838
819.2	27816
819.341	27922
819.481	27812
819.622	28063
819.762	28207
819.903	28090
820.043	28215
820.184	28086
820.324	28093
820.465	28124
820.605	27998
820.746	28097
820.886	27975
821.026	28120
821.167	27945
821.307	28105
821.447	27975
821.588	27975
821.728	27835
821.868	27625
822.008	27526
822.149	27473
822.289	27310
822.429	27146
822.569	27093
822.709	27211
822.849	27062
822.99	27043
823.13	26849
823.27	26872
823.41	26773
823.55	26769
823.69	26811
823.83	26800
823.97	26651
824.11	26549
824.25	26663
824.389	26537
824.529	26659
824.669	26617
824.809	26720
824.949	26689
825.089	26659
825.228	26632
825.368	26457
825.508	26552
825.648	26522
825.787	26552
825.927	26537
826.067	26575
826.206	26495
826.346	26484
826.485	26545
826.625	26442
826.765	26541
826.904	26457
827.044	26233
827.183	26351
827.323	26161
827.462	26183
827.601	26168
827.741	26149
827.88	26309
828.02	26077
828.159	25989
828.298	26100
828.437	26290
828.577	26157
828.716	26244
828.855	25993
828.994	25947
829.134	25944
829.273	26001
829.412	25978
829.551	25788
829.69	25811
829.829	26016
829.968	25875
830.107	25822
830.246	25879
830.385	25753
830.524	25868
830.663	25719
830.802	25620
830.941	25460
831.08	25457
831.219	25556
831.357	25453
831.496	25712
831.635	25430
831.774	25331
831.913	25270
832.051	25266
832.19	25293
832.329	25232
832.467	25103
832.606	25156
832.744	25171
832.883	25084
833.022	25145
833.16	25194
833.299	25232
833.437	25285
833.576	25213
833.714	25194
833.852	25274
833.991	25164
834.129	25190
834.267	25190
834.406	25259
834.544	25282
834.682	25343
834.821	25221
834.959	25304
835.097	25099
835.235	25285
835.373	25187
835.511	25126
835.65	25031
835.788	25034
835.926	24871
836.064	24810
836.202	25008
836.34	24916
836.478	25129
836.615	24981
836.753	25065
836.891	25110
837.029	24992
837.167	24992
837.305	24932
837.443	24962
837.58	24924
837.718	24844
837.856	24943
837.993	24764
838.131	24909
838.269	24760
838.406	24760
838.544	24646
838.681	24582
838.819	24525
838.956	24361
839.094	24407
839.231	24224
839.369	24502
839.506	24757
839.643	24544
839.781	24330
839.918	24327
840.055	24258
840.193	24342
840.33	24251
840.467	24228
840.604	24300
840.742	24570
840.879	24197
841.016	24091
841.153	24148
841.29	24369
841.427	24262
841.564	24273
841.701	24114
841.838	24060
841.975	24098
842.112	24117
842.249	23999
842.385	23969
842.522	24220
842.659	24095
842.796	23882
842.933	23965
843.069	24034
843.206	23882
843.343	24098
843.479	23878
843.616	24011
843.752	23783
843.889	23714
844.025	23752
844.162	23726
844.298	23870
844.435	23722
844.571	23779
844.708	23707
844.844	23920
844.98	23942
845.117	23859
845.253	23798
845.389	23581
845.525	23695
845.661	23699
845.798	23467
845.934	23695
846.07	23486
846.206	23512
846.342	23726
846.478	23570
846.614	23292
846.75	23200
846.886	23239
847.022	23326
847.158	23235
847.294	23254
847.429	23246
847.565	23181
847.701	23334
847.837	22965
847.972	22828
848.108	22957
848.244	23105
848.379	22896
848.515	22839
848.65	22694
848.786	22793
848.921	22831
849.057	22987
849.192	22824
849.328	22740
849.463	22889
849.598	22805
849.734	22679
849.869	22721
850.004	22626
850.14	22618
850.275	22653
850.41	22356
850.545	22569
850.68	22706
850.815	22466
850.95	22527
851.085	22637
851.22	22736
851.355	22611
851.49	22698
851.625	22630
851.76	22573
851.895	22462
852.03	22508
852.165	22527
852.299	22561
852.434	22649
852.569	22584
852.703	22443
852.838	22523
852.973	22729
853.107	22656
853.242	22531
853.376	22379
853.511	22325
853.645	22341
853.78	22417
853.914	22398
854.048	22291
854.183	22341
854.317	22424
854.451	22569
854.585	22466
854.72	22402
854.854	22390
854.988	22284
855.122	22371
855.256	22303
855.39	22371
855.524	22493
855.658	22382
855.792	22360
855.926	22318
856.06	22455
856.194	22455
856.327	22234
856.461	22303
856.595	22337
856.729	22386
856.862	22451
856.996	22451
857.13	22481
857.263	22382
857.397	22363
857.53	22367
857.664	22322
857.797	22424
857.931	22440
858.064	22428
858.197	22314
858.331	22447
858.464	22371
858.597	22223
858.731	22375
858.864	22280
858.997	22402
859.13	22360
859.263	22493
859.396	22417
859.529	22265
859.662	22249
859.795	22284
859.928	22363
860.061	22489
860.194	22637
860.327	22451
860.46	22356
860.592	22493
860.725	22599
860.858	22542
860.99	22379
861.123	22367
861.256	22459
861.388	22459
861.521	23090
861.653	22287
861.786	22162
861.918	22120
862.05	22375
862.183	22246
862.315	22390
862.447	22352
862.58	22284
862.712	22162
862.844	21960
862.976	22169
863.108	22200
863.24	22462
863.372	22074
863.504	22093
863.636	22013
863.768	22090
863.9	21953
864.032	22006
864.164	22059
864.296	22196
864.428	22188
864.559	22070
864.691	22128
864.823	22097
864.954	22112
865.086	22101
865.217	21941
865.349	21972
865.48	21907
865.612	22002
865.743	22150
865.875	22032
866.006	21895
866.137	22036
866.269	22002
866.4	21930
866.531	21918
866.662	21842
866.793	21869
866.924	21941
867.055	21895
867.186	21816
867.317	21975
867.448	21873
867.579	21922
867.71	21835
867.841	21739
867.972	21926
868.103	21869
868.233	21949
868.364	22036
868.495	21949
868.625	22139
868.756	22360
868.886	22139
869.017	22086
869.147	22215
869.278	22200
869.408	22032
869.539	22082
869.669	22093
869.799	22162
869.929	22257
870.06	22150
870.19	22489
870.32	22489
870.45	22470
870.58	22535
870.71	22599
870.84	22519
870.97	22573
871.1	22641
871.23	22752
871.36	22664
871.489	22641
871.619	22748
871.749	22774
871.879	22801
872.008	22717
872.138	22634
872.267	22835
872.397	22596
872.526	22519
872.656	22618
872.785	22622
872.915	22706
873.044	22881
873.173	22687
873.303	22797
873.432	22752
873.561	22862
873.69	22702
873.819	22641
873.948	22873
874.077	22881
874.206	22755
874.335	22847
874.464	22786
874.593	22934
874.722	22911
874.851	22965
874.979	22900
875.108	23048
875.237	22987
875.365	22854
875.494	22904
875.623	23037
875.751	22915
875.88	23044
876.008	23159
876.136	23124
876.265	23421
876.393	23471
876.521	23467
876.65	23543
876.778	23246
876.906	23368
877.034	23170
877.162	23322
877.29	23387
877.418	23398
877.546	23311
877.674	23303
877.802	23296
877.93	23280
878.058	23288
878.185	23345
878.313	23299
878.441	23231
878.568	23155
878.696	23136
878.824	23326
878.951	23436
879.079	23615
879.206	23539
879.333	23414
879.461	23383
879.588	23345
879.715	23505
879.842	23611
879.97	23360
880.097	23334
880.224	23113
880.351	23216
880.478	23185
880.605	23010
880.732	23277
880.859	23337
880.986	23250
881.112	23181
881.239	22995
881.366	22820
881.493	22801
881.619	22580
881.746	22812
881.872	22752
881.999	22706
882.125	22618
882.252	22660
882.378	22668
882.505	22797
882.631	22527
882.757	22337
882.883	22557
883.01	22352
883.136	22356
883.262	22299
883.388	22261
883.514	22257
883.64	22462
883.766	22147
883.892	22063
884.018	22192
884.143	22261
884.269	22382
884.395	22128
884.52	21972
884.646	22093
884.772	21907
884.897	21915
885.023	21949
885.148	22040
885.274	22128
885.399	22105
885.524	21968
885.65	22109
885.775	22040
885.9	21960
886.025	22055
886.15	22055
886.275	21895
886.4	21956
886.525	21972
886.65	21941
886.775	22006
886.9	22234
887.025	22143
887.149	21998
887.274	21854
887.399	21823
887.523	21869
887.648	21800
887.773	21667
887.897	21937
888.021	21808
888.146	21663
888.27	21785
888.395	21888
888.519	21652
888.643	21778
888.767	21778
888.891	21599
889.015	21625
889.139	21648
889.263	21637
889.387	21785
889.511	21789
889.635	21694
889.759	21511
889.883	21572
890.006	21488
890.13	21656
890.254	21458
890.377	21511
890.501	21348
890.624	21344
890.748	21268
890.871	21298
890.995	21051
891.118	21089
891.241	21051
891.364	21222
891.488	21241
891.611	21138
891.734	21077
891.857	21184
891.98	21116
892.103	21142
892.226	21135
892.349	21089
892.471	20773
892.594	21058
892.717	21142
892.839	21013
892.962	21009
893.085	21013
893.207	20982
893.33	20910
893.452	20872
893.575	21074
893.697	21017
893.819	21203
893.941	21150
894.064	21108
894.186	20998
894.308	21009
894.43	21066
894.552	21089
894.674	20990
894.796	20933
894.918	20914
895.04	20910
895.161	21028
895.283	21036
895.405	20963
895.526	20982
895.648	20960
895.769	21051
895.891	21036
896.012	21085
896.134	20941
896.255	20941
896.376	21119
896.498	20990
896.619	21146
896.74	21001
896.861	21055
896.982	21256
897.103	21310
897.224	21146
897.345	21272
897.466	21070
897.587	21150
897.708	21454
897.828	21245
897.949	21074
898.07	20952
898.19	21146
898.311	21176
898.431	21142
898.552	21237
898.672	21192
898.792	21245
898.913	21222
899.033	21013
899.153	20944
899.273	20880
899.393	20979
899.513	21070
899.633	20815
899.753	20918
899.873	20956
899.993	20944
900.113	20929
900.232	20765
900.352	20868
900.472	20849
900.591	20625
900.711	20686
900.83	20587
900.95	20872
901.069	20693
901.189	20507
901.308	20434
901.427	20237
901.546	20343
901.665	20286
901.784	20206
901.904	20130
902.023	19997
902.141	19837
902.26	19860
902.379	19860
902.498	19738
902.617	19822
902.735	19723
902.854	19712
902.973	19597
903.091	19354
903.21	19476
903.328	19495
903.446	19324
903.565	19183
903.683	19247
903.801	19141
903.919	19213
904.038	19057
904.156	19008
904.274	19137
904.392	18932
904.51	18970
904.627	19031
904.745	18924
904.863	19122
904.981	18802
905.098	18658
905.216	18642
905.334	18654
905.451	18673
905.569	18677
905.686	18707
905.803	18719
905.921	18437
906.038	18475
906.155	18536
906.272	18357
906.389	18376
906.506	18155
906.623	18220
906.74	18174
906.857	18049
906.974	18007
907.091	18213
907.208	18350
907.324	18102
907.441	18003
907.557	17923
907.674	17996
907.79	17840
907.907	17920
908.023	17912
908.139	17942
908.256	17923
908.372	17847
908.488	17710
908.604	17668
908.72	17600
908.836	17577
908.952	17463
909.068	17577
909.184	17714
909.3	17551
909.415	17649
909.531	17573
909.647	17402
909.762	17341
909.878	17330
909.993	17364
910.108	17307
910.224	17185
910.339	17277
910.454	17098
910.57	17090
910.685	16911
910.8	17410
910.915	17288
911.03	17067
911.145	16885
911.259	16858
911.374	16911
911.489	16759
911.604	16771
911.718	16634
911.833	16588
911.947	16622
912.062	16493
912.176	16672
912.291	16672
912.405	16550
912.519	16942
912.633	16752
912.748	16736
912.862	16573
912.976	16382
913.09	16329
913.204	16447
913.318	16443
913.431	16546
913.545	16561
913.659	16402
913.772	16333
913.886	16291
914	16177
914.113	16333
914.226	16310
914.34	16295
914.453	16097
914.566	16314
914.68	16131
914.793	16021
914.906	15812
915.019	15785
915.132	15694
915.245	15789
915.358	15724
915.47	15770
915.583	15854
915.696	15743
915.809	15911
915.921	16010
916.034	15698
916.146	15705
916.259	15648
916.371	15739
916.483	15682
916.595	15701
916.708	15652
916.82	15705
916.932	15648
917.044	15610
917.156	15507
917.268	15412
917.38	15519
917.491	15344
917.603	15424
917.715	15481
917.826	15561
917.938	15397
918.049	15291
918.161	15367
918.272	15435
918.384	15454
918.495	15275
918.606	15150
918.717	15218
918.828	15154
918.939	15150
919.05	15119
919.161	15020
919.272	14948
919.383	15085
919.494	15199
919.604	15329
919.715	15138
919.826	15074
919.936	15116
920.047	15157
920.157	15093
920.267	15272
920.378	15077
920.488	15093
920.598	15222
920.708	15378
920.818	15195
920.928	15272
921.038	15462
921.148	15374
921.258	15055
921.368	14967
921.477	14849
921.587	14823
921.697	14746
921.806	14880
921.916	14705
922.025	14632
922.134	14514
922.244	14419
922.353	14507
922.462	14404
922.571	14396
922.68	14145
922.789	14062
922.898	14176
923.007	14081
923.116	14229
923.224	14062
923.333	14050
923.442	14016
923.55	13978
923.659	13955
923.767	14024
923.876	13970
923.984	13883
924.092	13811
924.201	13959
924.309	13849
924.417	13830
924.525	13784
924.633	13803
924.741	14720
924.849	13563
924.956	13723
925.064	13518
925.172	13563
925.279	13529
925.387	13483
925.494	13533
925.602	13597
925.709	13552
925.816	13335
925.924	13495
926.031	13464
926.138	13441
926.245	13506
926.352	13270
926.459	13571
926.566	13518
926.673	13369
926.779	13282
926.886	13221
926.993	13053
927.099	13107
927.206	12985
927.312	12947
927.419	13126
927.525	13046
927.631	13046
927.737	12920
927.843	12939
927.95	12783
928.056	12734
928.162	12894
928.267	12875
928.373	13430
928.479	13015
928.585	12684
928.69	12878
928.796	12814
928.901	12730
929.007	12525
929.112	12654
929.218	12646
929.323	12658
929.428	12608
929.533	12620
929.638	12521
929.743	12513
929.848	12536
929.953	12456
930.058	12471
930.163	12266
930.267	12296
930.372	12327
930.477	12273
930.581	12437
930.685	12330
930.79	12098
930.894	12235
930.998	12201
931.103	12205
931.207	11817
931.311	11748
931.415	11767
931.519	11444
931.623	11539
