Data from test_V78500241_772.txt Node
Date: Fri Mar 25 15:47:08 CST 2022
User: usil
Spectrometer: V785-0024
Trigger mode: 0
Integration Time (sec): 4.000000E-1
Scans to average: 1
Nonlinearity correction enabled: false
Boxcar width: 0
Storing dark spectrum: false
XAxis mode: Wavelengths
Number of Pixels in Spectrum: 1024
>>>>>Begin Spectral Data<<<<<
801.071	27975
801.214	27945
801.356	27857
801.499	27614
801.641	27538
801.783	27633
801.926	27755
802.068	27679
802.211	27473
802.353	27545
802.496	27294
802.638	27386
802.78	27157
802.923	27161
803.065	27348
803.208	27241
803.35	27298
803.492	27370
803.635	27504
803.777	27260
803.919	27389
804.061	27671
804.204	27606
804.346	27420
804.488	27473
804.63	27374
804.773	27389
804.915	27389
805.057	27568
805.199	27504
805.341	27648
805.483	27759
805.626	27587
805.768	27545
805.91	27523
806.052	27690
806.194	27641
806.336	27819
806.478	27728
806.62	27698
806.762	27614
806.904	27972
807.046	28253
807.188	28082
807.33	28006
807.472	28112
807.614	27934
807.756	28029
807.898	27899
808.04	27800
808.182	27884
808.324	27827
808.465	27960
808.607	28070
808.749	28394
808.891	28466
809.033	28466
809.174	28325
809.316	28280
809.458	28291
809.6	28360
809.741	28527
809.883	28424
810.025	28599
810.166	28588
810.308	28565
810.45	28550
810.591	28466
810.733	28428
810.875	28443
811.016	28154
811.158	28204
811.299	28318
811.441	28599
811.582	28500
811.724	28299
811.865	28246
812.007	28295
812.148	28367
812.29	28337
812.431	28360
812.573	28626
812.714	28702
812.855	28763
812.997	28930
813.138	28900
813.279	28911
813.421	28923
813.562	28847
813.703	28485
813.845	28447
813.986	28287
814.127	28051
814.268	28131
814.41	27895
814.551	28013
814.692	28070
814.833	28013
814.974	27960
815.115	27937
815.256	27797
815.397	27854
815.539	27869
815.68	27701
815.821	27686
815.962	27785
816.103	27823
816.244	27686
816.385	27629
816.526	27511
816.666	27382
816.807	27195
816.948	27332
817.089	27249
817.23	27351
817.371	27195
817.512	27218
817.653	27199
817.793	27260
817.934	27233
818.075	27370
818.216	27340
818.356	27207
818.497	27176
818.638	27062
818.778	27032
818.919	27096
819.06	27096
819.2	27169
819.341	27237
819.481	27283
819.622	27595
819.762	27633
819.903	27496
820.043	27515
820.184	27367
820.324	27530
820.465	27424
820.605	27317
820.746	27340
820.886	27222
821.026	27416
821.167	27488
821.307	27405
821.447	27469
821.588	27207
821.728	27020
821.868	26998
822.008	26842
822.149	26705
822.289	26731
822.429	26511
822.569	26579
822.709	26511
822.849	26298
822.99	26214
823.13	26233
823.27	26187
823.41	26195
823.55	26183
823.69	26138
823.83	26119
823.97	26027
824.11	25913
824.25	25966
824.389	25966
824.529	25860
824.669	25928
824.809	26256
824.949	26119
825.089	26119
825.228	26031
825.368	25738
825.508	25822
825.648	25757
825.787	25879
825.927	25894
826.067	25890
826.206	25753
826.346	25944
826.485	25837
826.625	25826
826.765	25871
826.904	25928
827.044	25597
827.183	25605
827.323	25559
827.462	25643
827.601	25643
827.741	25373
827.88	25514
828.02	25403
828.159	25571
828.298	25495
828.437	25525
828.577	25499
828.716	25601
828.855	25358
828.994	25129
829.134	25312
829.273	25183
829.412	25251
829.551	25076
829.69	25251
829.829	25221
829.968	25350
830.107	25388
830.246	25263
830.385	25232
830.524	25171
830.663	25015
830.802	25027
830.941	24802
831.08	24810
831.219	24890
831.357	24973
831.496	25080
831.635	24768
831.774	24905
831.913	24715
832.051	24616
832.19	24654
832.329	24681
832.467	24456
832.606	24467
832.744	24429
832.883	24407
833.022	24452
833.16	24608
833.299	24486
833.437	24494
833.576	24639
833.714	24555
833.852	24608
833.991	24688
834.129	24711
834.267	24658
834.406	24502
834.544	24669
834.682	24540
834.821	24505
834.959	24684
835.097	24460
835.235	24589
835.373	24483
835.511	24525
835.65	24544
835.788	24327
835.926	24251
836.064	24060
836.202	24270
836.34	24296
836.478	24372
836.615	24273
836.753	24323
836.891	24498
837.029	24361
837.167	24201
837.305	24285
837.443	24315
837.58	24235
837.718	24235
837.856	24281
837.993	24148
838.131	24247
838.269	23980
838.406	24167
838.544	24049
838.681	23969
838.819	23889
838.956	23805
839.094	23676
839.231	23851
839.369	23855
839.506	24030
839.643	23874
839.781	23695
839.918	23676
840.055	23691
840.193	23596
840.33	23760
840.467	23760
840.604	23634
840.742	23836
840.879	23501
841.016	23627
841.153	23440
841.29	23733
841.427	23600
841.564	23627
841.701	23600
841.838	23490
841.975	23455
842.112	23471
842.249	23539
842.385	23459
842.522	23528
842.659	23467
842.796	23326
842.933	23360
843.069	23315
843.206	23277
843.343	23482
843.479	23349
843.616	23387
843.752	23067
843.889	23231
844.025	23227
844.162	23083
844.298	23162
844.435	23113
844.571	23128
844.708	23189
844.844	23170
844.98	23315
845.117	23220
845.253	23064
845.389	22987
845.525	23014
845.661	23010
845.798	22889
845.934	22889
846.07	22759
846.206	22942
846.342	22976
846.478	22782
846.614	22596
846.75	22531
846.886	22447
847.022	22717
847.158	22740
847.294	22538
847.429	22641
847.565	22485
847.701	22809
847.837	22306
847.972	22185
848.108	22436
848.244	22417
848.379	22188
848.515	22135
848.65	22147
848.786	22135
848.921	22310
849.057	22379
849.192	22261
849.328	22261
849.463	22287
849.598	22257
849.734	22006
849.869	21937
850.004	21994
850.14	21926
850.275	21998
850.41	21934
850.545	21983
850.68	21922
850.815	21899
850.95	21987
851.085	22154
851.22	21964
851.355	21945
851.49	22040
851.625	21911
851.76	21926
851.895	21918
852.03	21873
852.165	21983
852.299	21895
852.434	21975
852.569	22006
852.703	21994
852.838	22051
852.973	22048
853.107	21953
853.242	21895
853.376	21774
853.511	21629
853.645	21732
853.78	21835
853.914	21747
854.048	21644
854.183	21663
854.317	21720
854.451	21895
854.585	21762
854.72	21804
854.854	21728
854.988	21682
855.122	21675
855.256	21618
855.39	21762
855.524	21785
855.658	21781
855.792	21823
855.926	21732
856.06	21679
856.194	21873
856.327	21869
856.461	21690
856.595	21663
856.729	21751
856.862	21797
856.996	21907
857.13	21785
857.263	21774
857.397	21785
857.53	21850
857.664	21804
857.797	21861
857.931	21880
858.064	21743
858.197	21899
858.331	21770
858.464	21751
858.597	21652
858.731	21701
858.864	21789
858.997	21629
859.13	21842
859.263	21701
859.396	21789
859.529	21835
859.662	21599
859.795	21770
859.928	21606
860.061	21804
860.194	21937
860.327	21827
860.46	21739
860.592	21831
860.725	21876
860.858	21918
860.99	21762
861.123	21694
861.256	21641
861.388	21736
861.521	22375
861.653	21663
861.786	21511
861.918	21633
862.05	21625
862.183	21568
862.315	21614
862.447	21743
862.58	21572
862.712	21496
862.844	21458
862.976	21561
863.108	21431
863.24	21892
863.372	21344
863.504	21466
863.636	21374
863.768	21428
863.9	21477
864.032	21374
864.164	21462
864.296	21523
864.428	21557
864.559	21393
864.691	21515
864.823	21492
864.954	21431
865.086	21344
865.217	21302
865.349	21298
865.48	21355
865.612	21348
865.743	21469
865.875	21401
866.006	21260
866.137	21367
866.269	21359
866.4	21386
866.531	21306
866.662	21298
866.793	21245
866.924	21298
867.055	21287
867.186	21374
867.317	21199
867.448	21100
867.579	21203
867.71	21161
867.841	21195
867.972	21222
868.103	21336
868.233	21203
868.364	21169
868.495	21485
868.625	21439
868.756	21549
868.886	21439
869.017	21485
869.147	21561
869.278	21500
869.408	21496
869.539	21515
869.669	21599
869.799	21629
869.929	21633
870.06	21564
870.19	21793
870.32	21751
870.45	21903
870.58	21846
870.71	22025
870.84	22135
870.97	21816
871.1	21926
871.23	22040
871.36	22116
871.489	22017
871.619	22010
871.749	22173
871.879	22063
872.008	22272
872.138	22097
872.267	22074
872.397	21949
872.526	21960
872.656	22010
872.785	21945
872.915	22036
873.044	22147
873.173	22265
873.303	22128
873.432	22272
873.561	22257
873.69	22139
873.819	22120
873.948	22261
874.077	22109
874.206	22067
874.335	21930
874.464	22306
874.593	22462
874.722	22291
874.851	22398
874.979	22363
875.108	22417
875.237	22287
875.365	22246
875.494	22394
875.623	22417
875.751	22344
875.88	22303
876.008	22379
876.136	22440
876.265	22744
876.393	22839
876.521	22713
876.65	22820
876.778	22679
876.906	22740
877.034	22698
877.162	22778
877.29	22725
877.418	22748
877.546	22763
877.674	22664
877.802	22706
877.93	22592
878.058	22664
878.185	22615
878.313	22592
878.441	22721
878.568	22417
878.696	22641
878.824	22786
878.951	22782
879.079	22793
879.206	22900
879.333	22809
879.461	22733
879.588	22816
879.715	22839
879.842	22938
879.97	22816
880.097	22512
880.224	22485
880.351	22493
880.478	22474
880.605	22561
880.732	22451
880.859	22885
880.986	22580
881.112	22523
881.239	22367
881.366	22287
881.493	22181
881.619	22177
881.746	22128
881.872	21998
881.999	22021
882.125	22082
882.252	22116
882.378	22021
882.505	22097
882.631	21975
882.757	21827
882.883	21808
883.01	21838
883.136	21793
883.262	21701
883.388	21614
883.514	21835
883.64	21720
883.766	21587
883.892	21530
884.018	21656
884.143	21705
884.269	21812
884.395	21534
884.52	21389
884.646	21420
884.772	21275
884.897	21252
885.023	21469
885.148	21492
885.274	21504
885.399	21382
885.524	21382
885.65	21591
885.775	21454
885.9	21397
886.025	21572
886.15	21473
886.275	21294
886.4	21332
886.525	21386
886.65	21370
886.775	21298
886.9	21526
887.025	21557
887.149	21313
887.274	21275
887.399	21192
887.523	21245
887.648	21195
887.773	21131
887.897	21161
888.021	21207
888.146	21211
888.27	21161
888.395	21123
888.519	21180
888.643	21298
888.767	21146
888.891	21066
889.015	20982
889.139	21058
889.263	20971
889.387	21081
889.511	21298
889.635	21157
889.759	20979
889.883	20891
890.006	20960
890.13	21032
890.254	20834
890.377	20948
890.501	20697
890.624	20560
890.748	20708
890.871	20598
890.995	20480
891.118	20492
891.241	20541
891.364	20621
891.488	20625
891.611	20602
891.734	20537
891.857	20560
891.98	20552
892.103	20480
892.226	20457
892.349	20431
892.471	20366
892.594	20370
892.717	20434
892.839	20412
892.962	20457
893.085	20492
893.207	20476
893.33	20370
893.452	20385
893.575	20602
893.697	20438
893.819	20678
893.941	20632
894.064	20640
894.186	20381
894.308	20240
894.43	20434
894.552	20503
894.674	20541
894.796	20412
894.918	20313
895.04	20351
895.161	20514
895.283	20518
895.405	20366
895.526	20423
895.648	20412
895.769	20442
895.891	20530
896.012	20514
896.134	20332
896.255	20507
896.376	20362
896.498	20389
896.619	20495
896.74	20389
896.861	20473
896.982	20758
897.103	20887
897.224	20636
897.345	20571
897.466	20705
897.587	20606
897.708	20716
897.828	20670
897.949	20590
898.07	20393
898.19	20450
898.311	20727
898.431	20587
898.552	20693
898.672	20735
898.792	20701
898.913	20568
899.033	20568
899.153	20419
899.273	20324
899.393	20419
899.513	20396
899.633	20351
899.753	20457
899.873	20317
899.993	20400
900.113	20317
900.232	20358
900.352	20328
900.472	20244
900.591	20145
900.711	20191
900.83	20092
900.95	20377
901.069	20221
901.189	20054
901.308	19750
901.427	19795
901.546	19856
901.665	19666
901.784	19780
901.904	19693
902.023	19529
902.141	19331
902.26	19304
902.379	19358
902.498	19266
902.617	19255
902.735	19228
902.854	19327
902.973	19156
903.091	18894
903.21	18867
903.328	18901
903.446	18833
903.565	18654
903.683	18757
903.801	18540
903.919	18688
904.038	18589
904.156	18479
904.274	18448
904.392	18479
904.51	18460
904.627	18498
904.745	18509
904.863	18467
904.981	18380
905.098	18182
905.216	18190
905.334	18133
905.451	18258
905.569	18079
905.686	18148
905.803	18102
905.921	17923
906.038	17992
906.155	18049
906.272	17817
906.389	17817
906.506	17741
906.623	17615
906.74	17756
906.857	17585
906.974	17661
907.091	17653
907.208	17798
907.324	17714
907.441	17634
907.557	17429
907.674	17490
907.79	17360
907.907	17326
908.023	17444
908.139	17436
908.256	17299
908.372	17349
908.488	17242
908.604	17265
908.72	17086
908.836	17193
908.952	17048
909.068	17162
909.184	17288
909.3	17121
909.415	17113
909.531	16961
909.647	16923
909.762	16869
909.878	16843
909.993	16824
910.108	16805
910.224	16816
910.339	16767
910.454	16588
910.57	16626
910.685	16478
910.8	16866
910.915	16835
911.03	16698
911.145	16538
911.259	16360
911.374	16470
911.489	16402
911.604	16196
911.718	16109
911.833	16192
911.947	16093
912.062	16021
912.176	16234
912.291	16246
912.405	16101
912.519	16272
912.633	16360
912.748	16204
912.862	16215
912.976	15953
913.09	15892
913.204	15892
913.318	15934
913.431	16040
913.545	15991
913.659	16120
913.772	15880
913.886	15755
914	15739
914.113	15766
914.226	15861
914.34	15827
914.453	15633
914.566	15797
914.68	15720
914.793	15553
914.906	15351
915.019	15420
915.132	15279
915.245	15275
915.358	15355
915.47	15363
915.583	15233
915.696	15397
915.809	15420
915.921	15412
916.034	15317
916.146	15226
916.259	15180
916.371	15355
916.483	15310
916.595	15188
916.708	15283
916.82	15256
916.932	15161
917.044	15085
917.156	15142
917.268	14979
917.38	15081
917.491	14986
917.603	15074
917.715	15150
917.826	15116
917.938	14857
918.049	14758
918.161	15024
918.272	15039
918.384	15017
918.495	14979
918.606	14800
918.717	14777
918.828	14815
918.939	14720
919.05	14708
919.161	14777
919.272	14484
919.383	14678
919.494	14697
919.604	14967
919.715	14762
919.826	14701
919.936	14697
920.047	14769
920.157	14731
920.267	14849
920.378	14708
920.488	14648
920.598	14830
920.708	14963
920.818	14883
920.928	14834
921.038	14948
921.148	14948
921.258	14667
921.368	14530
921.477	14366
921.587	14381
921.697	14237
921.806	14473
921.916	14358
922.025	14180
922.134	14077
922.244	14020
922.353	14069
922.462	13989
922.571	13913
922.68	13814
922.789	13723
922.898	13731
923.007	13693
923.116	13704
923.224	13719
923.333	13712
923.442	13590
923.55	13556
923.659	13616
923.767	13529
923.876	13556
923.984	13586
924.092	13381
924.201	13445
924.309	13499
924.417	13449
924.525	13324
924.633	13373
924.741	14400
924.849	13202
924.956	13320
925.064	13206
925.172	13031
925.279	13110
925.387	13274
925.494	13057
925.602	13316
925.709	13168
925.816	13012
925.924	13080
926.031	13175
926.138	13095
926.245	13095
926.352	12977
926.459	13076
926.566	13110
926.673	13050
926.779	12951
926.886	12901
926.993	12684
927.099	12612
927.206	12627
927.312	12654
927.419	12760
927.525	12627
927.631	12730
927.737	12593
927.843	12555
927.95	12369
928.056	12578
928.162	12486
928.267	12532
928.373	13122
928.479	12582
928.585	12365
928.69	12506
928.796	12555
928.901	12479
929.007	12220
929.112	12426
929.218	12270
929.323	12258
929.428	12239
929.533	12308
929.638	12144
929.743	12205
929.848	12175
929.953	12235
930.058	12041
930.163	11961
930.267	11931
930.372	12098
930.477	11897
930.581	11996
930.685	11939
930.79	11805
930.894	11897
930.998	11790
931.103	11916
931.207	11573
931.311	11455
931.415	11364
931.519	11170
931.623	11246
