Data from test_V78500241_2060.txt Node
Date: Fri Mar 25 15:56:04 CST 2022
User: usil
Spectrometer: V785-0024
Trigger mode: 0
Integration Time (sec): 4.000000E-1
Scans to average: 1
Nonlinearity correction enabled: false
Boxcar width: 0
Storing dark spectrum: false
XAxis mode: Wavelengths
Number of Pixels in Spectrum: 1024
>>>>>Begin Spectral Data<<<<<
801.071	28831
801.214	28877
801.356	28607
801.499	28721
801.641	28538
801.783	28599
801.926	28615
802.068	28599
802.211	28367
802.353	28493
802.496	28158
802.638	28310
802.78	28173
802.923	28192
803.065	28219
803.208	28200
803.35	28291
803.492	28474
803.635	28379
803.777	28375
803.919	28508
804.061	28911
804.204	28584
804.346	28561
804.488	28409
804.63	28557
804.773	28443
804.915	28508
805.057	28691
805.199	28535
805.341	28592
805.483	28599
805.626	28733
805.768	28622
805.91	28679
806.052	28672
806.194	28577
806.336	28793
806.478	28683
806.62	28706
806.762	28858
806.904	28927
807.046	29235
807.188	29025
807.33	29075
807.472	29223
807.614	29041
807.756	29113
807.898	28976
808.04	28999
808.182	28915
808.324	28892
808.465	29056
808.607	29223
808.749	29368
808.891	29459
809.033	29455
809.174	29505
809.316	29421
809.458	29242
809.6	29288
809.741	29402
809.883	29493
810.025	29573
810.166	29608
810.308	29726
810.45	29577
810.591	29570
810.733	29410
810.875	29322
811.016	29375
811.158	29414
811.299	29425
811.441	29646
811.582	29661
811.724	29326
811.865	29391
812.007	29322
812.148	29452
812.29	29398
812.431	29665
812.573	29786
812.714	29748
812.855	29954
812.997	29984
813.138	30076
813.279	30095
813.421	29992
813.562	30064
813.703	29786
813.845	29524
813.986	29440
814.127	29170
814.268	29166
814.41	29204
814.551	29143
814.692	29197
814.833	28961
814.974	29071
815.115	29117
815.256	28946
815.397	29109
815.539	28968
815.68	29037
815.821	28915
815.962	28980
816.103	28900
816.244	28725
816.385	28828
816.526	28459
816.666	28630
816.807	28375
816.948	28432
817.089	28500
817.23	28424
817.371	28428
817.512	28341
817.653	28272
817.793	28375
817.934	28363
818.075	28344
818.216	28504
818.356	28375
818.497	28360
818.638	28055
818.778	28158
818.919	28185
819.06	28356
819.2	28253
819.341	28382
819.481	28382
819.622	28599
819.762	28824
819.903	28672
820.043	28580
820.184	28675
820.324	28527
820.465	28554
820.605	28569
820.746	28500
820.886	28470
821.026	28523
821.167	28421
821.307	28588
821.447	28493
821.588	28386
821.728	28200
821.868	28021
822.008	27770
822.149	28006
822.289	27838
822.429	27739
822.569	27526
822.709	27606
822.849	27450
822.99	27447
823.13	27462
823.27	27317
823.41	27313
823.55	26998
823.69	27237
823.83	27195
823.97	27214
824.11	27108
824.25	26940
824.389	27066
824.529	27157
824.669	27165
824.809	27222
824.949	27157
825.089	27157
825.228	27138
825.368	26899
825.508	26842
825.648	26986
825.787	27096
825.927	27032
826.067	27001
826.206	27043
826.346	26948
826.485	27039
826.625	26963
826.765	27043
826.904	26948
827.044	26712
827.183	26769
827.323	26674
827.462	26762
827.601	26625
827.741	26663
827.88	26674
828.02	26670
828.159	26701
828.298	26727
828.437	26800
828.577	26629
828.716	26811
828.855	26556
828.994	26396
829.134	26320
829.273	26438
829.412	26343
829.551	26328
829.69	26389
829.829	26423
829.968	26336
830.107	26469
830.246	26313
830.385	26332
830.524	26256
830.663	26092
830.802	26050
830.941	25871
831.08	25849
831.219	25982
831.357	26069
831.496	26301
831.635	25875
831.774	25894
831.913	25837
832.051	25833
832.19	25791
832.329	25822
832.467	25670
832.606	25681
832.744	25594
832.883	25552
833.022	25632
833.16	25731
833.299	25731
833.437	25590
833.576	25761
833.714	25765
833.852	26001
833.991	25738
834.129	25807
834.267	25685
834.406	25677
834.544	25681
834.682	25613
834.821	25776
834.959	25811
835.097	25693
835.235	25769
835.373	25597
835.511	25537
835.65	25613
835.788	25426
835.926	25381
836.064	25312
836.202	25377
836.34	25647
836.478	25620
836.615	25506
836.753	25441
836.891	25594
837.029	25518
837.167	25460
837.305	25403
837.443	25392
837.58	25476
837.718	25445
837.856	25282
837.993	25274
838.131	25297
838.269	25156
838.406	25274
838.544	25133
838.681	24947
838.819	24962
838.956	24821
839.094	24654
839.231	24882
839.369	25012
839.506	25198
839.643	25042
839.781	24878
839.918	24863
840.055	24825
840.193	24753
840.33	24715
840.467	24734
840.604	24738
840.742	24878
840.879	24639
841.016	24555
841.153	24570
841.29	24810
841.427	24661
841.564	24719
841.701	24623
841.838	24578
841.975	24673
842.112	24502
842.249	24490
842.385	24486
842.522	24696
842.659	24521
842.796	24433
842.933	24467
843.069	24346
843.206	24365
843.343	24578
843.479	24353
843.616	24509
843.752	24289
843.889	24311
844.025	24395
844.162	24140
844.298	24365
844.435	24178
844.571	24232
844.708	24247
844.844	24380
844.98	24372
845.117	24376
845.253	24178
845.389	23969
845.525	24209
845.661	23992
845.798	23946
845.934	24018
846.07	23908
846.206	23984
846.342	23973
846.478	23946
846.614	23714
846.75	23737
846.886	23710
847.022	23722
847.158	23649
847.294	23630
847.429	23722
847.565	23596
847.701	23942
847.837	23471
847.972	23341
848.108	23570
848.244	23585
848.379	23223
848.515	23162
848.65	23318
848.786	23113
848.921	23193
849.057	23326
849.192	23360
849.328	23220
849.463	23315
849.598	23349
849.734	23181
849.869	23147
850.004	22991
850.14	22961
850.275	23029
850.41	22892
850.545	23014
850.68	22987
850.815	23033
850.95	22980
851.085	23143
851.22	23174
851.355	23041
851.49	22869
851.625	23052
851.76	23136
851.895	22915
852.03	22976
852.165	23022
852.299	23056
852.434	23197
852.569	22991
852.703	23113
852.838	23018
852.973	23155
853.107	23090
853.242	22957
853.376	22805
853.511	22664
853.645	22733
853.78	22946
853.914	22915
854.048	22911
854.183	22793
854.317	22896
854.451	22923
854.585	22858
854.72	22869
854.854	22938
854.988	22828
855.122	22919
855.256	22828
855.39	22797
855.524	22938
855.658	22850
855.792	22843
855.926	22763
856.06	22942
856.194	22790
856.327	22774
856.461	22763
856.595	22710
856.729	22763
856.862	22938
856.996	22805
857.13	22824
857.263	22854
857.397	22858
857.53	22656
857.664	22847
857.797	22896
857.931	22923
858.064	22835
858.197	23014
858.331	22763
858.464	22797
858.597	22611
858.731	22858
858.864	22736
858.997	22873
859.13	22904
859.263	22809
859.396	22892
859.529	22797
859.662	22778
859.795	22771
859.928	22866
860.061	22987
860.194	23079
860.327	22892
860.46	22972
860.592	22972
860.725	23010
860.858	23064
860.99	22850
861.123	22805
861.256	22831
861.388	22816
861.521	23524
861.653	22729
861.786	22523
861.918	22607
862.05	22771
862.183	22755
862.315	22820
862.447	22869
862.58	22664
862.712	22554
862.844	22554
862.976	22634
863.108	22417
863.24	22949
863.372	22470
863.504	22436
863.636	22527
863.768	22584
863.9	22649
864.032	22557
864.164	22527
864.296	22584
864.428	22634
864.559	22607
864.691	22573
864.823	22584
864.954	22577
865.086	22542
865.217	22344
865.349	22299
865.48	22379
865.612	22291
865.743	22546
865.875	22402
866.006	22333
866.137	22360
866.269	22352
866.4	22379
866.531	22257
866.662	22386
866.793	22329
866.924	22314
867.055	22287
867.186	22276
867.317	22295
867.448	22234
867.579	22173
867.71	22226
867.841	22143
867.972	22360
868.103	22322
868.233	22356
868.364	22443
868.495	22455
868.625	22481
868.756	22721
868.886	22455
869.017	22512
869.147	22748
869.278	22717
869.408	22656
869.539	22649
869.669	22687
869.799	22607
869.929	22691
870.06	22599
870.19	22877
870.32	22782
870.45	22858
870.58	23029
870.71	23033
870.84	23124
870.97	22976
871.1	23064
871.23	23083
871.36	23269
871.489	23006
871.619	23170
871.749	23124
871.879	23296
872.008	23280
872.138	23166
872.267	23025
872.397	23037
872.526	22984
872.656	22911
872.785	23083
872.915	23208
873.044	23147
873.173	23193
873.303	23166
873.432	23197
873.561	23414
873.69	23170
873.819	23155
873.948	23117
874.077	23208
874.206	23185
874.335	23189
874.464	23307
874.593	23406
874.722	23372
874.851	23577
874.979	23383
875.108	23497
875.237	23311
875.365	23429
875.494	23398
875.623	23250
875.751	23368
875.88	23345
876.008	23448
876.136	23672
876.265	23824
876.393	23920
876.521	23809
876.65	23912
876.778	23752
876.906	23600
877.034	23619
877.162	23805
877.29	23676
877.418	23703
877.546	23680
877.674	23646
877.802	23760
877.93	23676
878.058	23824
878.185	23611
878.313	23649
878.441	23634
878.568	23615
878.696	23741
878.824	23809
878.951	23805
879.079	23824
879.206	23958
879.333	23783
879.461	23802
879.588	23802
879.715	23973
879.842	23927
879.97	23752
880.097	23509
880.224	23482
880.351	23573
880.478	23619
880.605	23570
880.732	23497
880.859	23813
880.986	23547
881.112	23611
881.239	23402
881.366	23235
881.493	23140
881.619	23102
881.746	23162
881.872	23181
881.999	22934
882.125	23041
882.252	23067
882.378	23143
882.505	23170
882.631	22946
882.757	22812
882.883	22763
883.01	22801
883.136	22664
883.262	22561
883.388	22630
883.514	22790
883.64	22778
883.766	22744
883.892	22489
884.018	22531
884.143	22641
884.269	22710
884.395	22504
884.52	22348
884.646	22451
884.772	22356
884.897	22242
885.023	22382
885.148	22516
885.274	22630
885.399	22459
885.524	22523
885.65	22485
885.775	22550
885.9	22348
886.025	22512
886.15	22466
886.275	22325
886.4	22402
886.525	22295
886.65	22341
886.775	22230
886.9	22382
887.025	22607
887.149	22417
887.274	22253
887.399	22181
887.523	22124
887.648	22074
887.773	22006
887.897	22223
888.021	22169
888.146	21994
888.27	22280
888.395	22185
888.519	22192
888.643	22272
888.767	22219
888.891	21991
889.015	21934
889.139	22040
889.263	21857
889.387	21915
889.511	22150
889.635	22128
889.759	21895
889.883	21854
890.006	21956
890.13	21968
890.254	21915
890.377	21888
890.501	21766
890.624	21606
890.748	21671
890.871	21652
890.995	21416
891.118	21496
891.241	21397
891.364	21435
891.488	21526
891.611	21389
891.734	21466
891.857	21447
891.98	21538
892.103	21553
892.226	21363
892.349	21450
892.471	21192
892.594	21416
892.717	21329
892.839	21374
892.962	21450
893.085	21393
893.207	21367
893.33	21287
893.452	21306
893.575	21416
893.697	21336
893.819	21454
893.941	21568
894.064	21545
894.186	21230
894.308	21287
894.43	21401
894.552	21542
894.674	21397
894.796	21161
894.918	21378
895.04	21389
895.161	21488
895.283	21351
895.405	21260
895.526	21412
895.648	21302
895.769	21310
895.891	21321
896.012	21359
896.134	21382
896.255	21336
896.376	21447
896.498	21279
896.619	21439
896.74	21306
896.861	21443
896.982	21603
897.103	21724
897.224	21591
897.345	21591
897.466	21450
897.587	21583
897.708	21625
897.828	21633
897.949	21397
898.07	21412
898.19	21450
898.311	21675
898.431	21583
898.552	21443
898.672	21587
898.792	21603
898.913	21481
899.033	21473
899.153	21264
899.273	21222
899.393	21260
899.513	21298
899.633	21165
899.753	21272
899.873	21230
899.993	21165
900.113	21188
900.232	21169
900.352	21096
900.472	21036
900.591	20918
900.711	21062
900.83	21058
900.95	21077
901.069	21024
901.189	20921
901.308	20648
901.427	20613
901.546	20587
901.665	20678
901.784	20651
901.904	20438
902.023	20370
902.141	20077
902.26	20122
902.379	20218
902.498	20092
902.617	20134
902.735	20100
902.854	20119
902.973	20012
903.091	19731
903.21	19704
903.328	19772
903.446	19700
903.565	19700
903.683	19635
903.801	19491
903.919	19499
904.038	19567
904.156	19297
904.274	19483
904.392	19244
904.51	19236
904.627	19335
904.745	19362
904.863	19434
904.981	19133
905.098	18924
905.216	19122
905.334	19069
905.451	19053
905.569	18928
905.686	19126
905.803	18890
905.921	18703
906.038	18886
906.155	18806
906.272	18646
906.389	18776
906.506	18574
906.623	18547
906.74	18506
906.857	18422
906.974	18407
907.091	18544
907.208	18642
907.324	18467
907.441	18486
907.557	18129
907.674	18300
907.79	18174
907.907	18167
908.023	18144
908.139	18144
908.256	18110
908.372	18148
908.488	18117
908.604	17843
908.72	17912
908.836	17882
908.952	17923
909.068	18034
909.184	18064
909.3	17996
909.415	18060
909.531	17851
909.647	17756
909.762	17623
909.878	17543
909.993	17699
910.108	17611
910.224	17634
910.339	17558
910.454	17505
910.57	17379
910.685	17421
910.8	17573
910.915	17581
911.03	17440
911.145	17258
911.259	17170
911.374	17109
911.489	17132
911.604	16991
911.718	16946
911.833	16847
911.947	16748
912.062	16816
912.176	16968
912.291	16942
912.405	16911
912.519	17151
912.633	17102
912.748	17037
912.862	16923
912.976	16805
913.09	16599
913.204	16691
913.318	16733
913.431	16843
913.545	16866
913.659	16733
913.772	16736
913.886	16618
914	16459
914.113	16656
914.226	16664
914.34	16618
914.453	16451
914.566	16519
914.68	16443
914.793	16386
914.906	16318
915.019	16078
915.132	16013
915.245	16128
915.358	16097
915.47	16093
915.583	16067
915.696	16067
915.809	16109
915.921	16196
916.034	16040
916.146	16055
916.259	15941
916.371	16093
916.483	16017
916.595	15903
916.708	16010
916.82	15895
916.932	15759
917.044	15865
917.156	15793
917.268	15698
917.38	15717
917.491	15713
917.603	15789
917.715	15865
917.826	15747
917.938	15667
918.049	15572
918.161	15610
918.272	15728
918.384	15660
918.495	15652
918.606	15561
918.717	15348
918.828	15545
918.939	15466
919.05	15363
919.161	15374
919.272	15207
919.383	15298
919.494	15477
919.604	15724
919.715	15439
919.826	15313
919.936	15420
920.047	15450
920.157	15462
920.267	15587
920.378	15507
920.488	15405
920.598	15614
920.708	15663
920.818	15466
920.928	15686
921.038	15629
921.148	15622
921.258	15458
921.368	15245
921.477	15157
921.587	15047
921.697	15077
921.806	15047
921.916	14902
922.025	14826
922.134	14758
922.244	14670
922.353	14804
922.462	14526
922.571	14568
922.68	14355
922.789	14362
922.898	14507
923.007	14317
923.116	14518
923.224	14389
923.333	14332
923.442	14267
923.55	14294
923.659	14351
923.767	14252
923.876	14134
923.984	14263
924.092	14123
924.201	14244
924.309	14115
924.417	14119
924.525	13989
924.633	14126
924.741	14982
924.849	13909
924.956	14008
925.064	13761
925.172	13765
925.279	13753
925.387	13803
925.494	13738
925.602	13814
925.709	13814
925.816	13696
925.924	13685
926.031	13894
926.138	13696
926.245	13727
926.352	13594
926.459	13715
926.566	13791
926.673	13643
926.779	13384
926.886	13472
926.993	13304
927.099	13312
927.206	13255
927.312	13164
927.419	13362
927.525	13270
927.631	13335
927.737	13251
927.843	13198
927.95	13095
928.056	12993
928.162	13175
928.267	13213
928.373	13795
928.479	13114
928.585	12863
928.69	13046
928.796	13076
928.901	12935
929.007	12844
929.112	12985
929.218	12966
929.323	12913
929.428	12779
929.533	12863
929.638	12783
929.743	12779
929.848	12783
929.953	12703
930.058	12589
930.163	12494
930.267	12536
930.372	12681
930.477	12399
930.581	12639
930.685	12433
930.79	12273
930.894	12357
930.998	12304
931.103	12460
931.207	12110
931.311	12072
931.415	11893
931.519	11767
931.623	11726
