Data from test_V78500241_1753.txt Node
Date: Fri Mar 25 15:53:56 CST 2022
User: usil
Spectrometer: V785-0024
Trigger mode: 0
Integration Time (sec): 4.000000E-1
Scans to average: 1
Nonlinearity correction enabled: false
Boxcar width: 0
Storing dark spectrum: false
XAxis mode: Wavelengths
Number of Pixels in Spectrum: 1024
>>>>>Begin Spectral Data<<<<<
801.071	28668
801.214	28573
801.356	28360
801.499	28401
801.641	28265
801.783	28246
801.926	28173
802.068	28379
802.211	28287
802.353	28051
802.496	27968
802.638	27930
802.78	27873
802.923	27846
803.065	27759
803.208	27762
803.35	27778
803.492	28162
803.635	28101
803.777	27945
803.919	28124
804.061	28440
804.204	28166
804.346	27994
804.488	28074
804.63	28219
804.773	28147
804.915	28158
805.057	28337
805.199	28207
805.341	28154
805.483	28162
805.626	28291
805.768	28253
805.91	28253
806.052	28386
806.194	28306
806.336	28493
806.478	28306
806.62	28318
806.762	28485
806.904	28675
807.046	28660
807.188	28721
807.33	28717
807.472	28824
807.614	28729
807.756	28611
807.898	28664
808.04	28599
808.182	28588
808.324	28584
808.465	28675
808.607	28778
808.749	29033
808.891	28991
809.033	28980
809.174	29105
809.316	28915
809.458	28885
809.6	28919
809.741	29113
809.883	28927
810.025	29170
810.166	29178
810.308	29337
810.45	29356
810.591	29265
810.733	29029
810.875	29113
811.016	28824
811.158	28767
811.299	29041
811.441	29143
811.582	28915
811.724	28961
811.865	28938
812.007	28946
812.148	28957
812.29	28961
812.431	29155
812.573	29273
812.714	29440
812.855	29429
812.997	29570
813.138	29752
813.279	29668
813.421	29573
813.562	29425
813.703	29235
813.845	29242
813.986	28972
814.127	28683
814.268	28645
814.41	28748
814.551	28630
814.692	28771
814.833	28660
814.974	28683
815.115	28672
815.256	28641
815.397	28584
815.539	28523
815.68	28561
815.821	28413
815.962	28569
816.103	28531
816.244	28424
816.385	28356
816.526	28322
816.666	28158
816.807	28006
816.948	28051
817.089	28238
817.23	28074
817.371	27998
817.512	27991
817.653	27972
817.793	27960
817.934	27964
818.075	27911
818.216	28021
818.356	27960
818.497	27903
818.638	27793
818.778	27823
818.919	27774
819.06	27793
819.2	27838
819.341	27941
819.481	28025
819.622	28181
819.762	28417
819.903	28246
820.043	28246
820.184	28166
820.324	28291
820.465	28234
820.605	28086
820.746	28147
820.886	27949
821.026	28090
821.167	28131
821.307	28401
821.447	27998
821.588	27945
821.728	27876
821.868	27641
822.008	27492
822.149	27515
822.289	27469
822.429	27241
822.569	27233
822.709	27317
822.849	27013
822.99	27074
823.13	27047
823.27	26823
823.41	26804
823.55	26804
823.69	26735
823.83	26804
823.97	26811
824.11	26453
824.25	26697
824.389	26716
824.529	26792
824.669	26655
824.809	26613
824.949	26686
825.089	26868
825.228	26636
825.368	26587
825.508	26488
825.648	26564
825.787	26560
825.927	26476
826.067	26545
826.206	26465
826.346	26644
826.485	26518
826.625	26507
826.765	26670
826.904	26549
827.044	26301
827.183	26389
827.323	26237
827.462	26263
827.601	26298
827.741	26305
827.88	26317
828.02	26077
828.159	26111
828.298	26282
828.437	26233
828.577	26259
828.716	26320
828.855	26202
828.994	26046
829.134	25997
829.273	25860
829.412	25852
829.551	25830
829.69	25978
829.829	25917
829.968	25879
830.107	25917
830.246	25955
830.385	25845
830.524	25947
830.663	25803
830.802	25643
830.941	25468
831.08	25483
831.219	25544
831.357	25620
831.496	25693
831.635	25518
831.774	25335
831.913	25327
832.051	25221
832.19	25190
832.329	25373
832.467	25312
832.606	25152
832.744	25247
832.883	25247
833.022	25065
833.16	25282
833.299	25175
833.437	25168
833.576	25320
833.714	25190
833.852	25343
833.991	25266
834.129	25183
834.267	25217
834.406	25126
834.544	25301
834.682	25183
834.821	25034
834.959	25324
835.097	25129
835.235	25468
835.373	25194
835.511	25171
835.65	25110
835.788	25129
835.926	24973
836.064	24753
836.202	24795
836.34	25255
836.478	25122
836.615	25046
836.753	25069
836.891	25297
837.029	25069
837.167	24981
837.305	24977
837.443	24916
837.58	24844
837.718	24897
837.856	24928
837.993	24871
838.131	24844
838.269	24700
838.406	24688
838.544	24741
838.681	24555
838.819	24544
838.956	24365
839.094	24460
839.231	24410
839.369	24601
839.506	24779
839.643	24601
839.781	24426
839.918	24369
840.055	24300
840.193	24338
840.33	24285
840.467	24239
840.604	24273
840.742	24475
840.879	24102
841.016	24201
841.153	24235
841.29	24273
841.427	24163
841.564	24338
841.701	24311
841.838	24273
841.975	24167
842.112	24129
842.249	24178
842.385	24133
842.522	24083
842.659	24034
842.796	24022
842.933	23999
843.069	24064
843.206	23904
843.343	23958
843.479	24057
843.616	23961
843.752	23718
843.889	23821
844.025	23954
844.162	23912
844.298	23870
844.435	23843
844.571	23668
844.708	23897
844.844	23969
844.98	23931
845.117	23794
845.253	23653
845.389	23680
845.525	23646
845.661	23657
845.798	23520
845.934	23646
846.07	23554
846.206	23512
846.342	23608
846.478	23459
846.614	23383
846.75	23204
846.886	23368
847.022	23254
847.158	23208
847.294	23178
847.429	23250
847.565	23239
847.701	23353
847.837	23052
847.972	22972
848.108	23113
848.244	23143
848.379	22904
848.515	22786
848.65	22869
848.786	22809
848.921	22843
849.057	22976
849.192	23025
849.328	22805
849.463	22797
849.598	22824
849.734	22694
849.869	22710
850.004	22542
850.14	22702
850.275	22675
850.41	22485
850.545	22497
850.68	22599
850.815	22573
850.95	22588
851.085	22748
851.22	22653
851.355	22641
851.49	22481
851.625	22531
851.76	22630
851.895	22538
852.03	22611
852.165	22607
852.299	22577
852.434	22725
852.569	22569
852.703	22565
852.838	22721
852.973	22634
853.107	22653
853.242	22557
853.376	22478
853.511	22295
853.645	22417
853.78	22584
853.914	22398
854.048	22261
854.183	22382
854.317	22360
854.451	22550
854.585	22402
854.72	22466
854.854	22432
854.988	22268
855.122	22402
855.256	22405
855.39	22394
855.524	22478
855.658	22402
855.792	22379
855.926	22440
856.06	22466
856.194	22531
856.327	22421
856.461	22481
856.595	22348
856.729	22363
856.862	22493
856.996	22447
857.13	22409
857.263	22485
857.397	22599
857.53	22481
857.664	22443
857.797	22577
857.931	22497
858.064	22478
858.197	22565
858.331	22428
858.464	22287
858.597	22272
858.731	22455
858.864	22306
858.997	22295
859.13	22481
859.263	22367
859.396	22386
859.529	22440
859.662	22424
859.795	22356
859.928	22489
860.061	22672
860.194	22710
860.327	22386
860.46	22402
860.592	22561
860.725	22580
860.858	22519
860.99	22436
861.123	22367
861.256	22265
861.388	22402
861.521	23140
861.653	22310
861.786	22287
861.918	22249
862.05	22211
862.183	22295
862.315	22447
862.447	22382
862.58	22284
862.712	22029
862.844	22067
862.976	22314
863.108	22139
863.24	22436
863.372	22051
863.504	21998
863.636	22185
863.768	21998
863.9	22177
864.032	22032
864.164	22204
864.296	22173
864.428	22188
864.559	22192
864.691	22112
864.823	22044
864.954	22169
865.086	22040
865.217	22063
865.349	21880
865.48	21945
865.612	22051
865.743	22135
865.875	22078
866.006	21975
866.137	21915
866.269	21983
866.4	21846
866.531	21937
866.662	21945
866.793	21888
866.924	21960
867.055	21899
867.186	22044
867.317	21804
867.448	21762
867.579	21998
867.71	21698
867.841	21793
867.972	21873
868.103	21857
868.233	22006
868.364	22002
868.495	21960
868.625	22147
868.756	22249
868.886	22105
869.017	21991
869.147	22306
869.278	22226
869.408	22226
869.539	22325
869.669	22223
869.799	22249
869.929	22310
870.06	22147
870.19	22550
870.32	22417
870.45	22504
870.58	22497
870.71	22717
870.84	22615
870.97	22531
871.1	22630
871.23	22664
871.36	22740
871.489	22687
871.619	22691
871.749	22687
871.879	22782
872.008	22782
872.138	22645
872.267	22767
872.397	22664
872.526	22550
872.656	22634
872.785	22626
872.915	22713
873.044	22858
873.173	22755
873.303	22847
873.432	22778
873.561	23006
873.69	22854
873.819	22801
873.948	22889
874.077	22858
874.206	22706
874.335	22839
874.464	22938
874.593	22995
874.722	22877
874.851	23014
874.979	22980
875.108	23121
875.237	22919
875.365	22938
875.494	22972
875.623	22968
875.751	23064
875.88	23159
876.008	23098
876.136	23197
876.265	23414
876.393	23535
876.521	23421
876.65	23490
876.778	23501
876.906	23326
877.034	23269
877.162	23410
877.29	23269
877.418	23391
877.546	23273
877.674	23356
877.802	23398
877.93	23315
878.058	23303
878.185	23143
878.313	23174
878.441	23299
878.568	23242
878.696	23212
878.824	23421
878.951	23311
879.079	23528
879.206	23638
879.333	23467
879.461	23288
879.588	23391
879.715	23425
879.842	23554
879.97	23341
880.097	23170
880.224	23121
880.351	23197
880.478	23094
880.605	23064
880.732	23227
880.859	23486
880.986	23174
881.112	23181
881.239	23014
881.366	22877
881.493	22702
881.619	22763
881.746	22733
881.872	22778
881.999	22717
882.125	22660
882.252	22828
882.378	22573
882.505	22774
882.631	22584
882.757	22375
882.883	22550
883.01	22382
883.136	22238
883.262	22356
883.388	22158
883.514	22333
883.64	22440
883.766	22299
883.892	22082
884.018	22291
884.143	22394
884.269	22413
884.395	22128
884.52	21972
884.646	22063
884.772	21964
884.897	21994
885.023	21934
885.148	22063
885.274	22143
885.399	22105
885.524	22036
885.65	22044
885.775	22013
885.9	22010
886.025	22097
886.15	21972
886.275	22032
886.4	21861
886.525	22109
886.65	21880
886.775	21937
886.9	22059
887.025	22211
887.149	21945
887.274	21850
887.399	21705
887.523	21823
887.648	21625
887.773	21629
887.897	21705
888.021	21808
888.146	21743
888.27	21831
888.395	21922
888.519	21880
888.643	21812
888.767	21701
888.891	21800
889.015	21576
889.139	21595
889.263	21614
889.387	21675
889.511	21713
889.635	21603
889.759	21603
889.883	21492
890.006	21599
890.13	21705
890.254	21610
890.377	21462
890.501	21279
890.624	21378
890.748	21378
890.871	21199
890.995	21157
891.118	20998
891.241	21173
891.364	21116
891.488	21241
891.611	21241
891.734	21150
891.857	21226
891.98	21024
892.103	21161
892.226	21066
892.349	21066
892.471	20952
892.594	21055
892.717	21214
892.839	21051
892.962	20990
893.085	21066
893.207	21039
893.33	20948
893.452	20963
893.575	20967
893.697	21066
893.819	21142
893.941	21066
894.064	21176
894.186	20887
894.308	20891
894.43	21150
894.552	21237
894.674	20994
894.796	20948
894.918	21131
895.04	21051
895.161	20971
895.283	21188
895.405	20960
895.526	20960
895.648	20975
895.769	20990
895.891	20975
896.012	21051
896.134	21066
896.255	21058
896.376	20963
896.498	20994
896.619	20910
896.74	20971
896.861	21081
896.982	21351
897.103	21386
897.224	21363
897.345	21188
897.466	21036
897.587	21195
897.708	21355
897.828	21199
897.949	21047
898.07	21066
898.19	21116
898.311	21142
898.431	21192
898.552	21226
898.672	21245
898.792	21359
898.913	21108
899.033	21062
899.153	20929
899.273	20807
899.393	20838
899.513	20944
899.633	20952
899.753	20956
899.873	20902
899.993	21009
900.113	20781
900.232	20941
900.352	20861
900.472	20853
900.591	20625
900.711	20693
900.83	20625
900.95	20773
901.069	20750
901.189	20530
901.308	20328
901.427	20202
901.546	20237
901.665	20206
901.784	20286
901.904	20195
902.023	20005
902.141	19913
902.26	19822
902.379	19719
902.498	19845
902.617	19803
902.735	19818
902.854	19685
902.973	19609
903.091	19506
903.21	19495
903.328	19285
903.446	19339
903.565	19274
903.683	19236
903.801	19179
903.919	19099
904.038	19259
904.156	19034
904.274	19027
904.392	18951
904.51	18932
904.627	19042
904.745	19095
904.863	19095
904.981	18802
905.098	18631
905.216	18604
905.334	18719
905.451	18623
905.569	18650
905.686	18738
905.803	18707
905.921	18445
906.038	18509
906.155	18506
906.272	18350
906.389	18372
906.506	18285
906.623	18159
906.74	18220
906.857	17992
906.974	18019
907.091	18296
907.208	18258
907.324	18224
907.441	17942
907.557	17870
907.674	18007
907.79	17790
907.907	17851
908.023	18015
908.139	17866
908.256	17783
908.372	17775
908.488	17657
908.604	17600
908.72	17493
908.836	17585
908.952	17619
909.068	17707
909.184	17710
909.3	17619
909.415	17729
909.531	17653
909.647	17345
909.762	17231
909.878	17223
909.993	17261
910.108	17246
910.224	17223
910.339	17303
910.454	17071
910.57	17162
910.685	17086
910.8	17303
910.915	17189
911.03	17037
911.145	16927
911.259	16862
911.374	16824
911.489	16862
911.604	16694
911.718	16542
911.833	16542
911.947	16500
912.062	16447
912.176	16687
912.291	16580
912.405	16656
912.519	16790
912.633	16771
912.748	16603
912.862	16611
912.976	16493
913.09	16360
913.204	16356
913.318	16413
913.431	16470
913.545	16508
913.659	16550
913.772	16386
913.886	16329
914	16185
914.113	16322
914.226	16325
914.34	16287
914.453	16173
914.566	16219
914.68	16063
914.793	16048
914.906	15739
915.019	15892
915.132	15789
915.245	15755
915.358	15781
915.47	15747
915.583	15793
915.696	15804
915.809	15846
915.921	15918
916.034	15823
916.146	15660
916.259	15686
916.371	15774
916.483	15778
916.595	15595
916.708	15572
916.82	15671
916.932	15576
917.044	15591
917.156	15530
917.268	15477
917.38	15523
917.491	15374
917.603	15420
917.715	15466
917.826	15534
917.938	15416
918.049	15268
918.161	15336
918.272	15473
918.384	15466
918.495	15355
918.606	15222
918.717	15142
918.828	15283
918.939	15169
919.05	15043
919.161	15173
919.272	14902
919.383	15001
919.494	15245
919.604	15344
919.715	15150
919.826	15020
919.936	15085
920.047	15138
920.157	15058
920.267	15317
920.378	15211
920.488	15077
920.598	15176
920.708	15401
920.818	15241
920.928	15325
921.038	15386
921.148	15359
921.258	15142
921.368	15017
921.477	14838
921.587	14830
921.697	14777
921.806	14746
921.916	14746
922.025	14492
922.134	14571
922.244	14415
922.353	14571
922.462	14358
922.571	14248
922.68	14096
922.789	14077
922.898	14103
923.007	14069
923.116	14191
923.224	14103
923.333	14115
923.442	13902
923.55	13932
923.659	13989
923.767	14027
923.876	13852
923.984	13963
924.092	13803
924.201	13906
924.309	13822
924.417	13879
924.525	13868
924.633	13753
924.741	14484
924.849	13487
924.956	13636
925.064	13563
925.172	13552
925.279	13529
925.387	13556
925.494	13468
925.602	13616
925.709	13544
925.816	13407
925.924	13407
926.031	13525
926.138	13460
926.245	13552
926.352	13327
926.459	13495
926.566	13457
926.673	13369
926.779	13198
926.886	13194
926.993	13069
927.099	13015
927.206	12943
927.312	13012
927.419	13168
927.525	13072
927.631	13000
927.737	12897
927.843	12882
927.95	12768
928.056	12943
928.162	12890
928.267	12901
928.373	13559
928.479	12905
928.585	12669
928.69	12795
928.796	12867
928.901	12814
929.007	12642
929.112	12734
929.218	12787
929.323	12585
929.428	12566
929.533	12665
929.638	12467
929.743	12528
929.848	12589
929.953	12490
930.058	12426
930.163	12296
930.267	12285
930.372	12323
930.477	12251
930.581	12471
930.685	12216
930.79	12091
930.894	12129
930.998	12041
931.103	12262
931.207	11832
931.311	11786
931.415	11691
931.519	11547
931.623	11505
