Data from test_V78500241_1246.txt Node
Date: Fri Mar 25 15:50:25 CST 2022
User: usil
Spectrometer: V785-0024
Trigger mode: 0
Integration Time (sec): 4.000000E-1
Scans to average: 1
Nonlinearity correction enabled: false
Boxcar width: 0
Storing dark spectrum: false
XAxis mode: Wavelengths
Number of Pixels in Spectrum: 1024
>>>>>Begin Spectral Data<<<<<
801.071	28778
801.214	28611
801.356	28561
801.499	28329
801.641	28284
801.783	28181
801.926	28413
802.068	28409
802.211	28207
802.353	28173
802.496	28032
802.638	27823
802.78	28032
802.923	28051
803.065	27831
803.208	27846
803.35	27949
803.492	28044
803.635	28105
803.777	28021
803.919	28284
804.061	28508
804.204	28284
804.346	28246
804.488	28139
804.63	28295
804.773	28013
804.915	28177
805.057	28211
805.199	28143
805.341	28276
805.483	28440
805.626	28257
805.768	28200
805.91	28436
806.052	28204
806.194	28249
806.336	28535
806.478	28542
806.62	28497
806.762	28592
806.904	28618
807.046	28911
807.188	28774
807.33	28919
807.472	28835
807.614	28877
807.756	28911
807.898	28797
808.04	28637
808.182	28516
808.324	28702
808.465	28725
808.607	28976
808.749	29220
808.891	29170
809.033	29223
809.174	29181
809.316	29071
809.458	29109
809.6	29102
809.741	29265
809.883	29265
810.025	29353
810.166	29433
810.308	29372
810.45	29299
810.591	29269
810.733	29143
810.875	29143
811.016	28900
811.158	29105
811.299	29018
811.441	29166
811.582	29341
811.724	29124
811.865	29079
812.007	29041
812.148	29075
812.29	29132
812.431	29200
812.573	29315
812.714	29459
812.855	29592
812.997	29779
813.138	29878
813.279	29729
813.421	29668
813.562	29486
813.703	29452
813.845	29227
813.986	29056
814.127	28820
814.268	28706
814.41	28790
814.551	28782
814.692	28816
814.833	28854
814.974	28854
815.115	28847
815.256	28538
815.397	28805
815.539	28687
815.68	28523
815.821	28653
815.962	28531
816.103	28573
816.244	28538
816.385	28371
816.526	28500
816.666	28253
816.807	28211
816.948	28257
817.089	28188
817.23	28070
817.371	28128
817.512	28128
817.653	28040
817.793	28120
817.934	28234
818.075	28112
818.216	28048
818.356	28029
818.497	28010
818.638	27926
818.778	27922
818.919	27911
819.06	27892
819.2	28010
819.341	28101
819.481	28002
819.622	28284
819.762	28481
819.903	28329
820.043	28421
820.184	28371
820.324	28303
820.465	28249
820.605	28238
820.746	28272
820.886	28150
821.026	28306
821.167	28265
821.307	28154
821.447	28325
821.588	28131
821.728	28051
821.868	27816
822.008	27599
822.149	27679
822.289	27633
822.429	27397
822.569	27378
822.709	27157
822.849	27104
822.99	27192
823.13	27108
823.27	27180
823.41	26876
823.55	26948
823.69	27001
823.83	27009
823.97	26990
824.11	26697
824.25	26773
824.389	26785
824.529	26853
824.669	26746
824.809	26902
824.949	26876
825.089	26830
825.228	26971
825.368	26697
825.508	26689
825.648	26731
825.787	26655
825.927	26788
826.067	26667
826.206	26743
826.346	26648
826.485	26773
826.625	26686
826.765	26720
826.904	26823
827.044	26381
827.183	26473
827.323	26347
827.462	26465
827.601	26320
827.741	26347
827.88	26431
828.02	26275
828.159	26377
828.298	26453
828.437	26499
828.577	26374
828.716	26423
828.855	26324
828.994	26122
829.134	26153
829.273	26077
829.412	26096
829.551	26081
829.69	26115
829.829	26077
829.968	26111
830.107	26153
830.246	26081
830.385	26027
830.524	26035
830.663	25761
830.802	25837
830.941	25765
831.08	25594
831.219	25750
831.357	25856
831.496	25902
831.635	25704
831.774	25658
831.913	25529
832.051	25441
832.19	25499
832.329	25537
832.467	25388
832.606	25324
832.744	25217
832.883	25377
833.022	25297
833.16	25316
833.299	25377
833.437	25274
833.576	25479
833.714	25422
833.852	25381
833.991	25426
834.129	25628
834.267	25373
834.406	25472
834.544	25430
834.682	25415
834.821	25388
834.959	25586
835.097	25339
835.235	25441
835.373	25400
835.511	25415
835.65	25251
835.788	25274
835.926	25228
836.064	25126
836.202	25206
836.34	25270
836.478	25324
836.615	25274
836.753	25247
836.891	25270
837.029	25236
837.167	25061
837.305	25099
837.443	25259
837.58	25027
837.718	25168
837.856	25091
837.993	25015
838.131	25031
838.269	24894
838.406	25118
838.544	24886
838.681	24730
838.819	24722
838.956	24566
839.094	24475
839.231	24627
839.369	24726
839.506	24943
839.643	24776
839.781	24528
839.918	24479
840.055	24536
840.193	24517
840.33	24616
840.467	24494
840.604	24559
840.742	24654
840.879	24365
841.016	24399
841.153	24213
841.29	24669
841.427	24513
841.564	24540
841.701	24327
841.838	24403
841.975	24513
842.112	24311
842.249	24258
842.385	24228
842.522	24380
842.659	24346
842.796	24228
842.933	24296
843.069	24140
843.206	24136
843.343	24319
843.479	24087
843.616	24220
843.752	23958
843.889	23969
844.025	23999
844.162	24018
844.298	24038
844.435	23908
844.571	23859
844.708	23927
844.844	24171
844.98	24087
845.117	24076
845.253	23935
845.389	23916
845.525	23851
845.661	23786
845.798	23745
845.934	23661
846.07	23676
846.206	23695
846.342	23802
846.478	23745
846.614	23524
846.75	23376
846.886	23296
847.022	23452
847.158	23440
847.294	23376
847.429	23387
847.565	23444
847.701	23642
847.837	23151
847.972	23029
848.108	23296
848.244	23185
848.379	22972
848.515	23018
848.65	22911
848.786	23006
848.921	23079
849.057	23056
849.192	23075
849.328	22930
849.463	23060
849.598	22965
849.734	22892
849.869	22980
850.004	22782
850.14	22691
850.275	22759
850.41	22637
850.545	22713
850.68	22782
850.815	22850
850.95	22801
851.085	22946
851.22	22923
851.355	22710
851.49	22771
851.625	22710
851.76	22733
851.895	22702
852.03	22683
852.165	22717
852.299	22801
852.434	22793
852.569	22820
852.703	22786
852.838	22858
852.973	22892
853.107	22812
853.242	22847
853.376	22603
853.511	22421
853.645	22577
853.78	22641
853.914	22588
854.048	22424
854.183	22565
854.317	22584
854.451	22752
854.585	22523
854.72	22641
854.854	22641
854.988	22538
855.122	22535
855.256	22386
855.39	22577
855.524	22584
855.658	22535
855.792	22565
855.926	22512
856.06	22721
856.194	22641
856.327	22645
856.461	22497
856.595	22584
856.729	22626
856.862	22516
856.996	22603
857.13	22706
857.263	22710
857.397	22706
857.53	22546
857.664	22683
857.797	22641
857.931	22630
858.064	22557
858.197	22603
858.331	22592
858.464	22580
858.597	22443
858.731	22546
858.864	22523
858.997	22557
859.13	22584
859.263	22447
859.396	22569
859.529	22531
859.662	22542
859.795	22436
859.928	22531
860.061	22584
860.194	22873
860.327	22702
860.46	22660
860.592	22702
860.725	22755
860.858	22812
860.99	22508
861.123	22504
861.256	22561
861.388	22584
861.521	23166
861.653	22459
861.786	22428
861.918	22337
862.05	22462
862.183	22546
862.315	22504
862.447	22531
862.58	22386
862.712	22276
862.844	22333
862.976	22375
863.108	22371
863.24	22683
863.372	22158
863.504	22306
863.636	22226
863.768	22310
863.9	22280
864.032	22181
864.164	22226
864.296	22223
864.428	22325
864.559	22344
864.691	22402
864.823	22246
864.954	22230
865.086	22192
865.217	22150
865.349	22097
865.48	22109
865.612	22158
865.743	22341
865.875	22154
866.006	22090
866.137	22109
866.269	22169
866.4	22067
866.531	22070
866.662	22128
866.793	22025
866.924	22150
867.055	22040
867.186	22135
867.317	22013
867.448	21972
867.579	22036
867.71	22055
867.841	21960
867.972	22067
868.103	22097
868.233	22051
868.364	21987
868.495	22177
868.625	22238
868.756	22398
868.886	22329
869.017	22314
869.147	22481
869.278	22462
869.408	22291
869.539	22249
869.669	22508
869.799	22356
869.929	22493
870.06	22417
870.19	22656
870.32	22516
870.45	22664
870.58	22645
870.71	22698
870.84	22721
870.97	22706
871.1	22702
871.23	22892
871.36	22915
871.489	22900
871.619	22942
871.749	22919
871.879	22957
872.008	22953
872.138	22824
872.267	23003
872.397	22831
872.526	22656
872.656	22820
872.785	22748
872.915	22752
873.044	23010
873.173	22793
873.303	22968
873.432	22911
873.561	23071
873.69	22866
873.819	22892
873.948	23044
874.077	22892
874.206	22877
874.335	22953
874.464	22889
874.593	23147
874.722	23041
874.851	23170
874.979	23143
875.108	23102
875.237	23060
875.365	23064
875.494	23071
875.623	23227
875.751	23033
875.88	23124
876.008	23356
876.136	23341
876.265	23490
876.393	23539
876.521	23531
876.65	23695
876.778	23547
876.906	23395
877.034	23482
877.162	23528
877.29	23429
877.418	23379
877.546	23467
877.674	23417
877.802	23402
877.93	23558
878.058	23379
878.185	23303
878.313	23379
878.441	23516
878.568	23250
878.696	23383
878.824	23444
878.951	23436
879.079	23733
879.206	23790
879.333	23676
879.461	23585
879.588	23486
879.715	23611
879.842	23840
879.97	23619
880.097	23356
880.224	23212
880.351	23330
880.478	23356
880.605	23246
880.732	23299
880.859	23543
880.986	23231
881.112	23269
881.239	23124
881.366	23014
881.493	22911
881.619	22862
881.746	22881
881.872	22923
881.999	22748
882.125	22790
882.252	22873
882.378	22854
882.505	22942
882.631	22634
882.757	22527
882.883	22656
883.01	22656
883.136	22443
883.262	22424
883.388	22318
883.514	22557
883.64	22577
883.766	22550
883.892	22177
884.018	22265
884.143	22459
884.269	22466
884.395	22131
884.52	22166
884.646	22166
884.772	22166
884.897	22067
885.023	22124
885.148	22169
885.274	22295
885.399	22318
885.524	22181
885.65	22211
885.775	22147
885.9	22105
886.025	22322
886.15	22249
886.275	22131
886.4	22078
886.525	22154
886.65	22070
886.775	22010
886.9	22215
887.025	22306
887.149	21949
887.274	22002
887.399	21922
887.523	21880
887.648	21857
887.773	21869
887.897	22173
888.021	21979
888.146	21865
888.27	22029
888.395	21880
888.519	21964
888.643	21892
888.767	21846
888.891	21739
889.015	21732
889.139	21751
889.263	21705
889.387	21789
889.511	21915
889.635	21759
889.759	21671
889.883	21713
890.006	21580
890.13	21667
890.254	21686
890.377	21572
890.501	21420
890.624	21397
890.748	21545
890.871	21298
890.995	21055
891.118	21127
891.241	21287
891.364	21378
891.488	21420
891.611	21256
891.734	21233
891.857	21180
891.98	21256
892.103	21249
892.226	21192
892.349	21173
892.471	21100
892.594	21150
892.717	21135
892.839	21237
892.962	21241
893.085	21302
893.207	21089
893.33	21009
893.452	20994
893.575	21142
893.697	21081
893.819	21283
893.941	21336
894.064	21348
894.186	21089
894.308	21116
894.43	21150
894.552	21226
894.674	21081
894.796	20990
894.918	20944
895.04	21176
895.161	21119
895.283	21173
895.405	21074
895.526	21157
895.648	21100
895.769	21150
895.891	21180
896.012	21203
896.134	21138
896.255	21184
896.376	21066
896.498	21017
896.619	21207
896.74	21070
896.861	21161
896.982	21397
897.103	21477
897.224	21374
897.345	21260
897.466	21275
897.587	21176
897.708	21420
897.828	21321
897.949	21294
898.07	21161
898.19	21207
898.311	21374
898.431	21214
898.552	21321
898.672	21393
898.792	21321
898.913	21245
899.033	21252
899.153	21077
899.273	20971
899.393	21036
899.513	21074
899.633	20883
899.753	21207
899.873	20944
899.993	20994
900.113	20990
900.232	20921
900.352	20887
900.472	20925
900.591	20788
900.711	20826
900.83	20800
900.95	20876
901.069	20929
901.189	20549
901.308	20461
901.427	20415
901.546	20457
901.665	20461
901.784	20438
901.904	20282
902.023	20172
902.141	20024
902.26	19856
902.379	20062
902.498	19860
902.617	19883
902.735	19909
902.854	19814
902.973	19932
903.091	19533
903.21	19449
903.328	19552
903.446	19460
903.565	19339
903.683	19426
903.801	19202
903.919	19388
904.038	19327
904.156	19156
904.274	19168
904.392	19015
904.51	19118
904.627	19019
904.745	19091
904.863	19118
904.981	18875
905.098	18760
905.216	18871
905.334	18821
905.451	18711
905.569	18894
905.686	18700
905.803	18715
905.921	18517
906.038	18639
906.155	18597
906.272	18369
906.389	18391
906.506	18228
906.623	18319
906.74	18243
906.857	18182
906.974	18209
907.091	18353
907.208	18380
907.324	18285
907.441	18205
907.557	17969
907.674	18060
907.79	17912
907.907	18007
908.023	18041
908.139	18022
908.256	17946
908.372	17840
908.488	17817
908.604	17707
908.72	17684
908.836	17748
908.952	17615
909.068	17771
909.184	17805
909.3	17566
909.415	17691
909.531	17668
909.647	17532
909.762	17459
909.878	17341
909.993	17410
910.108	17322
910.224	17326
910.339	17303
910.454	17334
910.57	17189
910.685	17208
910.8	17356
910.915	17231
911.03	17223
911.145	16850
911.259	16965
911.374	16965
911.489	16934
911.604	16839
911.718	16672
911.833	16805
911.947	16713
912.062	16599
912.176	16828
912.291	16740
912.405	16698
912.519	16896
912.633	16930
912.748	16774
912.862	16713
912.976	16519
913.09	16390
913.204	16550
913.318	16493
913.431	16664
913.545	16531
913.659	16672
913.772	16440
913.886	16272
914	16360
914.113	16249
914.226	16421
914.34	16352
914.453	16215
914.566	16367
914.68	16185
914.793	16128
914.906	15937
915.019	15876
915.132	15892
915.245	15804
915.358	15816
915.47	15915
915.583	15979
915.696	15918
915.809	15994
915.921	15983
916.034	15857
916.146	15869
916.259	15846
916.371	15808
916.483	15861
916.595	15846
916.708	15644
916.82	15736
916.932	15660
917.044	15568
917.156	15660
917.268	15488
917.38	15584
917.491	15485
917.603	15576
917.715	15648
917.826	15526
917.938	15458
918.049	15397
918.161	15378
918.272	15526
918.384	15504
918.495	15389
918.606	15249
918.717	15252
918.828	15275
918.939	15325
919.05	15146
919.161	15203
919.272	15043
919.383	15127
919.494	15237
919.604	15481
919.715	15287
919.826	15108
919.936	15161
920.047	15302
920.157	15142
920.267	15393
920.378	15245
920.488	15241
920.598	15405
920.708	15553
920.818	15348
920.928	15256
921.038	15481
921.148	15386
921.258	15184
921.368	15097
921.477	15024
921.587	14960
921.697	14823
921.806	14921
921.916	14807
922.025	14659
922.134	14655
922.244	14438
922.353	14651
922.462	14419
922.571	14396
922.68	14233
922.789	14176
922.898	14195
923.007	14111
923.116	14168
923.224	14134
923.333	14195
923.442	13974
923.55	14065
923.659	14050
923.767	14111
923.876	13963
923.984	14073
924.092	13833
924.201	13913
924.309	13909
924.417	13852
924.525	13818
924.633	13856
924.741	14724
924.849	13620
924.956	13776
925.064	13578
925.172	13567
925.279	13483
925.387	13563
925.494	13533
925.602	13704
925.709	13632
925.816	13590
925.924	13537
926.031	13514
926.138	13426
926.245	13544
926.352	13320
926.459	13556
926.566	13552
926.673	13468
926.779	13324
926.886	13312
926.993	13149
927.099	13137
927.206	13110
927.312	13042
927.419	13145
927.525	13175
927.631	13114
927.737	13000
927.843	12970
927.95	12753
928.056	12848
928.162	12947
928.267	12958
928.373	13540
928.479	12989
928.585	12681
928.69	12897
928.796	12825
928.901	12738
929.007	12635
929.112	12867
929.218	12753
929.323	12654
929.428	12662
929.533	12757
929.638	12616
929.743	12620
929.848	12623
929.953	12582
930.058	12441
930.163	12365
930.267	12251
930.372	12483
930.477	12304
930.581	12506
930.685	12350
930.79	12190
930.894	12178
930.998	12216
931.103	12357
931.207	11939
931.311	11859
931.415	11741
931.519	11543
931.623	11463
