Data from test_V78500241_2912.txt Node
Date: Fri Mar 25 16:01:58 CST 2022
User: usil
Spectrometer: V785-0024
Trigger mode: 0
Integration Time (sec): 4.000000E-1
Scans to average: 1
Nonlinearity correction enabled: false
Boxcar width: 0
Storing dark spectrum: false
XAxis mode: Wavelengths
Number of Pixels in Spectrum: 1024
>>>>>Begin Spectral Data<<<<<
801.071	28660
801.214	28744
801.356	28462
801.499	28356
801.641	28192
801.783	28200
801.926	28466
802.068	28295
802.211	28238
802.353	28169
802.496	28090
802.638	27945
802.78	27888
802.923	27899
803.065	27755
803.208	27876
803.35	28044
803.492	27941
803.635	28253
803.777	28063
803.919	28215
804.061	28489
804.204	28185
804.346	28051
804.488	27914
804.63	28158
804.773	28021
804.915	28280
805.057	28398
805.199	28249
805.341	28341
805.483	28261
805.626	28341
805.768	28284
805.91	28306
806.052	28363
806.194	28226
806.336	28493
806.478	28421
806.62	28322
806.762	28550
806.904	28611
807.046	28812
807.188	28767
807.33	28675
807.472	28957
807.614	28866
807.756	28831
807.898	28809
808.04	28584
808.182	28462
808.324	28687
808.465	28843
808.607	28881
808.749	28949
808.891	29128
809.033	29151
809.174	29048
809.316	29128
809.458	29037
809.6	28930
809.741	29098
809.883	29162
810.025	29395
810.166	29258
810.308	29448
810.45	29197
810.591	29315
810.733	29083
810.875	28965
811.016	29022
811.158	28820
811.299	29098
811.441	29231
811.582	29356
811.724	29067
811.865	29105
812.007	29094
812.148	29014
812.29	29185
812.431	29185
812.573	29482
812.714	29455
812.855	29448
812.997	29653
813.138	29745
813.279	29748
813.421	29634
813.562	29554
813.703	29375
813.845	29318
813.986	28934
814.127	28812
814.268	28805
814.41	28858
814.551	28729
814.692	28782
814.833	28668
814.974	28538
815.115	28668
815.256	28672
815.397	28538
815.539	28618
815.68	28577
815.821	28405
815.962	28596
816.103	28504
816.244	28516
816.385	28367
816.526	28329
816.666	28185
816.807	28074
816.948	28059
817.089	28093
817.23	28059
817.371	28010
817.512	27949
817.653	27934
817.793	27979
817.934	28147
818.075	28025
818.216	28082
818.356	28025
818.497	27998
818.638	27736
818.778	27720
818.919	27709
819.06	27937
819.2	27930
819.341	27994
819.481	28006
819.622	28219
819.762	28497
819.903	28295
820.043	28238
820.184	28196
820.324	28135
820.465	28234
820.605	28238
820.746	28287
820.886	27994
821.026	28112
821.167	28158
821.307	28265
821.447	28124
821.588	28006
821.728	27892
821.868	27747
822.008	27564
822.149	27549
822.289	27435
822.429	27355
822.569	27329
822.709	27241
822.849	26971
822.99	27028
823.13	27009
823.27	27074
823.41	26857
823.55	26708
823.69	27005
823.83	26864
823.97	26853
824.11	26792
824.25	26693
824.389	26693
824.529	26739
824.669	26762
824.809	26925
824.949	26883
825.089	26872
825.228	26746
825.368	26434
825.508	26511
825.648	26682
825.787	26533
825.927	26598
826.067	26621
826.206	26545
826.346	26648
826.485	26606
826.625	26541
826.765	26880
826.904	26724
827.044	26431
827.183	26244
827.323	26271
827.462	26431
827.601	26374
827.741	26381
827.88	26298
828.02	26153
828.159	26309
828.298	26396
828.437	26450
828.577	26233
828.716	26434
828.855	26221
828.994	25936
829.134	25982
829.273	25974
829.412	26035
829.551	25902
829.69	25970
829.829	25944
829.968	26050
830.107	26130
830.246	25932
830.385	25936
830.524	25959
830.663	25765
830.802	25780
830.941	25510
831.08	25628
831.219	25685
831.357	25594
831.496	25826
831.635	25647
831.774	25567
831.913	25388
832.051	25441
832.19	25426
832.329	25369
832.467	25358
832.606	25152
832.744	25209
832.883	25213
833.022	25198
833.16	25293
833.299	25304
833.437	25312
833.576	25285
833.714	25358
833.852	25419
833.991	25403
834.129	25487
834.267	25365
834.406	25297
834.544	25304
834.682	25263
834.821	25285
834.959	25567
835.097	25289
835.235	25392
835.373	25346
835.511	25346
835.65	25187
835.788	25270
835.926	25042
836.064	24856
836.202	24932
836.34	25012
836.478	25350
836.615	25133
836.753	25240
836.891	25312
837.029	25282
837.167	25194
837.305	25046
837.443	25019
837.58	24970
837.718	25027
837.856	25008
837.993	24966
838.131	24886
838.269	24954
838.406	24989
838.544	24814
838.681	24654
838.819	24623
838.956	24361
839.094	24426
839.231	24380
839.369	24578
839.506	24859
839.643	24620
839.781	24490
839.918	24429
840.055	24494
840.193	24399
840.33	24289
840.467	24330
840.604	24414
840.742	24654
840.879	24205
841.016	24346
841.153	24285
841.29	24399
841.427	24388
841.564	24399
841.701	24357
841.838	24350
841.975	24186
842.112	24289
842.249	24190
842.385	24144
842.522	24346
842.659	24194
842.796	24091
842.933	24106
843.069	23977
843.206	24064
843.343	24114
843.479	24117
843.616	24114
843.752	23855
843.889	23885
844.025	24007
844.162	23946
844.298	23980
844.435	23863
844.571	23916
844.708	23866
844.844	24045
844.98	24003
845.117	23908
845.253	23783
845.389	23798
845.525	23767
845.661	23653
845.798	23638
845.934	23687
846.07	23463
846.206	23604
846.342	23783
846.478	23516
846.614	23421
846.75	23296
846.886	23395
847.022	23448
847.158	23303
847.294	23273
847.429	23315
847.565	23200
847.701	23638
847.837	23208
847.972	23143
848.108	23140
848.244	23143
848.379	23010
848.515	23003
848.65	22862
848.786	23010
848.921	22911
849.057	23147
849.192	23094
849.328	22953
849.463	22968
849.598	22965
849.734	22793
849.869	22717
850.004	22687
850.14	22774
850.275	22710
850.41	22755
850.545	22592
850.68	22592
850.815	22786
850.95	22733
851.085	22767
851.22	22748
851.355	22664
851.49	22641
851.625	22630
851.76	22702
851.895	22462
852.03	22664
852.165	22580
852.299	22713
852.434	22672
852.569	22744
852.703	22733
852.838	22729
852.973	22877
853.107	22812
853.242	22713
853.376	22607
853.511	22508
853.645	22459
853.78	22691
853.914	22656
854.048	22485
854.183	22459
854.317	22588
854.451	22812
854.585	22580
854.72	22569
854.854	22588
854.988	22432
855.122	22569
855.256	22424
855.39	22440
855.524	22626
855.658	22535
855.792	22557
855.926	22478
856.06	22569
856.194	22561
856.327	22481
856.461	22424
856.595	22375
856.729	22459
856.862	22615
856.996	22630
857.13	22432
857.263	22649
857.397	22584
857.53	22474
857.664	22542
857.797	22740
857.931	22683
858.064	22421
858.197	22611
858.331	22470
858.464	22565
858.597	22394
858.731	22481
858.864	22447
858.997	22421
859.13	22474
859.263	22565
859.396	22618
859.529	22538
859.662	22508
859.795	22527
859.928	22474
860.061	22656
860.194	22683
860.327	22500
860.46	22531
860.592	22668
860.725	22607
860.858	22691
860.99	22512
861.123	22508
861.256	22466
861.388	22577
861.521	23337
861.653	22497
861.786	22139
861.918	22382
862.05	22405
862.183	22470
862.315	22451
862.447	22417
862.58	22443
862.712	22295
862.844	22116
862.976	22348
863.108	22230
863.24	22717
863.372	22158
863.504	22322
863.636	22280
863.768	22276
863.9	22246
864.032	22139
864.164	22105
864.296	22200
864.428	22329
864.559	22455
864.691	22249
864.823	22139
864.954	22261
865.086	22188
865.217	22101
865.349	22044
865.48	22181
865.612	22120
865.743	22253
865.875	22063
866.006	21960
866.137	22032
866.269	22036
866.4	22021
866.531	21987
866.662	22063
866.793	21972
866.924	22090
867.055	22196
867.186	21987
867.317	22044
867.448	21941
867.579	21972
867.71	21865
867.841	21903
867.972	22002
868.103	21953
868.233	22101
868.364	21994
868.495	22051
868.625	22219
868.756	22375
868.886	22097
869.017	22314
869.147	22360
869.278	22466
869.408	22246
869.539	22219
869.669	22295
869.799	22322
869.929	22428
870.06	22447
870.19	22573
870.32	22531
870.45	22462
870.58	22538
870.71	22801
870.84	22835
870.97	22645
871.1	22603
871.23	22790
871.36	22995
871.489	22774
871.619	22828
871.749	22839
871.879	22930
872.008	22904
872.138	22790
872.267	22957
872.397	22744
872.526	22702
872.656	22679
872.785	22729
872.915	22839
873.044	22934
873.173	22961
873.303	23018
873.432	23025
873.561	23060
873.69	22873
873.819	22889
873.948	23010
874.077	22835
874.206	22771
874.335	22774
874.464	22999
874.593	23151
874.722	23044
874.851	23178
874.979	23105
875.108	23254
875.237	23064
875.365	22919
875.494	23151
875.623	23204
875.751	23048
875.88	23048
876.008	23216
876.136	23227
876.265	23509
876.393	23585
876.521	23440
876.65	23581
876.778	23512
876.906	23440
877.034	23463
877.162	23455
877.29	23440
877.418	23360
877.546	23493
877.674	23414
877.802	23421
877.93	23497
878.058	23425
878.185	23216
878.313	23421
878.441	23440
878.568	23242
878.696	23322
878.824	23528
878.951	23589
879.079	23581
879.206	23809
879.333	23452
879.461	23474
879.588	23528
879.715	23600
879.842	23676
879.97	23608
880.097	23356
880.224	23273
880.351	23353
880.478	23223
880.605	23242
880.732	23242
880.859	23414
880.986	23356
881.112	23265
881.239	23197
881.366	22942
881.493	22957
881.619	22949
881.746	22889
881.872	22919
881.999	22824
882.125	22847
882.252	22824
882.378	22763
882.505	22835
882.631	22653
882.757	22527
882.883	22436
883.01	22451
883.136	22462
883.262	22356
883.388	22314
883.514	22527
883.64	22413
883.766	22455
883.892	22196
884.018	22249
884.143	22379
884.269	22546
884.395	22158
884.52	22188
884.646	22215
884.772	21941
884.897	22101
885.023	22112
885.148	22246
885.274	22284
885.399	22253
885.524	22147
885.65	22105
885.775	22166
885.9	22185
886.025	22265
886.15	22207
886.275	22185
886.4	22097
886.525	21968
886.65	22032
886.775	21956
886.9	22196
887.025	22291
887.149	22162
887.274	21907
887.399	21835
887.523	21964
887.648	21823
887.773	21846
887.897	22006
888.021	21926
888.146	21808
888.27	21846
888.395	21884
888.519	21972
888.643	21884
888.767	21964
888.891	21762
889.015	21641
889.139	21720
889.263	21587
889.387	21690
889.511	21884
889.635	21728
889.759	21644
889.883	21644
890.006	21759
890.13	21759
890.254	21732
890.377	21542
890.501	21481
890.624	21317
890.748	21500
890.871	21329
890.995	21218
891.118	21256
891.241	21203
891.364	21241
891.488	21370
891.611	21245
891.734	21093
891.857	21313
891.98	21131
892.103	21332
892.226	21256
892.349	21260
892.471	20944
892.594	21043
892.717	21157
892.839	21055
892.962	21165
893.085	21176
893.207	21112
893.33	20975
893.452	21051
893.575	21165
893.697	20963
893.819	21203
893.941	21332
894.064	21127
894.186	21055
894.308	21112
894.43	21211
894.552	21226
894.674	21306
894.796	21005
894.918	21173
895.04	21017
895.161	21214
895.283	21112
895.405	20990
895.526	21089
895.648	21074
895.769	21195
895.891	21112
896.012	21173
896.134	21100
896.255	21074
896.376	21047
896.498	21184
896.619	21233
896.74	21138
896.861	21157
896.982	21466
897.103	21523
897.224	21370
897.345	21173
897.466	21207
897.587	21306
897.708	21367
897.828	21348
897.949	21249
898.07	21055
898.19	21195
898.311	21397
898.431	21176
898.552	21363
898.672	21374
898.792	21389
898.913	21287
899.033	21233
899.153	21127
899.273	21055
899.393	21089
899.513	21032
899.633	21093
899.753	21062
899.873	20921
899.993	20937
900.113	21001
900.232	20994
900.352	20861
900.472	20762
900.591	20746
900.711	20819
900.83	20769
900.95	20948
901.069	20887
901.189	20644
901.308	20484
901.427	20298
901.546	20332
901.665	20351
901.784	20317
901.904	20305
902.023	20202
902.141	20058
902.26	19944
902.379	20001
902.498	19951
902.617	19902
902.735	19772
902.854	19826
902.973	19753
903.091	19533
903.21	19529
903.328	19552
903.446	19324
903.565	19495
903.683	19293
903.801	19285
903.919	19282
904.038	19259
904.156	19095
904.274	19156
904.392	19088
904.51	19031
904.627	19038
904.745	19069
904.863	19061
904.981	18825
905.098	18772
905.216	18688
905.334	18802
905.451	18779
905.569	18578
905.686	18821
905.803	18707
905.921	18642
906.038	18597
906.155	18566
906.272	18391
906.389	18502
906.506	18319
906.623	18281
906.74	18315
906.857	18155
906.974	18197
907.091	18311
907.208	18338
907.324	18372
907.441	18064
907.557	17980
907.674	17965
907.79	17870
907.907	18019
908.023	17954
908.139	18072
908.256	17863
908.372	17942
908.488	17885
908.604	17653
908.72	17745
908.836	17672
908.952	17714
909.068	17722
909.184	17798
909.3	17699
909.415	17752
909.531	17516
909.647	17379
909.762	17364
909.878	17311
909.993	17440
910.108	17239
910.224	17322
910.339	17353
910.454	17296
910.57	17143
910.685	17181
910.8	17345
910.915	17360
911.03	17102
911.145	17064
911.259	16934
911.374	16881
911.489	16930
911.604	16869
911.718	16763
911.833	16694
911.947	16679
912.062	16626
912.176	16725
912.291	16679
912.405	16759
912.519	16911
912.633	16881
912.748	16721
912.862	16733
912.976	16546
913.09	16470
913.204	16413
913.318	16550
913.431	16561
913.545	16592
913.659	16611
913.772	16447
913.886	16299
914	16284
914.113	16375
914.226	16356
914.34	16295
914.453	16234
914.566	16329
914.68	16211
914.793	16249
914.906	15903
915.019	15945
915.132	15850
915.245	15899
915.358	15945
915.47	16002
915.583	15869
915.696	15899
915.809	16044
915.921	15994
916.034	15819
916.146	15812
916.259	15686
916.371	15789
916.483	15797
916.595	15652
916.708	15724
916.82	15766
916.932	15747
917.044	15690
917.156	15523
917.268	15526
917.38	15568
917.491	15500
917.603	15580
917.715	15580
917.826	15568
917.938	15477
918.049	15260
918.161	15466
918.272	15603
918.384	15614
918.495	15443
918.606	15317
918.717	15252
918.828	15268
918.939	15291
919.05	15173
919.161	15230
919.272	15089
919.383	15032
919.494	15249
919.604	15435
919.715	15203
919.826	15199
919.936	15218
920.047	15283
920.157	15249
920.267	15367
920.378	15230
920.488	15089
920.598	15332
920.708	15485
920.818	15313
920.928	15412
921.038	15363
921.148	15431
921.258	15123
921.368	14979
921.477	15009
921.587	14861
921.697	14769
921.806	14845
921.916	14800
922.025	14617
922.134	14716
922.244	14450
922.353	14708
922.462	14438
922.571	14328
922.68	14248
922.789	14267
922.898	14240
923.007	14195
923.116	14202
923.224	14187
923.333	14062
923.442	14050
923.55	14046
923.659	14020
923.767	14115
923.876	13963
923.984	14024
924.092	13940
924.201	13879
924.309	13894
924.417	13951
924.525	13898
924.633	13830
924.741	14872
924.849	13712
924.956	13791
925.064	13750
925.172	13514
925.279	13639
925.387	13578
925.494	13548
925.602	13677
925.709	13628
925.816	13502
925.924	13552
926.031	13559
926.138	13430
926.245	13514
926.352	13415
926.459	13544
926.566	13544
926.673	13377
926.779	13381
926.886	13266
926.993	13091
927.099	13164
927.206	13114
927.312	13156
927.419	13126
927.525	13103
927.631	13118
927.737	13050
927.843	12970
927.95	12882
928.056	12890
928.162	13019
928.267	12924
928.373	13632
928.479	12909
928.585	12715
928.69	12859
928.796	12935
928.901	12768
929.007	12604
929.112	12760
929.218	12665
929.323	12707
929.428	12604
929.533	12757
929.638	12635
929.743	12563
929.848	12589
929.953	12528
930.058	12460
930.163	12300
930.267	12403
930.372	12460
930.477	12205
930.581	12471
930.685	12315
930.79	12178
930.894	12232
930.998	12106
931.103	12266
931.207	11939
931.311	11828
931.415	11832
931.519	11520
931.623	11547
