Data from test_V78500241_47.txt Node
Date: Fri Mar 25 15:42:07 CST 2022
User: usil
Spectrometer: V785-0024
Trigger mode: 0
Integration Time (sec): 4.000000E-1
Scans to average: 1
Nonlinearity correction enabled: false
Boxcar width: 0
Storing dark spectrum: false
XAxis mode: Wavelengths
Number of Pixels in Spectrum: 1024
>>>>>Begin Spectral Data<<<<<
801.071	29064
801.214	29033
801.356	28653
801.499	28588
801.641	28618
801.783	28409
801.926	28512
802.068	28405
802.211	28303
802.353	28253
802.496	28246
802.638	28192
802.78	28013
802.923	27983
803.065	28051
803.208	28013
803.35	28048
803.492	28116
803.635	28226
803.777	28070
803.919	28428
804.061	28504
804.204	28265
804.346	28078
804.488	28128
804.63	28158
804.773	28059
804.915	28051
805.057	28192
805.199	28101
805.341	28109
805.483	28226
805.626	28287
805.768	28036
805.91	28177
806.052	28272
806.194	28272
806.336	28413
806.478	28265
806.62	28306
806.762	28341
806.904	28531
807.046	28782
807.188	28725
807.33	28615
807.472	28637
807.614	28497
807.756	28497
807.898	28561
808.04	28405
808.182	28443
808.324	28447
808.465	28390
808.607	28474
808.749	28611
808.891	28786
809.033	28976
809.174	28805
809.316	28710
809.458	28759
809.6	28816
809.741	28729
809.883	28904
810.025	29018
810.166	28797
810.308	29022
810.45	28984
810.591	28839
810.733	28542
810.875	28584
811.016	28603
811.158	28459
811.299	28733
811.441	28767
811.582	28805
811.724	28717
811.865	28535
812.007	28611
812.148	28653
812.29	28748
812.431	28763
812.573	28869
812.714	28961
812.855	29132
812.997	29113
813.138	29444
813.279	29250
813.421	29189
813.562	29083
813.703	28881
813.845	28679
813.986	28478
814.127	28291
814.268	28116
814.41	28192
814.551	28188
814.692	28200
814.833	28143
814.974	28204
815.115	28211
815.256	28040
815.397	27975
815.539	27964
815.68	27918
815.821	27854
815.962	27914
816.103	27937
816.244	27785
816.385	27644
816.526	27701
816.666	27332
816.807	27378
816.948	27370
817.089	27481
817.23	27294
817.371	27237
817.512	27195
817.653	27233
817.793	27188
817.934	27188
818.075	27279
818.216	27317
818.356	27032
818.497	27085
818.638	26940
818.778	27100
818.919	27013
819.06	26914
819.2	27066
819.341	27211
819.481	27047
819.622	27317
819.762	27420
819.903	27427
820.043	27317
820.184	27310
820.324	27272
820.465	27317
820.605	27237
820.746	27119
820.886	26979
821.026	27184
821.167	27123
821.307	27192
821.447	27020
821.588	27047
821.728	26902
821.868	26739
822.008	26537
822.149	26632
822.289	26568
822.429	26336
822.569	26202
822.709	26187
822.849	26130
822.99	26092
823.13	26103
823.27	25951
823.41	25974
823.55	25772
823.69	25879
823.83	25830
823.97	25833
824.11	25658
824.25	25464
824.389	25548
824.529	25750
824.669	25556
824.809	25624
824.949	25620
825.089	25738
825.228	25487
825.368	25506
825.508	25411
825.648	25304
825.787	25301
825.927	25491
826.067	25304
826.206	25453
826.346	25438
826.485	25453
826.625	25324
826.765	25544
826.904	25441
827.044	25129
827.183	24958
827.323	24924
827.462	24966
827.601	25110
827.741	24890
827.88	25000
828.02	25019
828.159	24928
828.298	25000
828.437	25069
828.577	24882
828.716	25110
828.855	24989
828.994	24703
829.134	24745
829.273	24760
829.412	24658
829.551	24517
829.69	24665
829.829	24665
829.968	24741
830.107	24753
830.246	24650
830.385	24513
830.524	24528
830.663	24475
830.802	24369
830.941	24159
831.08	24121
831.219	24194
831.357	24216
831.496	24414
831.635	24171
831.774	24049
831.913	23950
832.051	23996
832.19	23996
832.329	24064
832.467	23824
832.606	23745
832.744	23851
832.883	23832
833.022	23741
833.16	23760
833.299	23851
833.437	23745
833.576	23802
833.714	23847
833.852	23882
833.991	23847
834.129	23851
834.267	23920
834.406	23809
834.544	23916
834.682	23824
834.821	23779
834.959	23961
835.097	23672
835.235	23855
835.373	23779
835.511	23809
835.65	23486
835.788	23585
835.926	23433
836.064	23387
836.202	23452
836.34	23570
836.478	23710
836.615	23554
836.753	23661
836.891	23611
837.029	23581
837.167	23615
837.305	23497
837.443	23596
837.58	23478
837.718	23562
837.856	23531
837.993	23505
838.131	23436
838.269	23391
838.406	23421
838.544	23242
838.681	23022
838.819	22999
838.956	22961
839.094	22900
839.231	22923
839.369	23041
839.506	23318
839.643	23185
839.781	22790
839.918	22889
840.055	22869
840.193	22725
840.33	22801
840.467	22831
840.604	22961
840.742	23037
840.879	22634
841.016	22630
841.153	22702
841.29	22828
841.427	22736
841.564	22721
841.701	22831
841.838	22596
841.975	22599
842.112	22634
842.249	22584
842.385	22519
842.522	22675
842.659	22554
842.796	22531
842.933	22417
843.069	22367
843.206	22394
843.343	22440
843.479	22424
843.616	22443
843.752	22238
843.889	22192
844.025	22295
844.162	22207
844.298	22280
844.435	22242
844.571	22234
844.708	22223
844.844	22329
844.98	22268
845.117	22082
845.253	22097
845.389	21968
845.525	22101
845.661	21964
845.798	21831
845.934	21717
846.07	21827
846.206	21797
846.342	21983
846.478	21743
846.614	21679
846.75	21595
846.886	21595
847.022	21652
847.158	21614
847.294	21637
847.429	21663
847.565	21523
847.701	21739
847.837	21264
847.972	21199
848.108	21370
848.244	21378
848.379	21188
848.515	21195
848.65	21169
848.786	21245
848.921	21100
849.057	21188
849.192	21199
849.328	21066
849.463	21070
849.598	21104
849.734	21066
849.869	21001
850.004	20910
850.14	20948
850.275	20910
850.41	20826
850.545	20838
850.68	20842
850.815	20788
850.95	20849
851.085	21009
851.22	20990
851.355	20819
851.49	20838
851.625	20773
851.76	20754
851.895	20785
852.03	20769
852.165	20815
852.299	20868
852.434	20925
852.569	20727
852.703	20800
852.838	20895
852.973	21009
853.107	20975
853.242	20765
853.376	20670
853.511	20583
853.645	20492
853.78	20746
853.914	20735
854.048	20636
854.183	20514
854.317	20739
854.451	20838
854.585	20625
854.72	20644
854.854	20701
854.988	20564
855.122	20583
855.256	20465
855.39	20579
855.524	20697
855.658	20758
855.792	20632
855.926	20678
856.06	20571
856.194	20716
856.327	20583
856.461	20541
856.595	20514
856.729	20602
856.862	20743
856.996	20651
857.13	20678
857.263	20739
857.397	20712
857.53	20632
857.664	20613
857.797	20731
857.931	20686
858.064	20743
858.197	20674
858.331	20606
858.464	20393
858.597	20469
858.731	20480
858.864	20526
858.997	20484
859.13	20587
859.263	20583
859.396	20526
859.529	20651
859.662	20457
859.795	20556
859.928	20537
860.061	20785
860.194	20689
860.327	20476
860.46	20499
860.592	20568
860.725	20735
860.858	20484
860.99	20659
861.123	20454
861.256	20526
861.388	20537
861.521	20979
861.653	20461
861.786	20343
861.918	20355
862.05	20404
862.183	20427
862.315	20560
862.447	20556
862.58	20499
862.712	20317
862.844	20290
862.976	20351
863.108	20290
863.24	20602
863.372	20149
863.504	20180
863.636	20225
863.768	20119
863.9	20176
864.032	20149
864.164	20176
864.296	20210
864.428	20271
864.559	20256
864.691	20252
864.823	20252
864.954	20119
865.086	20130
865.217	20191
865.349	20020
865.48	20145
865.612	20107
865.743	20355
865.875	20130
866.006	20096
866.137	20077
866.269	20153
866.4	20164
866.531	20176
866.662	20058
866.793	20088
866.924	20058
867.055	20119
867.186	20168
867.317	19906
867.448	20005
867.579	20024
867.71	20054
867.841	20016
867.972	20145
868.103	20020
868.233	20024
868.364	20069
868.495	20111
868.625	20206
868.756	20328
868.886	20248
869.017	20248
869.147	20442
869.278	20377
869.408	20278
869.539	20320
869.669	20320
869.799	20256
869.929	20366
870.06	20351
870.19	20503
870.32	20480
870.45	20655
870.58	20670
870.71	20857
870.84	20880
870.97	20701
871.1	20609
871.23	20804
871.36	20861
871.489	20731
871.619	20830
871.749	20868
871.879	20842
872.008	20971
872.138	20925
872.267	20891
872.397	20701
872.526	20731
872.656	20712
872.785	20625
872.915	20941
873.044	20941
873.173	20967
873.303	21058
873.432	20849
873.561	20899
873.69	20933
873.819	20727
873.948	21009
874.077	20891
874.206	20929
874.335	20823
874.464	20941
874.593	21165
874.722	21051
874.851	21245
874.979	21131
875.108	21222
875.237	21150
875.365	21108
875.494	21173
875.623	21192
875.751	21112
875.88	21176
876.008	21351
876.136	21447
876.265	21667
876.393	21660
876.521	21679
876.65	21530
876.778	21473
876.906	21496
877.034	21572
877.162	21469
877.29	21382
877.418	21523
877.546	21553
877.674	21412
877.802	21526
877.93	21523
878.058	21397
878.185	21367
878.313	21595
878.441	21561
878.568	21291
878.696	21530
878.824	21591
878.951	21580
879.079	21614
879.206	21686
879.333	21660
879.461	21644
879.588	21542
879.715	21724
879.842	21705
879.97	21500
880.097	21321
880.224	21313
880.351	21397
880.478	21283
880.605	21291
880.732	21313
880.859	21485
880.986	21408
881.112	21325
881.239	21256
881.366	21062
881.493	21020
881.619	20975
881.746	20929
881.872	20979
881.999	20956
882.125	20868
882.252	20872
882.378	20979
882.505	21043
882.631	20921
882.757	20674
882.883	20705
883.01	20617
883.136	20693
883.262	20602
883.388	20571
883.514	20625
883.64	20849
883.766	20579
883.892	20507
884.018	20446
884.143	20640
884.269	20781
884.395	20454
884.52	20324
884.646	20450
884.772	20259
884.897	20256
885.023	20328
885.148	20461
885.274	20484
885.399	20328
885.524	20362
885.65	20393
885.775	20400
885.9	20290
886.025	20362
886.15	20415
886.275	20176
886.4	20096
886.525	20294
886.65	20126
886.775	20164
886.9	20214
887.025	20427
887.149	20237
887.274	20199
887.399	20081
887.523	20103
887.648	19921
887.773	19917
887.897	20100
888.021	20050
888.146	19959
888.27	20077
888.395	20122
888.519	20145
888.643	20138
888.767	19997
888.891	20020
889.015	19852
889.139	19909
889.263	19852
889.387	19906
889.511	19947
889.635	19989
889.759	19788
889.883	19803
890.006	19841
890.13	19951
890.254	19799
890.377	19719
890.501	19655
890.624	19487
890.748	19643
890.871	19480
890.995	19415
891.118	19343
891.241	19335
891.364	19426
891.488	19495
891.611	19407
891.734	19392
891.857	19422
891.98	19422
892.103	19449
892.226	19415
892.349	19400
892.471	19289
892.594	19327
892.717	19350
892.839	19388
892.962	19350
893.085	19438
893.207	19392
893.33	19278
893.452	19282
893.575	19396
893.697	19392
893.819	19445
893.941	19620
894.064	19373
894.186	19384
894.308	19274
894.43	19430
894.552	19464
894.674	19468
894.796	19331
894.918	19320
895.04	19324
895.161	19491
895.283	19438
895.405	19384
895.526	19304
895.648	19396
895.769	19502
895.891	19346
896.012	19495
896.134	19430
896.255	19525
896.376	19369
896.498	19388
896.619	19426
896.74	19575
896.861	19533
896.982	19734
897.103	19852
897.224	19670
897.345	19639
897.466	19540
897.587	19582
897.708	19833
897.828	19731
897.949	19575
898.07	19571
898.19	19540
898.311	19651
898.431	19597
898.552	19575
898.672	19658
898.792	19635
898.913	19681
899.033	19521
899.153	19403
899.273	19168
899.393	19274
899.513	19350
899.633	19282
899.753	19232
899.873	19206
899.993	19331
900.113	19278
900.232	19179
900.352	19384
900.472	19107
900.591	19053
900.711	19126
900.83	19088
900.95	19217
901.069	19251
901.189	19012
901.308	18829
901.427	18681
901.546	18795
901.665	18753
901.784	18684
901.904	18570
902.023	18388
902.141	18365
902.26	18201
902.379	18334
902.498	18133
902.617	18152
902.735	18171
902.854	18216
902.973	18087
903.091	17923
903.21	17977
903.328	17878
903.446	17824
903.565	17680
903.683	17680
903.801	17547
903.919	17691
904.038	17627
904.156	17490
904.274	17611
904.392	17482
904.51	17463
904.627	17368
904.745	17429
904.863	17440
904.981	17280
905.098	17052
905.216	17113
905.334	17140
905.451	17132
905.569	17086
905.686	17124
905.803	17048
905.921	17029
906.038	17022
906.155	16854
906.272	16885
906.389	16831
906.506	16615
906.623	16668
906.74	16607
906.857	16516
906.974	16565
907.091	16725
907.208	16801
907.324	16767
907.441	16603
907.557	16314
907.674	16413
907.79	16287
907.907	16405
908.023	16360
908.139	16363
908.256	16147
908.372	16177
908.488	16204
908.604	16078
908.72	16048
908.836	16010
908.952	15987
909.068	16093
909.184	16048
909.3	16048
909.415	16032
909.531	16044
909.647	15781
909.762	15789
909.878	15690
909.993	15778
910.108	15682
910.224	15690
910.339	15690
910.454	15595
910.57	15561
910.685	15477
910.8	15705
910.915	15625
911.03	15538
911.145	15462
911.259	15287
911.374	15313
911.489	15294
911.604	15150
911.718	15066
911.833	15119
911.947	15024
912.062	15005
912.176	15036
912.291	15097
912.405	15039
912.519	15363
912.633	15192
912.748	15112
912.862	14887
912.976	14929
913.09	14708
913.204	14811
913.318	14800
913.431	14921
913.545	14887
913.659	14948
913.772	14811
913.886	14670
914	14667
914.113	14826
914.226	14815
914.34	14758
914.453	14617
914.566	14697
914.68	14564
914.793	14541
914.906	14309
915.019	14362
915.132	14199
915.245	14343
915.358	14263
915.47	14336
915.583	14275
915.696	14324
915.809	14590
915.921	14450
916.034	14218
916.146	14172
916.259	14115
916.371	14256
916.483	14278
916.595	14145
916.708	14142
916.82	14176
916.932	14123
917.044	14210
917.156	14119
917.268	14008
917.38	14065
917.491	13989
917.603	14069
917.715	13959
917.826	14077
917.938	13928
918.049	13909
918.161	14046
918.272	14107
918.384	13925
918.495	13887
918.606	13753
918.717	13769
918.828	13883
918.939	13776
919.05	13609
919.161	13765
919.272	13578
919.383	13643
919.494	13803
919.604	13944
919.715	13784
919.826	13597
919.936	13731
920.047	13776
920.157	13662
920.267	13967
920.378	13715
920.488	13674
920.598	13909
920.708	14035
920.818	13818
920.928	13982
921.038	14103
921.148	13986
921.258	13655
921.368	13620
921.477	13529
921.587	13476
921.697	13468
921.806	13388
921.916	13392
922.025	13152
922.134	13103
922.244	13095
922.353	13217
922.462	12989
922.571	12962
922.68	12711
922.789	12787
922.898	12776
923.007	12776
923.116	12783
923.224	12700
923.333	12730
923.442	12604
923.55	12620
923.659	12620
923.767	12692
923.876	12555
923.984	12566
924.092	12506
924.201	12544
924.309	12483
924.417	12570
924.525	12448
924.633	12532
924.741	13369
924.849	12235
924.956	12441
925.064	12292
925.172	12175
925.279	12235
925.387	12239
925.494	12178
925.602	12327
925.709	12300
925.816	12003
925.924	12121
926.031	12296
926.138	12121
926.245	12270
926.352	12003
926.459	12190
926.566	12296
926.673	12064
926.779	12060
926.886	11969
926.993	11836
927.099	11832
927.206	11855
927.312	11672
927.419	11824
927.525	11722
927.631	11786
927.737	11688
927.843	11665
927.95	11611
928.056	11619
928.162	11653
928.267	11733
928.373	12258
928.479	11722
928.585	11433
928.69	11589
928.796	11672
928.901	11551
929.007	11315
929.112	11490
929.218	11452
929.323	11353
929.428	11349
929.533	11516
929.638	11280
929.743	11364
929.848	11471
929.953	11318
930.058	11239
930.163	11090
930.267	11162
930.372	11288
930.477	10995
930.581	11197
930.685	11132
930.79	10976
930.894	10923
930.998	10930
931.103	11098
931.207	10683
931.311	10607
931.415	10523
931.519	10329
931.623	10322
