Data from test_V78500241_2103.txt Node
Date: Fri Mar 25 15:56:22 CST 2022
User: usil
Spectrometer: V785-0024
Trigger mode: 0
Integration Time (sec): 4.000000E-1
Scans to average: 1
Nonlinearity correction enabled: false
Boxcar width: 0
Storing dark spectrum: false
XAxis mode: Wavelengths
Number of Pixels in Spectrum: 1024
>>>>>Begin Spectral Data<<<<<
801.071	28904
801.214	28710
801.356	28474
801.499	28489
801.641	28421
801.783	28424
801.926	28538
802.068	28333
802.211	28394
802.353	28436
802.496	28230
802.638	28074
802.78	28040
802.923	27975
803.065	28036
803.208	27983
803.35	28040
803.492	28310
803.635	28337
803.777	28405
803.919	28371
804.061	28801
804.204	28367
804.346	28284
804.488	28261
804.63	28386
804.773	28272
804.915	28455
805.057	28451
805.199	28363
805.341	28386
805.483	28611
805.626	28554
805.768	28489
805.91	28523
806.052	28634
806.194	28424
806.336	28592
806.478	28557
806.62	28634
806.762	28592
806.904	28759
807.046	29083
807.188	28968
807.33	28987
807.472	29044
807.614	28908
807.756	29018
807.898	28820
808.04	28774
808.182	28847
808.324	28888
808.465	28809
808.607	29128
808.749	29193
808.891	29330
809.033	29391
809.174	29246
809.316	29193
809.458	29143
809.6	29292
809.741	29360
809.883	29311
810.025	29402
810.166	29528
810.308	29577
810.45	29448
810.591	29490
810.733	29269
810.875	29178
811.016	29105
811.158	29189
811.299	29280
811.441	29497
811.582	29383
811.724	29231
811.865	29086
812.007	29334
812.148	29322
812.29	29315
812.431	29414
812.573	29551
812.714	29649
812.855	29752
812.997	29783
813.138	29885
813.279	29931
813.421	29680
813.562	29703
813.703	29493
813.845	29558
813.986	29197
814.127	29071
814.268	29075
814.41	28919
814.551	28995
814.692	28911
814.833	28892
814.974	28927
815.115	28908
815.256	28744
815.397	28759
815.539	28805
815.68	28740
815.821	28763
815.962	28797
816.103	28839
816.244	28668
816.385	28599
816.526	28554
816.666	28447
816.807	28295
816.948	28226
817.089	28421
817.23	28253
817.371	28200
817.512	28249
817.653	28207
817.793	28223
817.934	28295
818.075	28409
818.216	28257
818.356	28207
818.497	28131
818.638	28013
818.778	28044
818.919	27983
819.06	28063
819.2	28185
819.341	28268
819.481	28234
819.622	28356
819.762	28691
819.903	28516
820.043	28386
820.184	28470
820.324	28341
820.465	28356
820.605	28409
820.746	28386
820.886	28306
821.026	28314
821.167	28337
821.307	28382
821.447	28516
821.588	28268
821.728	28147
821.868	27964
822.008	27793
822.149	27724
822.289	27667
822.429	27538
822.569	27473
822.709	27443
822.849	27218
822.99	27298
823.13	27222
823.27	27195
823.41	27032
823.55	26944
823.69	27081
823.83	27135
823.97	27036
824.11	26853
824.25	26853
824.389	26929
824.529	27009
824.669	26853
824.809	27047
824.949	26933
825.089	27020
825.228	26982
825.368	26800
825.508	26773
825.648	26781
825.787	26944
825.927	26788
826.067	26705
826.206	26800
826.346	26914
826.485	26815
826.625	26758
826.765	27051
826.904	26853
827.044	26609
827.183	26518
827.323	26518
827.462	26537
827.601	26594
827.741	26533
827.88	26731
828.02	26362
828.159	26412
828.298	26560
828.437	26522
828.577	26446
828.716	26488
828.855	26404
828.994	26240
829.134	26210
829.273	26210
829.412	26275
829.551	26290
829.69	26263
829.829	26290
829.968	26252
830.107	26199
830.246	26161
830.385	26244
830.524	26214
830.663	26039
830.802	25906
830.941	25833
831.08	25655
831.219	25830
831.357	25940
831.496	25986
831.635	25738
831.774	25750
831.913	25670
832.051	25639
832.19	25499
832.329	25616
832.467	25559
832.606	25529
832.744	25297
832.883	25506
833.022	25476
833.16	25403
833.299	25578
833.437	25533
833.576	25590
833.714	25635
833.852	25571
833.991	25674
834.129	25662
834.267	25620
834.406	25525
834.544	25464
834.682	25476
834.821	25567
834.959	25651
835.097	25438
835.235	25540
835.373	25597
835.511	25495
835.65	25358
835.788	25350
835.926	25293
836.064	25213
836.202	25209
836.34	25247
836.478	25529
836.615	25304
836.753	25320
836.891	25468
837.029	25346
837.167	25316
837.305	25091
837.443	25209
837.58	25304
837.718	25274
837.856	25251
837.993	25118
838.131	25240
838.269	25114
838.406	25019
838.544	25023
838.681	24947
838.819	24783
838.956	24745
839.094	24681
839.231	24669
839.369	24863
839.506	25038
839.643	25004
839.781	24616
839.918	24646
840.055	24650
840.193	24661
840.33	24490
840.467	24547
840.604	24513
840.742	24840
840.879	24391
841.016	24498
841.153	24486
841.29	24578
841.427	24559
841.564	24654
841.701	24532
841.838	24525
841.975	24433
842.112	24486
842.249	24388
842.385	24334
842.522	24490
842.659	24327
842.796	24251
842.933	24251
843.069	24266
843.206	24361
843.343	24410
843.479	24304
843.616	24308
843.752	24087
843.889	24148
844.025	24258
844.162	24201
844.298	24136
844.435	24102
844.571	24106
844.708	24060
844.844	24197
844.98	24232
845.117	24163
845.253	24038
845.389	24030
845.525	23999
845.661	23817
845.798	23775
845.934	23954
846.07	23904
846.206	23889
846.342	23931
846.478	23851
846.614	23608
846.75	23490
846.886	23577
847.022	23752
847.158	23516
847.294	23581
847.429	23630
847.565	23459
847.701	23657
847.837	23334
847.972	23235
848.108	23307
848.244	23322
848.379	23136
848.515	23033
848.65	23166
848.786	23102
848.921	23083
849.057	23277
849.192	23185
849.328	23147
849.463	23159
849.598	23174
849.734	23044
849.869	22938
850.004	22885
850.14	23041
850.275	22786
850.41	22694
850.545	22869
850.68	22831
850.815	22877
850.95	22889
851.085	23105
851.22	23018
851.355	22900
851.49	22892
851.625	22763
851.76	22915
851.895	22904
852.03	22812
852.165	22820
852.299	22961
852.434	22934
852.569	23022
852.703	22908
852.838	22949
852.973	22949
853.107	23029
853.242	22850
853.376	22820
853.511	22538
853.645	22599
853.78	22759
853.914	22774
854.048	22683
854.183	22687
854.317	22763
854.451	22968
854.585	22736
854.72	22679
854.854	22828
854.988	22706
855.122	22649
855.256	22641
855.39	22805
855.524	22771
855.658	22717
855.792	22843
855.926	22752
856.06	22938
856.194	22831
856.327	22740
856.461	22626
856.595	22694
856.729	22736
856.862	22896
856.996	22687
857.13	22862
857.263	22805
857.397	22774
857.53	22577
857.664	22793
857.797	22805
857.931	22858
858.064	22828
858.197	22786
858.331	22645
858.464	22710
858.597	22550
858.731	22694
858.864	22592
858.997	22736
859.13	22736
859.263	22626
859.396	22877
859.529	22691
859.662	22668
859.795	22615
859.928	22782
860.061	22877
860.194	22976
860.327	22786
860.46	22702
860.592	22949
860.725	22930
860.858	22869
860.99	22698
861.123	22744
861.256	22698
861.388	22679
861.521	23558
861.653	22493
861.786	22516
861.918	22577
862.05	22687
862.183	22653
862.315	22538
862.447	22675
862.58	22538
862.712	22363
862.844	22360
862.976	22516
863.108	22497
863.24	22820
863.372	22303
863.504	22500
863.636	22561
863.768	22417
863.9	22413
864.032	22352
864.164	22394
864.296	22516
864.428	22538
864.559	22451
864.691	22538
864.823	22432
864.954	22314
865.086	22360
865.217	22291
865.349	22337
865.48	22234
865.612	22360
865.743	22428
865.875	22211
866.006	22337
866.137	22306
866.269	22284
866.4	22200
866.531	22215
866.662	22242
866.793	22147
866.924	22242
867.055	22177
867.186	22261
867.317	22287
867.448	22169
867.579	22181
867.71	22154
867.841	22234
867.972	22192
868.103	22188
868.233	22306
868.364	22211
868.495	22261
868.625	22424
868.756	22500
868.886	22402
869.017	22489
869.147	22557
869.278	22618
869.408	22542
869.539	22489
869.669	22470
869.799	22455
869.929	22531
870.06	22599
870.19	22812
870.32	22896
870.45	22820
870.58	22824
870.71	22942
870.84	22946
870.97	22801
871.1	22900
871.23	22965
871.36	23105
871.489	22957
871.619	23067
871.749	23109
871.879	23159
872.008	23113
872.138	23033
872.267	23003
872.397	22961
872.526	22961
872.656	22961
872.785	22812
872.915	22991
873.044	23098
873.173	22961
873.303	22900
873.432	23155
873.561	23200
873.69	23204
873.819	23048
873.948	23155
874.077	22919
874.206	22942
874.335	23098
874.464	23296
874.593	23307
874.722	23223
874.851	23307
874.979	23315
875.108	23383
875.237	23151
875.365	23204
875.494	23284
875.623	23326
875.751	23341
875.88	23292
876.008	23387
876.136	23341
876.265	23661
876.393	23855
876.521	23661
876.65	23718
876.778	23600
876.906	23585
877.034	23638
877.162	23596
877.29	23600
877.418	23684
877.546	23608
877.674	23627
877.802	23627
877.93	23600
878.058	23585
878.185	23539
878.313	23687
878.441	23589
878.568	23493
878.696	23505
878.824	23741
878.951	23817
879.079	23741
879.206	23942
879.333	23676
879.461	23691
879.588	23802
879.715	23802
879.842	23832
879.97	23668
880.097	23471
880.224	23562
880.351	23463
880.478	23474
880.605	23315
880.732	23429
880.859	23642
880.986	23433
881.112	23497
881.239	23356
881.366	23136
881.493	23166
881.619	23018
881.746	22987
881.872	23003
881.999	23029
882.125	22957
882.252	23006
882.378	22999
882.505	23090
882.631	22771
882.757	22706
882.883	22717
883.01	22698
883.136	22504
883.262	22531
883.388	22497
883.514	22649
883.64	22713
883.766	22580
883.892	22516
884.018	22356
884.143	22596
884.269	22679
884.395	22360
884.52	22348
884.646	22314
884.772	22261
884.897	22120
885.023	22424
885.148	22325
885.274	22508
885.399	22276
885.524	22253
885.65	22341
885.775	22306
885.9	22352
886.025	22386
886.15	22375
886.275	22356
886.4	22116
886.525	22284
886.65	22211
886.775	22196
886.9	22363
887.025	22557
887.149	22249
887.274	22200
887.399	21979
887.523	22036
887.648	21968
887.773	21979
887.897	22135
888.021	22055
888.146	21941
888.27	22131
888.395	22207
888.519	22109
888.643	22234
888.767	22040
888.891	22048
889.015	21937
889.139	21930
889.263	21994
889.387	21884
889.511	22002
889.635	21953
889.759	21880
889.883	21766
890.006	21819
890.13	21907
890.254	21728
890.377	21766
890.501	21644
890.624	21595
890.748	21652
890.871	21523
890.995	21481
891.118	21321
891.241	21329
891.364	21408
891.488	21401
891.611	21393
891.734	21454
891.857	21355
891.98	21279
892.103	21355
892.226	21256
892.349	21348
892.471	21233
892.594	21218
892.717	21313
892.839	21199
892.962	21294
893.085	21298
893.207	21325
893.33	21138
893.452	21157
893.575	21291
893.697	21192
893.819	21306
893.941	21401
894.064	21424
894.186	21157
894.308	21180
894.43	21321
894.552	21466
894.674	21382
894.796	21157
894.918	21184
895.04	21298
895.161	21283
895.283	21241
895.405	21230
895.526	21291
895.648	21180
895.769	21306
895.891	21081
896.012	21408
896.134	21222
896.255	21268
896.376	21188
896.498	21294
896.619	21268
896.74	21287
896.861	21226
896.982	21519
897.103	21618
897.224	21317
897.345	21416
897.466	21344
897.587	21450
897.708	21587
897.828	21622
897.949	21424
898.07	21252
898.19	21329
898.311	21511
898.431	21321
898.552	21389
898.672	21416
898.792	21431
898.913	21458
899.033	21447
899.153	21268
899.273	21119
899.393	21184
899.513	21184
899.633	21089
899.753	21146
899.873	21055
899.993	21138
900.113	21055
900.232	21100
900.352	21154
900.472	20998
900.591	20876
900.711	20857
900.83	20899
900.95	20971
901.069	21024
901.189	20819
901.308	20552
901.427	20503
901.546	20454
901.665	20480
901.784	20552
901.904	20332
902.023	20305
902.141	20164
902.26	20088
902.379	20077
902.498	19921
902.617	20039
902.735	20046
902.854	20016
902.973	19887
903.091	19662
903.21	19734
903.328	19696
903.446	19518
903.565	19411
903.683	19559
903.801	19343
903.919	19441
904.038	19327
904.156	19221
904.274	19282
904.392	19152
904.51	19282
904.627	19107
904.745	19221
904.863	19365
904.981	18962
905.098	18859
905.216	18772
905.334	18913
905.451	18993
905.569	18878
905.686	18890
905.803	18966
905.921	18612
906.038	18661
906.155	18650
906.272	18532
906.389	18536
906.506	18429
906.623	18418
906.74	18407
906.857	18365
906.974	18232
907.091	18403
907.208	18627
907.324	18323
907.441	18270
907.557	18174
907.674	18140
907.79	18034
907.907	18136
908.023	18205
908.139	18098
908.256	18030
908.372	18060
908.488	17984
908.604	17878
908.72	17794
908.836	17813
908.952	17802
909.068	17760
909.184	17977
909.3	17840
909.415	17760
909.531	17729
909.647	17600
909.762	17547
909.878	17410
909.993	17558
910.108	17501
910.224	17452
910.339	17486
910.454	17433
910.57	17337
910.685	17204
910.8	17493
910.915	17520
911.03	17368
911.145	17189
911.259	17159
911.374	17155
911.489	17025
911.604	16953
911.718	16908
911.833	16748
911.947	16809
912.062	16691
912.176	16866
912.291	16767
912.405	16843
912.519	17018
912.633	16927
912.748	16858
912.862	16778
912.976	16721
913.09	16523
913.204	16599
913.318	16653
913.431	16782
913.545	16679
913.659	16744
913.772	16592
913.886	16489
914	16459
914.113	16538
914.226	16550
914.34	16485
914.453	16272
914.566	16447
914.68	16356
914.793	16173
914.906	16025
915.019	16109
915.132	15968
915.245	16002
915.358	16010
915.47	15945
915.583	15937
915.696	16010
915.809	16135
915.921	15991
916.034	15991
916.146	15934
916.259	15907
916.371	15994
916.483	15903
916.595	15869
916.708	15835
916.82	15827
916.932	15793
917.044	15770
917.156	15755
917.268	15610
917.38	15701
917.491	15622
917.603	15682
917.715	15698
917.826	15637
917.938	15633
918.049	15424
918.161	15542
918.272	15728
918.384	15625
918.495	15572
918.606	15317
918.717	15378
918.828	15313
918.939	15317
919.05	15298
919.161	15329
919.272	15089
919.383	15287
919.494	15412
919.604	15629
919.715	15424
919.826	15199
919.936	15291
920.047	15348
920.157	15416
920.267	15504
920.378	15256
920.488	15344
920.598	15435
920.708	15599
920.818	15374
920.928	15348
921.038	15584
921.148	15549
921.258	15188
921.368	15195
921.477	15112
921.587	15001
921.697	14891
921.806	15036
921.916	14906
922.025	14674
922.134	14705
922.244	14697
922.353	14716
922.462	14610
922.571	14396
922.68	14294
922.789	14313
922.898	14305
923.007	14168
923.116	14320
923.224	14278
923.333	14275
923.442	14115
923.55	14145
923.659	14202
923.767	14187
923.876	14046
923.984	14195
924.092	14062
924.201	14031
924.309	13986
924.417	13921
924.525	13875
924.633	13898
924.741	14724
924.849	13765
924.956	13833
925.064	13788
925.172	13658
925.279	13795
925.387	13655
925.494	13761
925.602	13811
925.709	13708
925.816	13540
925.924	13609
926.031	13681
926.138	13624
926.245	13662
926.352	13533
926.459	13647
926.566	13662
926.673	13571
926.779	13495
926.886	13331
926.993	13293
927.099	13198
927.206	13133
927.312	13217
927.419	13244
927.525	13274
927.631	13240
927.737	13023
927.843	13053
927.95	12905
928.056	12951
928.162	13046
928.267	13080
928.373	13734
928.479	13034
928.585	12886
928.69	13057
928.796	12920
928.901	12871
929.007	12787
929.112	12939
929.218	12798
929.323	12658
929.428	12760
929.533	12897
929.638	12654
929.743	12738
929.848	12681
929.953	12616
930.058	12578
930.163	12334
930.267	12437
930.372	12673
930.477	12330
930.581	12623
930.685	12441
930.79	12281
930.894	12304
930.998	12289
931.103	12334
931.207	12049
931.311	12045
931.415	11843
931.519	11729
931.623	11619
