Data from test_V78500241_3435.txt Node
Date: Fri Mar 25 16:05:35 CST 2022
User: usil
Spectrometer: V785-0024
Trigger mode: 0
Integration Time (sec): 4.000000E-1
Scans to average: 1
Nonlinearity correction enabled: false
Boxcar width: 0
Storing dark spectrum: false
XAxis mode: Wavelengths
Number of Pixels in Spectrum: 1024
>>>>>Begin Spectral Data<<<<<
801.071	28744
801.214	28816
801.356	28565
801.499	28588
801.641	28554
801.783	28474
801.926	28322
802.068	28459
802.211	28417
802.353	28181
802.496	28226
802.638	28097
802.78	28070
802.923	28048
803.065	28093
803.208	28013
803.35	28219
803.492	28249
803.635	28314
803.777	28253
803.919	28440
804.061	28729
804.204	28527
804.346	28284
804.488	28124
804.63	28299
804.773	28257
804.915	28531
805.057	28356
805.199	28303
805.341	28531
805.483	28611
805.626	28401
805.768	28440
805.91	28436
806.052	28451
806.194	28432
806.336	28611
806.478	28504
806.62	28447
806.762	28687
806.904	28790
807.046	28900
807.188	28805
807.33	28972
807.472	28991
807.614	28999
807.756	28965
807.898	28759
808.04	28797
808.182	28771
808.324	28759
808.465	28824
808.607	29033
808.749	29174
808.891	29425
809.033	29425
809.174	29174
809.316	29178
809.458	29239
809.6	29121
809.741	29364
809.883	29223
810.025	29398
810.166	29501
810.308	29642
810.45	29444
810.591	29334
810.733	29060
810.875	29212
811.016	29113
811.158	29220
811.299	29231
811.441	29406
811.582	29349
811.724	29368
811.865	29265
812.007	29193
812.148	29200
812.29	29292
812.431	29395
812.573	29634
812.714	29695
812.855	29779
812.997	29821
813.138	30152
813.279	29775
813.421	29718
813.562	29832
813.703	29627
813.845	29474
813.986	29296
814.127	29033
814.268	28908
814.41	28984
814.551	28877
814.692	29079
814.833	28991
814.974	28980
815.115	28949
815.256	28839
815.397	28824
815.539	28881
815.68	28752
815.821	28755
815.962	28786
816.103	28828
816.244	28763
816.385	28523
816.526	28519
816.666	28318
816.807	28116
816.948	28325
817.089	28470
817.23	28417
817.371	28192
817.512	28230
817.653	28234
817.793	28192
817.934	28131
818.075	28261
818.216	28257
818.356	28215
818.497	28097
818.638	28055
818.778	27983
818.919	28040
819.06	28147
819.2	28185
819.341	28238
819.481	28371
819.622	28421
819.762	28550
819.903	28565
820.043	28390
820.184	28436
820.324	28382
820.465	28557
820.605	28363
820.746	28413
820.886	28310
821.026	28261
821.167	28322
821.307	28390
821.447	28405
821.588	28348
821.728	28093
821.868	27865
822.008	27812
822.149	27785
822.289	27629
822.429	27519
822.569	27485
822.709	27382
822.849	27310
822.99	27412
823.13	27138
823.27	27291
823.41	27043
823.55	27028
823.69	27127
823.83	27017
823.97	26994
824.11	26883
824.25	26868
824.389	26918
824.529	27028
824.669	26986
824.809	27058
824.949	26933
825.089	27036
825.228	26910
825.368	26644
825.508	26705
825.648	26895
825.787	26769
825.927	26891
826.067	26807
826.206	26804
826.346	26811
826.485	26899
826.625	26716
826.765	26880
826.904	26868
827.044	26507
827.183	26598
827.323	26476
827.462	26549
827.601	26526
827.741	26549
827.88	26606
828.02	26396
828.159	26495
828.298	26549
828.437	26651
828.577	26530
828.716	26579
828.855	26366
828.994	26286
829.134	26191
829.273	26183
829.412	26221
829.551	26100
829.69	26176
829.829	26153
829.968	26355
830.107	26248
830.246	26332
830.385	26191
830.524	26103
830.663	26005
830.802	25928
830.941	25784
831.08	25811
831.219	25890
831.357	25932
831.496	25871
831.635	25765
831.774	25864
831.913	25780
832.051	25727
832.19	25567
832.329	25510
832.467	25487
832.606	25411
832.744	25362
832.883	25533
833.022	25483
833.16	25514
833.299	25540
833.437	25460
833.576	25609
833.714	25552
833.852	25670
833.991	25658
834.129	25635
834.267	25548
834.406	25514
834.544	25594
834.682	25518
834.821	25491
834.959	25704
835.097	25525
835.235	25605
835.373	25525
835.511	25590
835.65	25278
835.788	25434
835.926	25297
836.064	25190
836.202	25187
836.34	25487
836.478	25350
836.615	25384
836.753	25377
836.891	25525
837.029	25403
837.167	25335
837.305	25236
837.443	25129
837.58	25107
837.718	25236
837.856	25289
837.993	25072
838.131	25183
838.269	25156
838.406	25137
838.544	25122
838.681	24856
838.819	24837
838.956	24738
839.094	24677
839.231	24677
839.369	24958
839.506	25057
839.643	24932
839.781	24631
839.918	24551
840.055	24719
840.193	24536
840.33	24642
840.467	24486
840.604	24566
840.742	24749
840.879	24471
841.016	24445
841.153	24456
841.29	24551
841.427	24570
841.564	24574
841.701	24448
841.838	24517
841.975	24509
842.112	24582
842.249	24426
842.385	24380
842.522	24525
842.659	24399
842.796	24403
842.933	24277
843.069	24353
843.206	24369
843.343	24422
843.479	24338
843.616	24369
843.752	24171
843.889	24076
844.025	24369
844.162	24072
844.298	24144
844.435	24083
844.571	24083
844.708	24178
844.844	24285
844.98	24190
845.117	24281
845.253	23904
845.389	23878
845.525	23992
845.661	24015
845.798	23840
845.934	23836
846.07	23863
846.206	23821
846.342	24034
846.478	23939
846.614	23638
846.75	23459
846.886	23619
847.022	23623
847.158	23672
847.294	23615
847.429	23604
847.565	23566
847.701	23874
847.837	23265
847.972	23383
848.108	23417
848.244	23341
848.379	22976
848.515	23166
848.65	23162
848.786	23143
848.921	23117
849.057	23318
849.192	23216
849.328	23170
849.463	23143
849.598	23067
849.734	22889
849.869	22881
850.004	23037
850.14	22946
850.275	22869
850.41	22774
850.545	22831
850.68	22801
850.815	22984
850.95	22805
851.085	23117
851.22	22976
851.355	22938
851.49	22839
851.625	22809
851.76	22957
851.895	22885
852.03	22774
852.165	22900
852.299	22953
852.434	23056
852.569	22877
852.703	22873
852.838	22889
852.973	22984
853.107	23018
853.242	22866
853.376	22748
853.511	22763
853.645	22694
853.78	22786
853.914	22854
854.048	22656
854.183	22713
854.317	22752
854.451	22904
854.585	22721
854.72	22721
854.854	22683
854.988	22721
855.122	22763
855.256	22706
855.39	22763
855.524	22771
855.658	22782
855.792	22744
855.926	22767
856.06	22782
856.194	22843
856.327	22759
856.461	22649
856.595	22702
856.729	22763
856.862	22831
856.996	22710
857.13	22824
857.263	22847
857.397	22790
857.53	22588
857.664	22771
857.797	22733
857.931	22904
858.064	22805
858.197	22854
858.331	22675
858.464	22748
858.597	22618
858.731	22725
858.864	22653
858.997	22668
859.13	22672
859.263	22691
859.396	22877
859.529	22759
859.662	22687
859.795	22767
859.928	22801
860.061	22812
860.194	22881
860.327	22824
860.46	22759
860.592	22786
860.725	22889
860.858	22854
860.99	22713
861.123	22672
861.256	22710
861.388	22649
861.521	23288
861.653	22626
861.786	22557
861.918	22653
862.05	22694
862.183	22618
862.315	22687
862.447	22687
862.58	22584
862.712	22466
862.844	22466
862.976	22542
863.108	22485
863.24	22839
863.372	22447
863.504	22493
863.636	22538
863.768	22504
863.9	22447
864.032	22409
864.164	22489
864.296	22569
864.428	22611
864.559	22516
864.691	22512
864.823	22538
864.954	22367
865.086	22451
865.217	22344
865.349	22242
865.48	22295
865.612	22371
865.743	22371
865.875	22375
866.006	22280
866.137	22337
866.269	22257
866.4	22306
866.531	22169
866.662	22238
866.793	22253
866.924	22238
867.055	22211
867.186	22272
867.317	22299
867.448	22139
867.579	22211
867.71	22090
867.841	22173
867.972	22272
868.103	22131
868.233	22268
868.364	22238
868.495	22333
868.625	22516
868.756	22584
868.886	22348
869.017	22531
869.147	22607
869.278	22622
869.408	22417
869.539	22497
869.669	22478
869.799	22500
869.929	22554
870.06	22626
870.19	22896
870.32	22725
870.45	22881
870.58	22892
870.71	22976
870.84	22915
870.97	22824
871.1	22835
871.23	23014
871.36	23060
871.489	23003
871.619	22999
871.749	23105
871.879	23128
872.008	23178
872.138	23033
872.267	23136
872.397	23018
872.526	22820
872.656	22881
872.785	22839
872.915	23193
873.044	23181
873.173	23159
873.303	23102
873.432	23143
873.561	23284
873.69	23037
873.819	22915
873.948	23128
874.077	23140
874.206	23117
874.335	23010
874.464	23197
874.593	23360
874.722	23223
874.851	23395
874.979	23414
875.108	23280
875.237	23246
875.365	23197
875.494	23337
875.623	23444
875.751	23360
875.88	23440
876.008	23455
876.136	23429
876.265	23657
876.393	23809
876.521	23752
876.65	23691
876.778	23874
876.906	23733
877.034	23535
877.162	23653
877.29	23608
877.418	23665
877.546	23726
877.674	23554
877.802	23657
877.93	23577
878.058	23691
878.185	23486
878.313	23627
878.441	23630
878.568	23406
878.696	23566
878.824	23779
878.951	23604
879.079	23866
879.206	23942
879.333	23775
879.461	23653
879.588	23817
879.715	23798
879.842	23863
879.97	23771
880.097	23509
880.224	23402
880.351	23562
880.478	23551
880.605	23440
880.732	23509
880.859	23714
880.986	23543
881.112	23505
881.239	23379
881.366	23200
881.493	23117
881.619	22968
881.746	22991
881.872	23071
881.999	23044
882.125	22881
882.252	23083
882.378	23022
882.505	23018
882.631	22763
882.757	22755
882.883	22816
883.01	22683
883.136	22740
883.262	22474
883.388	22611
883.514	22687
883.64	22801
883.766	22630
883.892	22417
884.018	22500
884.143	22725
884.269	22626
884.395	22462
884.52	22249
884.646	22360
884.772	22265
884.897	22207
885.023	22485
885.148	22481
885.274	22527
885.399	22356
885.524	22447
885.65	22318
885.775	22314
885.9	22306
886.025	22481
886.15	22379
886.275	22360
886.4	22265
886.525	22303
886.65	22185
886.775	22295
886.9	22436
887.025	22489
887.149	22367
887.274	22063
887.399	22010
887.523	22044
887.648	22044
887.773	21987
887.897	22124
888.021	22082
888.146	22032
888.27	22154
888.395	22177
888.519	22090
888.643	22128
888.767	22112
888.891	22067
889.015	21949
889.139	22006
889.263	21888
889.387	21964
889.511	22116
889.635	21998
889.759	21926
889.883	21892
890.006	21884
890.13	22032
890.254	21732
890.377	21861
890.501	21530
890.624	21587
890.748	21591
890.871	21511
890.995	21447
891.118	21340
891.241	21481
891.364	21420
891.488	21580
891.611	21412
891.734	21462
891.857	21538
891.98	21420
892.103	21519
892.226	21447
892.349	21310
892.471	21252
892.594	21233
892.717	21351
892.839	21306
892.962	21321
893.085	21332
893.207	21325
893.33	21222
893.452	21294
893.575	21454
893.697	21203
893.819	21469
893.941	21435
894.064	21431
894.186	21317
894.308	21214
894.43	21279
894.552	21344
894.674	21386
894.796	21287
894.918	21283
895.04	21218
895.161	21294
895.283	21233
895.405	21302
895.526	21211
895.648	21218
895.769	21310
895.891	21397
896.012	21355
896.134	21332
896.255	21264
896.376	21272
896.498	21268
896.619	21241
896.74	21230
896.861	21386
896.982	21576
897.103	21736
897.224	21591
897.345	21496
897.466	21549
897.587	21466
897.708	21603
897.828	21504
897.949	21355
898.07	21230
898.19	21504
898.311	21485
898.431	21408
898.552	21473
898.672	21466
898.792	21534
898.913	21458
899.033	21199
899.153	21283
899.273	21241
899.393	21135
899.513	21199
899.633	21127
899.753	21218
899.873	21142
899.993	21310
900.113	21169
900.232	21119
900.352	21062
900.472	20918
900.591	20929
900.711	21001
900.83	20937
900.95	20975
901.069	20982
901.189	20906
901.308	20636
901.427	20571
901.546	20511
901.665	20526
901.784	20400
901.904	20450
902.023	20244
902.141	20172
902.26	20088
902.379	20199
902.498	20027
902.617	20024
902.735	20001
902.854	19982
902.973	19947
903.091	19693
903.21	19639
903.328	19677
903.446	19499
903.565	19556
903.683	19540
903.801	19381
903.919	19548
904.038	19460
904.156	19171
904.274	19316
904.392	19084
904.51	19297
904.627	19240
904.745	19217
904.863	19282
904.981	19004
905.098	18867
905.216	19076
905.334	18932
905.451	18894
905.569	18943
905.686	18981
905.803	18829
905.921	18696
906.038	18795
906.155	18631
906.272	18460
906.389	18642
906.506	18509
906.623	18437
906.74	18353
906.857	18327
906.974	18380
907.091	18327
907.208	18585
907.324	18422
907.441	18311
907.557	18174
907.674	18155
907.79	18038
907.907	18133
908.023	18125
908.139	18190
908.256	18083
908.372	17992
908.488	18022
908.604	17828
908.72	17737
908.836	17901
908.952	17813
909.068	17802
909.184	17882
909.3	17767
909.415	17828
909.531	17824
909.647	17615
909.762	17684
909.878	17414
909.993	17570
910.108	17532
910.224	17410
910.339	17524
910.454	17341
910.57	17280
910.685	17315
910.8	17482
910.915	17554
911.03	17315
911.145	17181
911.259	17060
911.374	17102
911.489	17102
911.604	17018
911.718	16869
911.833	16889
911.947	16729
912.062	16694
912.176	16847
912.291	16866
912.405	16752
912.519	17022
912.633	16976
912.748	16797
912.862	16850
912.976	16755
913.09	16618
913.204	16664
913.318	16729
913.431	16812
913.545	16782
913.659	16698
913.772	16538
913.886	16531
914	16409
914.113	16577
914.226	16527
914.34	16504
914.453	16413
914.566	16538
914.68	16310
914.793	16280
914.906	16158
915.019	16059
915.132	16002
915.245	15987
915.358	16078
915.47	16067
915.583	15922
915.696	16055
915.809	16150
915.921	16109
916.034	15998
916.146	15979
916.259	15941
916.371	16029
916.483	16013
916.595	15880
916.708	15846
916.82	15865
916.932	15842
917.044	15835
917.156	15762
917.268	15675
917.38	15698
917.491	15667
917.603	15648
917.715	15755
917.826	15667
917.938	15701
918.049	15477
918.161	15530
918.272	15747
918.384	15739
918.495	15538
918.606	15428
918.717	15443
918.828	15454
918.939	15458
919.05	15291
919.161	15325
919.272	15203
919.383	15222
919.494	15428
919.604	15572
919.715	15428
919.826	15249
919.936	15249
920.047	15466
920.157	15359
920.267	15534
920.378	15275
920.488	15329
920.598	15435
920.708	15637
920.818	15408
920.928	15408
921.038	15587
921.148	15523
921.258	15252
921.368	15135
921.477	15100
921.587	14960
921.697	14887
921.806	15020
921.916	14906
922.025	14739
922.134	14689
922.244	14712
922.353	14765
922.462	14541
922.571	14530
922.68	14332
922.789	14347
922.898	14339
923.007	14290
923.116	14339
923.224	14317
923.333	14290
923.442	14210
923.55	14001
923.659	14145
923.767	14187
923.876	14153
923.984	14130
924.092	13993
924.201	14062
924.309	13997
924.417	14077
924.525	14031
924.633	13894
924.741	14895
924.849	13696
924.956	14062
925.064	13731
925.172	13700
925.279	13590
925.387	13666
925.494	13731
925.602	13826
925.709	13776
925.816	13495
925.924	13578
926.031	13731
926.138	13609
926.245	13620
926.352	13556
926.459	13696
926.566	13761
926.673	13571
926.779	13559
926.886	13430
926.993	13278
927.099	13240
927.206	13118
927.312	13198
927.419	13247
927.525	13266
927.631	13206
927.737	13126
927.843	13031
927.95	12947
928.056	13065
928.162	13027
928.267	13095
928.373	13674
928.479	13190
928.585	12916
928.69	13015
928.796	13072
928.901	12875
929.007	12639
929.112	12856
929.218	12905
929.323	12738
929.428	12673
929.533	12840
929.638	12703
929.743	12688
929.848	12734
929.953	12662
930.058	12585
930.163	12456
930.267	12426
930.372	12555
930.477	12353
930.581	12578
930.685	12570
930.79	12213
930.894	12330
930.998	12224
931.103	12357
931.207	12102
931.311	11954
931.415	11958
931.519	11623
931.623	11676
