Data from test_V78500241_148.txt Node
Date: Fri Mar 25 15:42:49 CST 2022
User: usil
Spectrometer: V785-0024
Trigger mode: 0
Integration Time (sec): 4.000000E-1
Scans to average: 1
Nonlinearity correction enabled: false
Boxcar width: 0
Storing dark spectrum: false
XAxis mode: Wavelengths
Number of Pixels in Spectrum: 1024
>>>>>Begin Spectral Data<<<<<
801.071	29421
801.214	29345
801.356	29083
801.499	29067
801.641	28828
801.783	28980
801.926	28911
802.068	28938
802.211	28778
802.353	28873
802.496	28569
802.638	28382
802.78	28432
802.923	28386
803.065	28394
803.208	28295
803.35	28531
803.492	28554
803.635	28637
803.777	28569
803.919	28580
804.061	28896
804.204	28573
804.346	28500
804.488	28474
804.63	28519
804.773	28371
804.915	28474
805.057	28694
805.199	28706
805.341	28561
805.483	28729
805.626	28637
805.768	28816
805.91	28664
806.052	28774
806.194	28504
806.336	28927
806.478	28702
806.62	28653
806.762	28934
806.904	28763
807.046	29121
807.188	29265
807.33	29067
807.472	29090
807.614	28927
807.756	28820
807.898	28911
808.04	28888
808.182	28873
808.324	28831
808.465	28927
808.607	29102
808.749	29200
808.891	29353
809.033	29410
809.174	29220
809.316	29189
809.458	29151
809.6	29296
809.741	29341
809.883	29296
810.025	29375
810.166	29360
810.308	29554
810.45	29516
810.591	29345
810.733	29212
810.875	29227
811.016	29197
811.158	29022
811.299	29311
811.441	29383
811.582	29315
811.724	29147
811.865	29147
812.007	29067
812.148	29239
812.29	29086
812.431	29345
812.573	29482
812.714	29444
812.855	29554
812.997	29657
813.138	29996
813.279	29733
813.421	29547
813.562	29714
813.703	29421
813.845	29455
813.986	28908
814.127	28873
814.268	28710
814.41	28812
814.551	28717
814.692	28733
814.833	28615
814.974	28721
815.115	28672
815.256	28592
815.397	28519
815.539	28641
815.68	28470
815.821	28421
815.962	28531
816.103	28379
816.244	28314
816.385	28246
816.526	28211
816.666	28120
816.807	27987
816.948	27888
817.089	27987
817.23	27762
817.371	27835
817.512	28078
817.653	27884
817.793	27854
817.934	27831
818.075	27869
818.216	27892
818.356	27755
818.497	27610
818.638	27713
818.778	27629
818.919	27595
819.06	27728
819.2	27774
819.341	27671
819.481	27717
819.622	27934
819.762	28097
819.903	28124
820.043	27892
820.184	27953
820.324	28055
820.465	28017
820.605	27861
820.746	27808
820.886	27682
821.026	27850
821.167	27728
821.307	27781
821.447	27774
821.588	27759
821.728	27553
821.868	27405
822.008	27344
822.149	27138
822.289	27195
822.429	26971
822.569	26956
822.709	26929
822.849	26678
822.99	26667
823.13	26651
823.27	26613
823.41	26492
823.55	26423
823.69	26507
823.83	26495
823.97	26336
824.11	26358
824.25	26271
824.389	26336
824.529	26206
824.669	26309
824.809	26385
824.949	26355
825.089	26317
825.228	26206
825.368	25993
825.508	26278
825.648	26202
825.787	26119
825.927	26073
826.067	26016
826.206	26008
826.346	26077
826.485	26301
826.625	26073
826.765	26058
826.904	26035
827.044	25757
827.183	25970
827.323	25700
827.462	25776
827.601	25727
827.741	25620
827.88	25776
828.02	25620
828.159	25552
828.298	25753
828.437	25814
828.577	25514
828.716	25742
828.855	25537
828.994	25384
829.134	25285
829.273	25419
829.412	25377
829.551	25327
829.69	25316
829.829	25350
829.968	25487
830.107	25460
830.246	25388
830.385	25266
830.524	25148
830.663	25137
830.802	25095
830.941	24958
831.08	24871
831.219	24996
831.357	24981
831.496	25141
831.635	24947
831.774	24798
831.913	24924
832.051	24722
832.19	24597
832.329	24768
832.467	24585
832.606	24426
832.744	24460
832.883	24585
833.022	24555
833.16	24616
833.299	24509
833.437	24525
833.576	24707
833.714	24681
833.852	24726
833.991	24601
834.129	24604
834.267	24654
834.406	24604
834.544	24665
834.682	24536
834.821	24357
834.959	24616
835.097	24544
835.235	24471
835.373	24498
835.511	24578
835.65	24479
835.788	24403
835.926	24346
836.064	24201
836.202	24136
836.34	24315
836.478	24464
836.615	24350
836.753	24296
836.891	24334
837.029	24346
837.167	24407
837.305	24213
837.443	24148
837.58	24083
837.718	24262
837.856	24133
837.993	24220
838.131	24178
838.269	24159
838.406	24163
838.544	23942
838.681	23958
838.819	23703
838.956	23630
839.094	23649
839.231	23653
839.369	23691
839.506	23946
839.643	23684
839.781	23581
839.918	23551
840.055	23509
840.193	23570
840.33	23315
840.467	23493
840.604	23592
840.742	23802
840.879	23246
841.016	23478
841.153	23364
841.29	23608
841.427	23505
841.564	23463
841.701	23421
841.838	23353
841.975	23296
842.112	23414
842.249	23288
842.385	23223
842.522	23345
842.659	23303
842.796	23067
842.933	23052
843.069	23079
843.206	23083
843.343	23197
843.479	23174
843.616	23113
843.752	22934
843.889	22778
844.025	22881
844.162	22889
844.298	23014
844.435	22847
844.571	22752
844.708	22831
844.844	22915
844.98	22953
845.117	23006
845.253	22771
845.389	22740
845.525	22706
845.661	22630
845.798	22550
845.934	22607
846.07	22603
846.206	22561
846.342	22721
846.478	22443
846.614	22306
846.75	22242
846.886	22299
847.022	22440
847.158	22329
847.294	22185
847.429	22318
847.565	22200
847.701	22367
847.837	21975
847.972	21991
848.108	22013
848.244	22139
848.379	21899
848.515	21819
848.65	21903
848.786	21804
848.921	21762
849.057	21895
849.192	21880
849.328	21804
849.463	21873
849.598	21865
849.734	21686
849.869	21580
850.004	21583
850.14	21591
850.275	21614
850.41	21561
850.545	21454
850.68	21420
850.815	21614
850.95	21625
851.085	21705
851.22	21713
851.355	21526
851.49	21583
851.625	21511
851.76	21526
851.895	21545
852.03	21340
852.165	21523
852.299	21591
852.434	21629
852.569	21545
852.703	21606
852.838	21606
852.973	21641
853.107	21610
853.242	21447
853.376	21397
853.511	21222
853.645	21386
853.78	21507
853.914	21298
854.048	21245
854.183	21325
854.317	21454
854.451	21580
854.585	21466
854.72	21313
854.854	21420
854.988	21157
855.122	21378
855.256	21264
855.39	21313
855.524	21283
855.658	21351
855.792	21340
855.926	21359
856.06	21401
856.194	21351
856.327	21420
856.461	21211
856.595	21340
856.729	21279
856.862	21466
856.996	21370
857.13	21313
857.263	21340
857.397	21450
857.53	21298
857.664	21329
857.797	21306
857.931	21428
858.064	21302
858.197	21485
858.331	21233
858.464	21313
858.597	21218
858.731	21264
858.864	21317
858.997	21260
859.13	21317
859.263	21249
859.396	21393
859.529	21192
859.662	21264
859.795	21195
859.928	21256
860.061	21450
860.194	21393
860.327	21374
860.46	21393
860.592	21260
860.725	21439
860.858	21405
860.99	21222
861.123	21058
861.256	21291
861.388	21222
861.521	21857
861.653	21138
861.786	21005
861.918	21291
862.05	21245
862.183	21245
862.315	21370
862.447	21291
862.58	21241
862.712	21085
862.844	20994
862.976	21066
863.108	21028
863.24	21336
863.372	20963
863.504	20963
863.636	21074
863.768	20921
863.9	20933
864.032	20956
864.164	20887
864.296	20933
864.428	20998
864.559	21032
864.691	20933
864.823	20906
864.954	21028
865.086	20948
865.217	20925
865.349	20823
865.48	20921
865.612	20857
865.743	20967
865.875	20921
866.006	20697
866.137	20925
866.269	20807
866.4	20902
866.531	20921
866.662	20849
866.793	20769
866.924	20724
867.055	20864
867.186	20807
867.317	20754
867.448	20708
867.579	20674
867.71	20583
867.841	20663
867.972	20826
868.103	20724
868.233	20655
868.364	20716
868.495	20788
868.625	20834
868.756	21020
868.886	20807
869.017	20933
869.147	21150
869.278	20998
869.408	20998
869.539	20979
869.669	20963
869.799	21154
869.929	21245
870.06	21024
870.19	21359
870.32	21325
870.45	21386
870.58	21348
870.71	21538
870.84	21477
870.97	21485
871.1	21420
871.23	21526
871.36	21618
871.489	21568
871.619	21439
871.749	21583
871.879	21637
872.008	21652
872.138	21618
872.267	21660
872.397	21568
872.526	21439
872.656	21466
872.785	21481
872.915	21557
873.044	21736
873.173	21629
873.303	21644
873.432	21690
873.561	21713
873.69	21557
873.819	21572
873.948	21861
874.077	21717
874.206	21576
874.335	21686
874.464	21747
874.593	21808
874.722	21918
874.851	21827
874.979	21888
875.108	21907
875.237	21759
875.365	21766
875.494	21800
875.623	21899
875.751	21945
875.88	21899
876.008	21949
876.136	22055
876.265	22303
876.393	22466
876.521	22375
876.65	22382
876.778	22230
876.906	22348
877.034	22105
877.162	22226
877.29	22204
877.418	22204
877.546	22249
877.674	22086
877.802	22257
877.93	22257
878.058	22128
878.185	22147
878.313	22074
878.441	22268
878.568	21968
878.696	22223
878.824	22242
878.951	22299
879.079	22379
879.206	22398
879.333	22337
879.461	22272
879.588	22344
879.715	22394
879.842	22470
879.97	22325
880.097	22010
880.224	21937
880.351	21956
880.478	21964
880.605	22036
880.732	22093
880.859	22246
880.986	21983
881.112	22044
881.239	21975
881.366	21762
881.493	21747
881.619	21751
881.746	21667
881.872	21599
881.999	21542
882.125	21538
882.252	21690
882.378	21572
882.505	21720
882.631	21511
882.757	21477
882.883	21389
883.01	21447
883.136	21325
883.262	21241
883.388	21176
883.514	21340
883.64	21367
883.766	21222
883.892	21135
884.018	21188
884.143	21306
884.269	21348
884.395	21081
884.52	21017
884.646	21055
884.772	20868
884.897	20842
885.023	21066
885.148	21165
885.274	21230
885.399	20975
885.524	20944
885.65	21047
885.775	21058
885.9	21013
886.025	21020
886.15	21039
886.275	20960
886.4	20891
886.525	20861
886.65	20914
886.775	20941
886.9	21119
887.025	21154
887.149	21039
887.274	20864
887.399	20720
887.523	20720
887.648	20701
887.773	20697
887.897	20804
888.021	20769
888.146	20705
888.27	20849
888.395	20929
888.519	20830
888.643	20796
888.767	20800
888.891	20651
889.015	20511
889.139	20507
889.263	20495
889.387	20587
889.511	20682
889.635	20705
889.759	20484
889.883	20598
890.006	20415
890.13	20655
890.254	20396
890.377	20457
890.501	20259
890.624	20202
890.748	20275
890.871	20248
890.995	20077
891.118	19982
891.241	20126
891.364	20168
891.488	20164
891.611	19989
891.734	20046
891.857	20103
891.98	20081
892.103	20088
892.226	20069
892.349	19936
892.471	19871
892.594	19898
892.717	20050
892.839	19986
892.962	20001
893.085	20039
893.207	20043
893.33	19902
893.452	19940
893.575	20088
893.697	20024
893.819	20065
893.941	20069
894.064	20218
894.186	19902
894.308	19890
894.43	20073
894.552	20069
894.674	20001
894.796	20008
894.918	19909
895.04	19993
895.161	20130
895.283	20092
895.405	19997
895.526	20062
895.648	19936
895.769	19974
895.891	19993
896.012	20012
896.134	20062
896.255	20016
896.376	20046
896.498	20103
896.619	20088
896.74	20043
896.861	20084
896.982	20400
897.103	20480
897.224	20252
897.345	20176
897.466	20256
897.587	20202
897.708	20412
897.828	20294
897.949	20202
898.07	20039
898.19	20278
898.311	20442
898.431	20259
898.552	20252
898.672	20229
898.792	20282
898.913	20088
899.033	20119
899.153	19925
899.273	19818
899.393	19913
899.513	19963
899.633	19875
899.753	19879
899.873	19841
899.993	19944
900.113	19906
900.232	19883
900.352	19811
900.472	19795
900.591	19719
900.711	19693
900.83	19616
900.95	19791
901.069	19811
901.189	19605
901.308	19354
901.427	19198
901.546	19251
901.665	19358
901.784	19327
901.904	19141
902.023	19023
902.141	18905
902.26	18844
902.379	18897
902.498	18749
902.617	18795
902.735	18738
902.854	18741
902.973	18681
903.091	18532
903.21	18498
903.328	18498
903.446	18407
903.565	18247
903.683	18319
903.801	18148
903.919	18197
904.038	18254
904.156	18087
904.274	18098
904.392	17950
904.51	18026
904.627	18034
904.745	18022
904.863	18019
904.981	17817
905.098	17767
905.216	17668
905.334	17703
905.451	17649
905.569	17615
905.686	17760
905.803	17646
905.921	17376
906.038	17642
906.155	17532
906.272	17356
906.389	17345
906.506	17299
906.623	17197
906.74	17170
906.857	17143
906.974	17060
907.091	17223
907.208	17341
907.324	17227
907.441	17132
907.557	17014
907.674	16843
907.79	16892
907.907	16862
908.023	16847
908.139	16915
908.256	16793
908.372	16687
908.488	16729
908.604	16630
908.72	16577
908.836	16634
908.952	16428
909.068	16538
909.184	16672
909.3	16474
909.415	16554
909.531	16542
909.647	16322
909.762	16223
909.878	16344
909.993	16192
910.108	16219
910.224	16238
910.339	16223
910.454	16067
910.57	16078
910.685	15964
910.8	16253
910.915	16109
911.03	16074
911.145	15888
911.259	15846
911.374	15895
911.489	15732
911.604	15747
911.718	15526
911.833	15694
911.947	15538
912.062	15424
912.176	15568
912.291	15603
912.405	15625
912.519	15838
912.633	15762
912.748	15663
912.862	15511
912.976	15412
913.09	15332
913.204	15287
913.318	15363
913.431	15545
913.545	15412
913.659	15477
913.772	15279
913.886	15199
914	15195
914.113	15226
914.226	15275
914.34	15260
914.453	15089
914.566	15275
914.68	15097
914.793	15077
914.906	14941
915.019	14880
915.132	14823
915.245	14838
915.358	14819
915.47	14804
915.583	14891
915.696	14800
915.809	14914
915.921	14883
916.034	14739
916.146	14750
916.259	14727
916.371	14762
916.483	14792
916.595	14682
916.708	14727
916.82	14575
916.932	14560
917.044	14606
917.156	14587
917.268	14450
917.38	14465
917.491	14370
917.603	14434
917.715	14590
917.826	14659
917.938	14339
918.049	14347
918.161	14381
918.272	14488
918.384	14454
918.495	14404
918.606	14282
918.717	14096
918.828	14202
918.939	14233
919.05	14172
919.161	14168
919.272	14008
919.383	14096
919.494	14275
919.604	14347
919.715	14187
919.826	14138
919.936	14065
920.047	14195
920.157	14161
920.267	14385
920.378	14199
920.488	14027
920.598	14355
920.708	14571
920.818	14313
920.928	14294
921.038	14457
921.148	14328
921.258	13986
921.368	13986
921.477	13898
921.587	13947
921.697	13666
921.806	13917
921.916	13791
922.025	13544
922.134	13597
922.244	13502
922.353	13567
922.462	13476
922.571	13350
922.68	13228
922.789	13065
922.898	13213
923.007	13225
923.116	13221
923.224	13118
923.333	13171
923.442	13012
923.55	12977
923.659	13046
923.767	13065
923.876	12924
923.984	12962
924.092	12856
924.201	13008
924.309	12924
924.417	12958
924.525	12844
924.633	12734
924.741	13643
924.849	12631
924.956	12760
925.064	12719
925.172	12551
925.279	12551
925.387	12669
925.494	12585
925.602	12753
925.709	12669
925.816	12517
925.924	12650
926.031	12589
926.138	12536
926.245	12582
926.352	12448
926.459	12631
926.566	12597
926.673	12464
926.779	12350
926.886	12369
926.993	12213
927.099	12228
927.206	12102
927.312	12053
927.419	12289
927.525	12144
927.631	12273
927.737	12026
927.843	12136
927.95	12015
928.056	11977
928.162	11969
928.267	11988
928.373	12673
928.479	12129
928.585	11904
928.69	11965
928.796	11984
928.901	11855
929.007	11729
929.112	11843
929.218	11851
929.323	11733
929.428	11684
929.533	11882
929.638	11703
929.743	11676
929.848	11722
929.953	11649
930.058	11509
930.163	11421
930.267	11463
930.372	11471
930.477	11368
930.581	11672
930.685	11486
930.79	11322
930.894	11398
930.998	11292
931.103	11372
931.207	11064
931.311	10980
931.415	10854
931.519	10687
931.623	10630
