Data from test_V78500241_1577.txt Node
Date: Fri Mar 25 15:52:43 CST 2022
User: usil
Spectrometer: V785-0024
Trigger mode: 0
Integration Time (sec): 4.000000E-1
Scans to average: 1
Nonlinearity correction enabled: false
Boxcar width: 0
Storing dark spectrum: false
XAxis mode: Wavelengths
Number of Pixels in Spectrum: 1024
>>>>>Begin Spectral Data<<<<<
801.071	28112
801.214	27926
801.356	27724
801.499	27724
801.641	27618
801.783	27553
801.926	27686
802.068	27538
802.211	27511
802.353	27424
802.496	27226
802.638	27279
802.78	27230
802.923	27157
803.065	27249
803.208	27157
803.35	27245
803.492	27397
803.635	27458
803.777	27370
803.919	27519
804.061	27766
804.204	27625
804.346	27393
804.488	27367
804.63	27363
804.773	27408
804.915	27545
805.057	27603
805.199	27397
805.341	27549
805.483	27667
805.626	27633
805.768	27576
805.91	27701
806.052	27652
806.194	27530
806.336	27724
806.478	27660
806.62	27587
806.762	27728
806.904	27949
807.046	28196
807.188	28070
807.33	27987
807.472	28067
807.614	28086
807.756	27911
807.898	27907
808.04	27888
808.182	27857
808.324	27861
808.465	27907
808.607	28261
808.749	28375
808.891	28314
809.033	28447
809.174	28379
809.316	28226
809.458	28341
809.6	28158
809.741	28413
809.883	28409
810.025	28580
810.166	28531
810.308	28592
810.45	28542
810.591	28367
810.733	28291
810.875	28215
811.016	28074
811.158	28067
811.299	28394
811.441	28459
811.582	28375
811.724	28295
811.865	28291
812.007	28268
812.148	28303
812.29	28276
812.431	28557
812.573	28466
812.714	28725
812.855	28812
812.997	28793
813.138	28858
813.279	28888
813.421	28774
813.562	28778
813.703	28512
813.845	28466
813.986	28337
814.127	27968
814.268	27857
814.41	27994
814.551	27911
814.692	28021
814.833	28002
814.974	27968
815.115	27975
815.256	27888
815.397	27880
815.539	27789
815.68	27739
815.821	27686
815.962	27899
816.103	27812
816.244	27774
816.385	27564
816.526	27545
816.666	27306
816.807	27378
816.948	27340
817.089	27363
817.23	27237
817.371	27146
817.512	27310
817.653	27252
817.793	27287
817.934	27310
818.075	27272
818.216	27268
818.356	27176
818.497	27081
818.638	27085
818.778	26940
818.919	26994
819.06	27043
819.2	27138
819.341	27176
819.481	27275
819.622	27462
819.762	27618
819.903	27530
820.043	27466
820.184	27405
820.324	27245
820.465	27401
820.605	27233
820.746	27237
820.886	27306
821.026	27363
821.167	27294
821.307	27481
821.447	27310
821.588	27195
821.728	27203
821.868	26948
822.008	26914
822.149	26777
822.289	26754
822.429	26511
822.569	26389
822.709	26423
822.849	26343
822.99	26294
823.13	26168
823.27	26214
823.41	26122
823.55	25902
823.69	26016
823.83	26027
823.97	25856
824.11	25997
824.25	25959
824.389	25875
824.529	25902
824.669	25913
824.809	26024
824.949	26134
825.089	26081
825.228	26016
825.368	25719
825.508	25807
825.648	25811
825.787	25841
825.927	25860
826.067	25837
826.206	25769
826.346	25715
826.485	25875
826.625	25746
826.765	25761
826.904	25757
827.044	25586
827.183	25449
827.323	25502
827.462	25479
827.601	25533
827.741	25491
827.88	25499
828.02	25274
828.159	25365
828.298	25453
828.437	25468
828.577	25434
828.716	25559
828.855	25453
828.994	25206
829.134	25107
829.273	25213
829.412	25103
829.551	25133
829.69	25088
829.829	25118
829.968	25308
830.107	25285
830.246	25228
830.385	25175
830.524	25137
830.663	24928
830.802	24905
830.941	24707
831.08	24639
831.219	24825
831.357	24802
831.496	25038
831.635	24585
831.774	24616
831.913	24570
832.051	24544
832.19	24681
832.329	24509
832.467	24445
832.606	24422
832.744	24357
832.883	24407
833.022	24353
833.16	24365
833.299	24525
833.437	24505
833.576	24441
833.714	24422
833.852	24593
833.991	24620
834.129	24460
834.267	24517
834.406	24475
834.544	24532
834.682	24505
834.821	24517
834.959	24757
835.097	24513
835.235	24703
835.373	24513
835.511	24395
835.65	24338
835.788	24384
835.926	24296
836.064	24174
836.202	24197
836.34	24353
836.478	24471
836.615	24342
836.753	24407
836.891	24403
837.029	24281
837.167	24323
837.305	24163
837.443	24057
837.58	24167
837.718	24308
837.856	24209
837.993	24060
838.131	24232
838.269	23984
838.406	24114
838.544	23958
838.681	23733
838.819	23767
838.956	23623
839.094	23589
839.231	23665
839.369	23733
839.506	24018
839.643	23965
839.781	23718
839.918	23520
840.055	23665
840.193	23585
840.33	23634
840.467	23524
840.604	23741
840.742	23794
840.879	23364
841.016	23471
841.153	23383
841.29	23638
841.427	23520
841.564	23615
841.701	23585
841.838	23463
841.975	23478
842.112	23459
842.249	23322
842.385	23349
842.522	23493
842.659	23364
842.796	23474
842.933	23197
843.069	23212
843.206	23315
843.343	23444
843.479	23322
843.616	23292
843.752	23143
843.889	23113
844.025	23208
844.162	22984
844.298	23174
844.435	23060
844.571	23121
844.708	23056
844.844	23208
844.98	23140
845.117	23258
845.253	23117
845.389	23022
845.525	23113
845.661	22984
845.798	22725
845.934	22831
846.07	22786
846.206	22774
846.342	22858
846.478	22801
846.614	22573
846.75	22287
846.886	22493
847.022	22660
847.158	22485
847.294	22611
847.429	22637
847.565	22500
847.701	22805
847.837	22226
847.972	22128
848.108	22405
848.244	22432
848.379	22147
848.515	22200
848.65	22120
848.786	22059
848.921	22188
849.057	22226
849.192	22207
849.328	22169
849.463	22116
849.598	22067
849.734	21987
849.869	21930
850.004	21994
850.14	21907
850.275	21979
850.41	21831
850.545	21884
850.68	21922
850.815	21911
850.95	21937
851.085	21941
851.22	22063
851.355	21945
851.49	21972
851.625	21956
851.76	21941
851.895	21823
852.03	21861
852.165	21892
852.299	21926
852.434	21953
852.569	22040
852.703	21903
852.838	21873
852.973	21911
853.107	22154
853.242	21873
853.376	21800
853.511	21709
853.645	21641
853.78	21774
853.914	21797
854.048	21671
854.183	21732
854.317	21580
854.451	21899
854.585	21713
854.72	21827
854.854	21698
854.988	21580
855.122	21713
855.256	21648
855.39	21698
855.524	21663
855.658	21915
855.792	21717
855.926	21747
856.06	21720
856.194	21770
856.327	21675
856.461	21580
856.595	21770
856.729	21823
856.862	21949
856.996	21770
857.13	21698
857.263	21873
857.397	21797
857.53	21762
857.664	21759
857.797	21789
857.931	21880
858.064	21743
858.197	21827
858.331	21644
858.464	21603
858.597	21622
858.731	21648
858.864	21694
858.997	21663
859.13	21812
859.263	21682
859.396	21694
859.529	21728
859.662	21682
859.795	21675
859.928	21701
860.061	21717
860.194	21994
860.327	21876
860.46	21686
860.592	21911
860.725	21911
860.858	21949
860.99	21778
861.123	21580
861.256	21690
861.388	21774
861.521	22299
861.653	21538
861.786	21568
861.918	21701
862.05	21576
862.183	21625
862.315	21663
862.447	21625
862.58	21637
862.712	21492
862.844	21214
862.976	21526
863.108	21450
863.24	21953
863.372	21435
863.504	21329
863.636	21485
863.768	21447
863.9	21469
864.032	21336
864.164	21428
864.296	21325
864.428	21583
864.559	21420
864.691	21401
864.823	21443
864.954	21363
865.086	21416
865.217	21321
865.349	21230
865.48	21348
865.612	21344
865.743	21469
865.875	21435
866.006	21192
866.137	21378
866.269	21268
866.4	21412
866.531	21207
866.662	21226
866.793	21211
866.924	21306
867.055	21199
867.186	21310
867.317	21112
867.448	21249
867.579	21264
867.71	21199
867.841	21226
867.972	21344
868.103	21256
868.233	21355
868.364	21252
868.495	21245
868.625	21458
868.756	21530
868.886	21283
869.017	21538
869.147	21629
869.278	21595
869.408	21523
869.539	21462
869.669	21485
869.799	21477
869.929	21606
870.06	21751
870.19	21816
870.32	21717
870.45	21869
870.58	21907
870.71	21991
870.84	22070
870.97	21956
871.1	21793
871.23	22131
871.36	22032
871.489	21926
871.619	22143
871.749	21994
871.879	22101
872.008	22188
872.138	22109
872.267	22116
872.397	21960
872.526	21903
872.656	21972
872.785	21915
872.915	22131
873.044	22185
873.173	22177
873.303	22101
873.432	22105
873.561	22249
873.69	22154
873.819	22101
873.948	22318
874.077	22185
874.206	22169
874.335	22078
874.464	22173
874.593	22253
874.722	22291
874.851	22329
874.979	22382
875.108	22348
875.237	22337
875.365	22249
875.494	22299
875.623	22409
875.751	22143
875.88	22466
876.008	22367
876.136	22523
876.265	22664
876.393	22828
876.521	22767
876.65	22873
876.778	22774
876.906	22752
877.034	22653
877.162	22622
877.29	22660
877.418	22588
877.546	22691
877.674	22634
877.802	22645
877.93	22687
878.058	22531
878.185	22573
878.313	22656
878.441	22744
878.568	22546
878.696	22656
878.824	22793
878.951	22725
879.079	22949
879.206	22930
879.333	22850
879.461	22691
879.588	22782
879.715	22774
879.842	22972
879.97	22778
880.097	22561
880.224	22516
880.351	22546
880.478	22546
880.605	22436
880.732	22504
880.859	22683
880.986	22417
881.112	22523
881.239	22299
881.366	22295
881.493	22219
881.619	21994
881.746	22112
881.872	22116
881.999	22013
882.125	22013
882.252	21991
882.378	22093
882.505	22135
882.631	21915
882.757	21816
882.883	21899
883.01	21785
883.136	21720
883.262	21610
883.388	21530
883.514	21739
883.64	21816
883.766	21637
883.892	21488
884.018	21580
884.143	21629
884.269	21690
884.395	21401
884.52	21386
884.646	21363
884.772	21382
884.897	21310
885.023	21485
885.148	21412
885.274	21542
885.399	21580
885.524	21336
885.65	21435
885.775	21424
885.9	21370
886.025	21481
886.15	21367
886.275	21374
886.4	21397
886.525	21473
886.65	21272
886.775	21317
886.9	21553
887.025	21595
887.149	21382
887.274	21055
887.399	21241
887.523	20994
887.648	21043
887.773	21081
887.897	21256
888.021	21169
888.146	20952
888.27	21203
888.395	21306
888.519	21268
888.643	21150
888.767	21222
888.891	21142
889.015	20990
889.139	21028
889.263	20918
889.387	21150
889.511	21203
889.635	21230
889.759	20921
889.883	20815
890.006	20956
890.13	21001
890.254	20864
890.377	20883
890.501	20781
890.624	20663
890.748	20636
890.871	20693
890.995	20571
891.118	20530
891.241	20514
891.364	20438
891.488	20670
891.611	20473
891.734	20514
891.857	20552
891.98	20590
892.103	20571
892.226	20533
892.349	20419
892.471	20309
892.594	20339
892.717	20602
892.839	20495
892.962	20415
893.085	20427
893.207	20461
893.33	20332
893.452	20461
893.575	20377
893.697	20396
893.819	20571
893.941	20609
894.064	20495
894.186	20267
894.308	20389
894.43	20575
894.552	20621
894.674	20499
894.796	20180
894.918	20366
895.04	20427
895.161	20412
895.283	20434
895.405	20450
895.526	20408
895.648	20309
895.769	20511
895.891	20423
896.012	20480
896.134	20476
896.255	20419
896.376	20370
896.498	20393
896.619	20404
896.74	20499
896.861	20442
896.982	20834
897.103	20918
897.224	20777
897.345	20693
897.466	20526
897.587	20621
897.708	20838
897.828	20617
897.949	20564
898.07	20495
898.19	20492
898.311	20674
898.431	20511
898.552	20587
898.672	20781
898.792	20731
898.913	20533
899.033	20473
899.153	20533
899.273	20438
899.393	20313
899.513	20412
899.633	20473
899.753	20400
899.873	20199
899.993	20377
900.113	20309
900.232	20404
900.352	20343
900.472	20149
900.591	20145
900.711	20153
900.83	20183
900.95	20286
901.069	20271
901.189	20142
901.308	19883
901.427	19658
901.546	19753
901.665	19769
901.784	19704
901.904	19693
902.023	19544
902.141	19377
902.26	19327
902.379	19308
902.498	19282
902.617	19209
902.735	19232
902.854	19251
902.973	19137
903.091	18871
903.21	18989
903.328	18871
903.446	18772
903.565	18719
903.683	18715
903.801	18604
903.919	18563
904.038	18612
904.156	18494
904.274	18681
904.392	18342
904.51	18418
904.627	18471
904.745	18456
904.863	18551
904.981	18254
905.098	18174
905.216	18106
905.334	18197
905.451	18194
905.569	18125
905.686	18133
905.803	18076
905.921	17965
906.038	18076
906.155	17984
906.272	17802
906.389	17893
906.506	17737
906.623	17691
906.74	17649
906.857	17623
906.974	17585
907.091	17722
907.208	17718
907.324	17783
907.441	17604
907.557	17318
907.674	17364
907.79	17330
907.907	17410
908.023	17455
908.139	17444
908.256	17349
908.372	17269
908.488	17265
908.604	17109
908.72	17124
908.836	17117
908.952	17178
909.068	17128
909.184	17166
909.3	17117
909.415	17090
909.531	17132
909.647	16839
909.762	16729
909.878	16843
909.993	16946
910.108	16778
910.224	16771
910.339	16649
910.454	16675
910.57	16691
910.685	16584
910.8	16877
910.915	16828
911.03	16626
911.145	16489
911.259	16386
911.374	16436
911.489	16432
911.604	16295
911.718	16204
911.833	16143
911.947	16002
912.062	16010
912.176	16150
912.291	16067
912.405	16128
912.519	16371
912.633	16341
912.748	16139
912.862	16097
912.976	16040
913.09	15865
913.204	15956
913.318	15892
913.431	16093
913.545	15991
913.659	15994
913.772	15937
913.886	15751
914	15884
914.113	15835
914.226	15850
914.34	15781
914.453	15660
914.566	15694
914.68	15694
914.793	15599
914.906	15416
915.019	15355
915.132	15211
915.245	15325
915.358	15252
915.47	15306
915.583	15321
915.696	15378
915.809	15340
915.921	15526
916.034	15317
916.146	15188
916.259	15180
916.371	15359
916.483	15321
916.595	15218
916.708	15154
916.82	15150
916.932	15195
917.044	15116
917.156	15089
917.268	15066
917.38	15009
917.491	14982
917.603	15032
917.715	15024
917.826	15074
917.938	15013
918.049	14880
918.161	14963
918.272	15131
918.384	15043
918.495	14960
918.606	14765
918.717	14686
918.828	14845
918.939	14773
919.05	14632
919.161	14686
919.272	14530
919.383	14636
919.494	14807
919.604	14944
919.715	14674
919.826	14606
919.936	14667
920.047	14788
920.157	14686
920.267	14925
920.378	14682
920.488	14712
920.598	14845
920.708	15005
920.818	14845
920.928	14807
921.038	14994
921.148	14906
921.258	14667
921.368	14568
921.477	14358
921.587	14571
921.697	14419
921.806	14412
921.916	14332
922.025	14111
922.134	14088
922.244	14065
922.353	14035
922.462	13917
922.571	13890
922.68	13734
922.789	13734
922.898	13696
923.007	13719
923.116	13776
923.224	13674
923.333	13693
923.442	13624
923.55	13624
923.659	13605
923.767	13578
923.876	13502
923.984	13597
924.092	13426
924.201	13483
924.309	13422
924.417	13445
924.525	13384
924.633	13441
924.741	14362
924.849	13110
924.956	13354
925.064	13179
925.172	13095
925.279	13183
925.387	13225
925.494	13114
925.602	13263
925.709	13297
925.816	13000
925.924	13183
926.031	13190
926.138	13065
926.245	13114
926.352	13019
926.459	13126
926.566	13206
926.673	12951
926.779	12886
926.886	12852
926.993	12662
927.099	12677
927.206	12711
927.312	12753
927.419	12772
927.525	12692
927.631	12715
927.737	12616
927.843	12471
927.95	12361
928.056	12483
928.162	12517
928.267	12483
928.373	13202
928.479	12582
928.585	12239
928.69	12502
928.796	12460
928.901	12372
929.007	12232
929.112	12350
929.218	12319
929.323	12292
929.428	12239
929.533	12369
929.638	12083
929.743	12163
929.848	12262
929.953	12186
930.058	12041
930.163	11874
930.267	11965
930.372	12102
930.477	11904
930.581	12098
930.685	12026
930.79	11786
930.894	11893
930.998	11680
931.103	11855
931.207	11528
931.311	11417
931.415	11376
931.519	11174
931.623	11121
