Data from test_V78500241_915.txt Node
Date: Fri Mar 25 15:48:08 CST 2022
User: usil
Spectrometer: V785-0024
Trigger mode: 0
Integration Time (sec): 4.000000E-1
Scans to average: 1
Nonlinearity correction enabled: false
Boxcar width: 0
Storing dark spectrum: false
XAxis mode: Wavelengths
Number of Pixels in Spectrum: 1024
>>>>>Begin Spectral Data<<<<<
801.071	28196
801.214	28078
801.356	27850
801.499	27747
801.641	27625
801.783	27713
801.926	27652
802.068	27671
802.211	27526
802.353	27564
802.496	27367
802.638	27401
802.78	27348
802.923	27310
803.065	27211
803.208	27176
803.35	27348
803.492	27397
803.635	27545
803.777	27401
803.919	27663
804.061	27899
804.204	27770
804.346	27595
804.488	27496
804.63	27458
804.773	27310
804.915	27557
805.057	27652
805.199	27488
805.341	27599
805.483	27797
805.626	27614
805.768	27614
805.91	27724
806.052	27751
806.194	27679
806.336	27934
806.478	27694
806.62	27747
806.762	27934
806.904	27991
807.046	28135
807.188	28097
807.33	28112
807.472	28116
807.614	28177
807.756	28093
807.898	27941
808.04	28055
808.182	27903
808.324	28059
808.465	28116
808.607	28211
808.749	28303
808.891	28462
809.033	28592
809.174	28535
809.316	28204
809.458	28390
809.6	28371
809.741	28493
809.883	28481
810.025	28729
810.166	28557
810.308	28618
810.45	28516
810.591	28664
810.733	28424
810.875	28360
811.016	28215
811.158	28242
811.299	28421
811.441	28622
811.582	28615
811.724	28398
811.865	28371
812.007	28390
812.148	28360
812.29	28409
812.431	28504
812.573	28763
812.714	28820
812.855	28923
812.997	28972
813.138	29113
813.279	29060
813.421	28881
813.562	28873
813.703	28778
813.845	28687
813.986	28398
814.127	28097
814.268	28116
814.41	28078
814.551	28082
814.692	28215
814.833	27987
814.974	28021
815.115	28226
815.256	28006
815.397	28040
815.539	27892
815.68	27914
815.821	27865
815.962	27895
816.103	27766
816.244	27705
816.385	27667
816.526	27633
816.666	27576
816.807	27424
816.948	27386
817.089	27526
817.23	27427
817.371	27386
817.512	27363
817.653	27397
817.793	27279
817.934	27161
818.075	27401
818.216	27606
818.356	27378
818.497	27287
818.638	27203
818.778	27104
818.919	26986
819.06	27165
819.2	27176
819.341	27355
819.481	27340
819.622	27488
819.762	27739
819.903	27675
820.043	27519
820.184	27454
820.324	27416
820.465	27595
820.605	27462
820.746	27427
820.886	27424
821.026	27397
821.167	27378
821.307	27542
821.447	27405
821.588	27412
821.728	27233
821.868	27062
822.008	26975
822.149	26830
822.289	26796
822.429	26568
822.569	26438
822.709	26575
822.849	26324
822.99	26400
823.13	26355
823.27	26313
823.41	26103
823.55	26058
823.69	26206
823.83	26214
823.97	26100
824.11	26012
824.25	25898
824.389	25894
824.529	26039
824.669	26058
824.809	26096
824.949	26039
825.089	26134
825.228	25959
825.368	25868
825.508	25849
825.648	25970
825.787	25921
825.927	25940
826.067	25849
826.206	25852
826.346	25944
826.485	25890
826.625	25868
826.765	25997
826.904	25879
827.044	25632
827.183	25734
827.323	25552
827.462	25700
827.601	25662
827.741	25609
827.88	25708
828.02	25426
828.159	25556
828.298	25563
828.437	25776
828.577	25472
828.716	25605
828.855	25719
828.994	25327
829.134	25240
829.273	25251
829.412	25331
829.551	25213
829.69	25259
829.829	25411
829.968	25365
830.107	25327
830.246	25289
830.385	25266
830.524	25019
830.663	25152
830.802	25065
830.941	25031
831.08	24776
831.219	24958
831.357	24954
831.496	25206
831.635	24954
831.774	24932
831.913	24787
832.051	24787
832.19	24711
832.329	24646
832.467	24601
832.606	24555
832.744	24593
832.883	24620
833.022	24521
833.16	24601
833.299	24582
833.437	24681
833.576	24681
833.714	24696
833.852	24642
833.991	24517
834.129	24635
834.267	24696
834.406	24654
834.544	24673
834.682	24486
834.821	24540
834.959	24787
835.097	24585
835.235	24715
835.373	24631
835.511	24486
835.65	24498
835.788	24513
835.926	24311
836.064	24437
836.202	24327
836.34	24479
836.478	24559
836.615	24460
836.753	24429
836.891	24475
837.029	24479
837.167	24445
837.305	24494
837.443	24395
837.58	24342
837.718	24315
837.856	24353
837.993	24182
838.131	24372
838.269	24182
838.406	24266
838.544	24098
838.681	23866
838.819	23813
838.956	23718
839.094	23608
839.231	23798
839.369	23908
839.506	24232
839.643	23988
839.781	23722
839.918	23710
840.055	23714
840.193	23661
840.33	23775
840.467	23714
840.604	23707
840.742	23980
840.879	23634
841.016	23589
841.153	23528
841.29	23942
841.427	23630
841.564	23661
841.701	23596
841.838	23581
841.975	23573
842.112	23512
842.249	23516
842.385	23551
842.522	23615
842.659	23482
842.796	23463
842.933	23455
843.069	23383
843.206	23421
843.343	23455
843.479	23440
843.616	23303
843.752	23181
843.889	23299
844.025	23269
844.162	23208
844.298	23296
844.435	23170
844.571	23200
844.708	23288
844.844	23246
844.98	23273
845.117	23379
845.253	23136
845.389	23075
845.525	23052
845.661	23022
845.798	22923
845.934	23044
846.07	22847
846.206	22919
846.342	23113
846.478	22885
846.614	22641
846.75	22740
846.886	22630
847.022	22752
847.158	22645
847.294	22675
847.429	22740
847.565	22561
847.701	22816
847.837	22367
847.972	22329
848.108	22512
848.244	22348
848.379	22249
848.515	22287
848.65	22196
848.786	22223
848.921	22470
849.057	22322
849.192	22398
849.328	22238
849.463	22348
849.598	22268
849.734	22131
849.869	22032
850.004	22036
850.14	22032
850.275	22010
850.41	21915
850.545	22105
850.68	21884
850.815	21926
850.95	22074
851.085	22200
851.22	22177
851.355	22097
851.49	22055
851.625	21903
851.76	21987
851.895	21983
852.03	21983
852.165	22013
852.299	22059
852.434	22097
852.569	21937
852.703	21975
852.838	22025
852.973	22116
853.107	22154
853.242	22055
853.376	21895
853.511	21610
853.645	21850
853.78	21854
853.914	21835
854.048	21827
854.183	21831
854.317	21831
854.451	21983
854.585	21994
854.72	21816
854.854	21926
854.988	21827
855.122	21838
855.256	21747
855.39	21854
855.524	21831
855.658	21960
855.792	21831
855.926	21762
856.06	21819
856.194	21907
856.327	21770
856.461	21728
856.595	21732
856.729	21717
856.862	21987
856.996	21892
857.13	21873
857.263	21964
857.397	21991
857.53	21774
857.664	21827
857.797	21915
857.931	21998
858.064	21975
858.197	21869
858.331	21778
858.464	21736
858.597	21644
858.731	21766
858.864	21770
858.997	21892
859.13	21831
859.263	21873
859.396	21884
859.529	21930
859.662	21861
859.795	21804
859.928	21884
860.061	22010
860.194	21998
860.327	21789
860.46	21789
860.592	21979
860.725	21998
860.858	21968
860.99	21983
861.123	21766
861.256	21873
861.388	21804
861.521	22565
861.653	21694
861.786	21671
861.918	21641
862.05	21819
862.183	21682
862.315	21701
862.447	21854
862.58	21751
862.712	21606
862.844	21466
862.976	21564
863.108	21599
863.24	21994
863.372	21420
863.504	21675
863.636	21488
863.768	21534
863.9	21564
864.032	21382
864.164	21622
864.296	21576
864.428	21770
864.559	21629
864.691	21648
864.823	21679
864.954	21564
865.086	21416
865.217	21450
865.349	21275
865.48	21397
865.612	21416
865.743	21606
865.875	21431
866.006	21500
866.137	21458
866.269	21405
866.4	21443
866.531	21329
866.662	21355
866.793	21408
866.924	21291
867.055	21382
867.186	21386
867.317	21336
867.448	21313
867.579	21332
867.71	21241
867.841	21264
867.972	21447
868.103	21382
868.233	21226
868.364	21405
868.495	21496
868.625	21580
868.756	21641
868.886	21473
869.017	21557
869.147	21682
869.278	21637
869.408	21675
869.539	21583
869.669	21766
869.799	21762
869.929	21747
870.06	21724
870.19	21857
870.32	21766
870.45	22010
870.58	22036
870.71	22090
870.84	22101
870.97	21998
871.1	21998
871.23	22177
871.36	22090
871.489	22215
871.619	22192
871.749	22093
871.879	22257
872.008	22246
872.138	22173
872.267	22238
872.397	22025
872.526	22006
872.656	21998
872.785	21956
872.915	22207
873.044	22200
873.173	22238
873.303	22158
873.432	22249
873.561	22154
873.69	22188
873.819	22303
873.948	22124
874.077	22257
874.206	22177
874.335	22253
874.464	22303
874.593	22466
874.722	22303
874.851	22481
874.979	22512
875.108	22554
875.237	22367
875.365	22337
875.494	22436
875.623	22455
875.751	22466
875.88	22428
876.008	22615
876.136	22641
876.265	22831
876.393	22862
876.521	22831
876.65	22927
876.778	22748
876.906	22721
877.034	22793
877.162	22752
877.29	22710
877.418	22797
877.546	22892
877.674	22752
877.802	22653
877.93	22721
878.058	22786
878.185	22656
878.313	22755
878.441	22694
878.568	22561
878.696	22717
878.824	22733
878.951	22866
879.079	22942
879.206	23029
879.333	23006
879.461	22790
879.588	22889
879.715	22972
879.842	23090
879.97	22748
880.097	22580
880.224	22592
880.351	22546
880.478	22584
880.605	22634
880.732	22588
880.859	22904
880.986	22592
881.112	22645
881.239	22440
881.366	22341
881.493	22337
881.619	22246
881.746	22223
881.872	22063
881.999	22051
882.125	22139
882.252	22230
882.378	22082
882.505	22238
882.631	21998
882.757	21842
882.883	21941
883.01	21823
883.136	21926
883.262	21808
883.388	21743
883.514	21926
883.64	21869
883.766	21751
883.892	21545
884.018	21679
884.143	21797
884.269	21778
884.395	21561
884.52	21576
884.646	21568
884.772	21428
884.897	21447
885.023	21466
885.148	21595
885.274	21614
885.399	21641
885.524	21473
885.65	21523
885.775	21519
885.9	21580
886.025	21610
886.15	21534
886.275	21466
886.4	21359
886.525	21614
886.65	21473
886.775	21336
886.9	21523
887.025	21762
887.149	21363
887.274	21348
887.399	21268
887.523	21252
887.648	21260
887.773	21211
887.897	21344
888.021	21325
888.146	21199
888.27	21370
888.395	21336
888.519	21264
888.643	21188
888.767	21363
888.891	21150
889.015	21066
889.139	21188
889.263	21096
889.387	21226
889.511	21252
889.635	21009
889.759	21001
889.883	21028
890.006	21104
890.13	21100
890.254	20941
890.377	20994
890.501	20727
890.624	20746
890.748	20895
890.871	20674
890.995	20705
891.118	20598
891.241	20625
891.364	20598
891.488	20724
891.611	20594
891.734	20659
891.857	20632
891.98	20682
892.103	20518
892.226	20644
892.349	20651
892.471	20454
892.594	20537
892.717	20632
892.839	20526
892.962	20499
893.085	20552
893.207	20495
893.33	20408
893.452	20461
893.575	20549
893.697	20415
893.819	20579
893.941	20705
894.064	20533
894.186	20499
894.308	20400
894.43	20533
894.552	20716
894.674	20621
894.796	20412
894.918	20541
895.04	20377
895.161	20552
895.283	20518
895.405	20469
895.526	20533
895.648	20526
895.769	20492
895.891	20606
896.012	20625
896.134	20560
896.255	20492
896.376	20389
896.498	20374
896.619	20564
896.74	20530
896.861	20564
896.982	20880
897.103	20941
897.224	20746
897.345	20800
897.466	20632
897.587	20663
897.708	20876
897.828	20727
897.949	20530
898.07	20564
898.19	20625
898.311	20678
898.431	20609
898.552	20663
898.672	20830
898.792	20735
898.913	20689
899.033	20602
899.153	20469
899.273	20507
899.393	20355
899.513	20583
899.633	20431
899.753	20465
899.873	20370
899.993	20480
900.113	20332
900.232	20393
900.352	20385
900.472	20126
900.591	20164
900.711	20252
900.83	20336
900.95	20298
901.069	20393
901.189	20043
901.308	19879
901.427	19811
901.546	19864
901.665	19784
901.784	19902
901.904	19693
902.023	19540
902.141	19502
902.26	19388
902.379	19480
902.498	19343
902.617	19225
902.735	19228
902.854	19187
902.973	19168
903.091	19012
903.21	18993
903.328	18970
903.446	18951
903.565	18760
903.683	18715
903.801	18734
903.919	18772
904.038	18661
904.156	18547
904.274	18635
904.392	18726
904.51	18555
904.627	18460
904.745	18502
904.863	18692
904.981	18418
905.098	18220
905.216	18194
905.334	18353
905.451	18174
905.569	18190
905.686	18247
905.803	18235
905.921	18057
906.038	17992
906.155	17958
906.272	17923
906.389	17961
906.506	17779
906.623	17794
906.74	17695
906.857	17608
906.974	17691
907.091	17912
907.208	17878
907.324	17695
907.441	17589
907.557	17505
907.674	17463
907.79	17334
907.907	17421
908.023	17532
908.139	17421
908.256	17395
908.372	17455
908.488	17414
908.604	17143
908.72	17159
908.836	17166
908.952	17155
909.068	17143
909.184	17239
909.3	17204
909.415	17193
909.531	17136
909.647	17098
909.762	16892
909.878	16839
909.993	16942
910.108	16881
910.224	16835
910.339	16820
910.454	16831
910.57	16672
910.685	16672
910.8	16805
910.915	16908
911.03	16702
911.145	16550
911.259	16481
911.374	16561
911.489	16348
911.604	16318
911.718	16238
911.833	16341
911.947	16116
912.062	16120
912.176	16223
912.291	16234
912.405	16234
912.519	16386
912.633	16367
912.748	16215
912.862	16204
912.976	16006
913.09	15865
913.204	16006
913.318	16086
913.431	16109
913.545	16143
913.659	16109
913.772	16078
913.886	15930
914	15800
914.113	15873
914.226	15949
914.34	15827
914.453	15724
914.566	15861
914.68	15690
914.793	15694
914.906	15481
915.019	15408
915.132	15306
915.245	15408
915.358	15477
915.47	15412
915.583	15393
915.696	15481
915.809	15473
915.921	15580
916.034	15321
916.146	15344
916.259	15249
916.371	15393
916.483	15374
916.595	15294
916.708	15268
916.82	15268
916.932	15161
917.044	15230
917.156	15157
917.268	15039
917.38	15116
917.491	15032
917.603	15020
917.715	15112
917.826	15199
917.938	15051
918.049	14895
918.161	14990
918.272	15169
918.384	15116
918.495	14990
918.606	14842
918.717	14777
918.828	14724
918.939	14887
919.05	14735
919.161	14781
919.272	14636
919.383	14655
919.494	14788
919.604	14994
919.715	14735
919.826	14674
919.936	14777
920.047	14735
920.157	14746
920.267	14918
920.378	14807
920.488	14754
920.598	14948
920.708	15104
920.818	14948
920.928	14765
921.038	15085
921.148	15001
921.258	14678
921.368	14632
921.477	14613
921.587	14545
921.697	14385
921.806	14404
921.916	14434
922.025	14218
922.134	14081
922.244	14164
922.353	14237
922.462	14016
922.571	13906
922.68	13818
922.789	13746
922.898	13784
923.007	13761
923.116	13765
923.224	13776
923.333	13742
923.442	13567
923.55	13662
923.659	13594
923.767	13666
923.876	13464
923.984	13571
924.092	13495
924.201	13548
924.309	13483
924.417	13529
924.525	13460
924.633	13464
924.741	14400
924.849	13198
924.956	13392
925.064	13297
925.172	13198
925.279	13179
925.387	13244
925.494	13110
925.602	13270
925.709	13126
925.816	13053
925.924	13126
926.031	13171
926.138	13065
926.245	13137
926.352	13076
926.459	13156
926.566	13141
926.673	13057
926.779	12905
926.886	12935
926.993	12837
927.099	12817
927.206	12696
927.312	12719
927.419	12772
927.525	12711
927.631	12791
927.737	12532
927.843	12578
927.95	12346
928.056	12486
928.162	12597
928.267	12597
928.373	13213
928.479	12631
928.585	12395
928.69	12441
928.796	12513
928.901	12448
929.007	12308
929.112	12376
929.218	12376
929.323	12376
929.428	12205
929.533	12391
929.638	12251
929.743	12266
929.848	12296
929.953	12182
930.058	12106
930.163	12015
930.267	12038
930.372	12148
930.477	11920
930.581	12136
930.685	11999
930.79	11783
930.894	11859
930.998	11798
931.103	11965
931.207	11646
931.311	11532
931.415	11452
931.519	11265
931.623	11250
