Data from test_V78500241_246.txt Node
Date: Fri Mar 25 15:43:30 CST 2022
User: usil
Spectrometer: V785-0024
Trigger mode: 0
Integration Time (sec): 4.000000E-1
Scans to average: 1
Nonlinearity correction enabled: false
Boxcar width: 0
Storing dark spectrum: false
XAxis mode: Wavelengths
Number of Pixels in Spectrum: 1024
>>>>>Begin Spectral Data<<<<<
801.071	29885
801.214	29847
801.356	29543
801.499	29608
801.641	29478
801.783	29524
801.926	29562
802.068	29459
802.211	29330
802.353	29273
802.496	29048
802.638	28942
802.78	29178
802.923	28987
803.065	28968
803.208	28991
803.35	29143
803.492	29204
803.635	29239
803.777	29258
803.919	29269
804.061	29687
804.204	29231
804.346	29204
804.488	29197
804.63	29364
804.773	29064
804.915	29242
805.057	29239
805.199	29372
805.341	29193
805.483	29421
805.626	29398
805.768	29395
805.91	29356
806.052	29497
806.194	29349
806.336	29558
806.478	29311
806.62	29322
806.762	29531
806.904	29604
807.046	29992
807.188	29817
807.33	29824
807.472	29817
807.614	29585
807.756	29714
807.898	29756
808.04	29467
808.182	29528
808.324	29558
808.465	29589
808.607	29668
808.749	29882
808.891	30045
809.033	30296
809.174	30022
809.316	29980
809.458	29984
809.6	29984
809.741	29931
809.883	30216
810.025	30197
810.166	30311
810.308	30194
810.45	30209
810.591	30258
810.733	30129
810.875	29828
811.016	29821
811.158	29862
811.299	30186
811.441	30098
811.582	30258
811.724	29996
811.865	29939
812.007	30022
812.148	29980
812.29	29996
812.431	30018
812.573	30418
812.714	30365
812.855	30388
812.997	30517
813.138	30677
813.279	30627
813.421	30448
813.562	30467
813.703	30273
813.845	30224
813.986	29904
814.127	29726
814.268	29665
814.41	29691
814.551	29493
814.692	29615
814.833	29551
814.974	29608
815.115	29589
815.256	29478
815.397	29478
815.539	29440
815.68	29429
815.821	29398
815.962	29349
816.103	29345
816.244	29239
816.385	29143
816.526	29044
816.666	28862
816.807	28873
816.948	28953
817.089	28763
817.23	28927
817.371	28664
817.512	28816
817.653	28850
817.793	28637
817.934	28850
818.075	28763
818.216	28774
818.356	28835
818.497	28569
818.638	28352
818.778	28417
818.919	28485
819.06	28653
819.2	28542
819.341	28656
819.481	28717
819.622	28930
819.762	29124
819.903	29014
820.043	28908
820.184	28824
820.324	28858
820.465	28873
820.605	28824
820.746	28923
820.886	28774
821.026	28752
821.167	28839
821.307	28869
821.447	28786
821.588	28546
821.728	28565
821.868	28272
822.008	28215
822.149	28211
822.289	28109
822.429	27873
822.569	27793
822.709	27861
822.849	27675
822.99	27622
823.13	27671
823.27	27660
823.41	27488
823.55	27359
823.69	27492
823.83	27481
823.97	27466
824.11	27203
824.25	27207
824.389	27245
824.529	27454
824.669	27256
824.809	27469
824.949	27439
825.089	27291
825.228	27268
825.368	27173
825.508	27070
825.648	27036
825.787	27214
825.927	27154
826.067	27058
826.206	27150
826.346	27283
826.485	27036
826.625	27032
826.765	27154
826.904	27066
827.044	26777
827.183	26842
827.323	26769
827.462	26826
827.601	26891
827.741	26804
827.88	26925
828.02	26545
828.159	26804
828.298	26781
828.437	26849
828.577	26644
828.716	26960
828.855	26750
828.994	26594
829.134	26404
829.273	26492
829.412	26408
829.551	26381
829.69	26385
829.829	26594
829.968	26473
830.107	26659
830.246	26396
830.385	26320
830.524	26381
830.663	26393
830.802	26320
830.941	26130
831.08	25982
831.219	26111
831.357	26134
831.496	26172
831.635	26046
831.774	25795
831.913	25966
832.051	25818
832.19	25689
832.329	25856
832.467	25799
832.606	25639
832.744	25647
832.883	25670
833.022	25712
833.16	25685
833.299	25662
833.437	25681
833.576	25738
833.714	25746
833.852	25765
833.991	25788
834.129	25830
834.267	25769
834.406	25658
834.544	25727
834.682	25681
834.821	25487
834.959	25799
835.097	25559
835.235	25681
835.373	25655
835.511	25556
835.65	25514
835.788	25495
835.926	25487
836.064	25403
836.202	25350
836.34	25521
836.478	25594
836.615	25533
836.753	25476
836.891	25464
837.029	25594
837.167	25438
837.305	25388
837.443	25263
837.58	25346
837.718	25392
837.856	25358
837.993	25137
838.131	25331
838.269	25110
838.406	25202
838.544	25206
838.681	25053
838.819	24894
838.956	24669
839.094	24722
839.231	24703
839.369	24817
839.506	25095
839.643	24989
839.781	24688
839.918	24639
840.055	24802
840.193	24646
840.33	24616
840.467	24673
840.604	24604
840.742	24802
840.879	24483
841.016	24547
841.153	24498
841.29	24597
841.427	24532
841.564	24726
841.701	24642
841.838	24517
841.975	24426
842.112	24521
842.249	24464
842.385	24346
842.522	24505
842.659	24407
842.796	24205
842.933	24330
843.069	24289
843.206	24327
843.343	24285
843.479	24220
843.616	24239
843.752	24053
843.889	24038
844.025	24194
844.162	23901
844.298	24148
844.435	24038
844.571	23942
844.708	24068
844.844	24254
844.98	24171
845.117	24060
845.253	23961
845.389	23923
845.525	23882
845.661	23908
845.798	23638
845.934	23710
846.07	23764
846.206	23798
846.342	23843
846.478	23767
846.614	23570
846.75	23459
846.886	23478
847.022	23509
847.158	23436
847.294	23452
847.429	23535
847.565	23455
847.701	23596
847.837	23216
847.972	23056
848.108	23254
848.244	23322
848.379	23166
848.515	23128
848.65	22946
848.786	23090
848.921	23083
849.057	23227
849.192	23147
849.328	22995
849.463	23064
849.598	23075
849.734	22908
849.869	22949
850.004	22866
850.14	22767
850.275	22733
850.41	22653
850.545	22656
850.68	22592
850.815	22694
850.95	22698
851.085	22873
851.22	22911
851.355	22729
851.49	22691
851.625	22618
851.76	22793
851.895	22797
852.03	22561
852.165	22809
852.299	22790
852.434	22763
852.569	22725
852.703	22698
852.838	22786
852.973	22805
853.107	22850
853.242	22675
853.376	22649
853.511	22542
853.645	22573
853.78	22462
853.914	22546
854.048	22622
854.183	22379
854.317	22554
854.451	22774
854.585	22489
854.72	22550
854.854	22542
854.988	22500
855.122	22478
855.256	22466
855.39	22542
855.524	22660
855.658	22615
855.792	22641
855.926	22569
856.06	22611
856.194	22706
856.327	22584
856.461	22466
856.595	22451
856.729	22424
856.862	22573
856.996	22527
857.13	22565
857.263	22440
857.397	22546
857.53	22443
857.664	22440
857.797	22440
857.931	22607
858.064	22550
858.197	22493
858.331	22561
858.464	22337
858.597	22356
858.731	22371
858.864	22356
858.997	22424
859.13	22512
859.263	22531
859.396	22603
859.529	22356
859.662	22573
859.795	22417
859.928	22596
860.061	22672
860.194	22721
860.327	22512
860.46	22512
860.592	22634
860.725	22717
860.858	22622
860.99	22508
861.123	22447
861.256	22363
861.388	22440
861.521	23052
861.653	22363
861.786	22219
861.918	22352
862.05	22375
862.183	22500
862.315	22500
862.447	22538
862.58	22459
862.712	22169
862.844	22154
862.976	22333
863.108	22249
863.24	22729
863.372	22162
863.504	22124
863.636	22185
863.768	22268
863.9	22169
864.032	22101
864.164	22192
864.296	22219
864.428	22310
864.559	22188
864.691	22185
864.823	22169
864.954	22063
865.086	22097
865.217	22192
865.349	22112
865.48	22067
865.612	22112
865.743	22261
865.875	22021
866.006	22093
866.137	22010
866.269	21949
866.4	21987
866.531	21960
866.662	21941
866.793	21960
866.924	21968
867.055	22082
867.186	21941
867.317	21926
867.448	22010
867.579	21785
867.71	21888
867.841	21770
867.972	21880
868.103	22029
868.233	21964
868.364	21873
868.495	21941
868.625	22287
868.756	22249
868.886	22124
869.017	22204
869.147	22207
869.278	22390
869.408	22200
869.539	22238
869.669	22322
869.799	22257
869.929	22421
870.06	22196
870.19	22500
870.32	22557
870.45	22588
870.58	22626
870.71	22675
870.84	22664
870.97	22611
871.1	22535
871.23	22645
871.36	22778
871.489	22611
871.619	22672
871.749	22805
871.879	22744
872.008	22885
872.138	22801
872.267	22923
872.397	22679
872.526	22660
872.656	22702
872.785	22740
872.915	22869
873.044	22790
873.173	22759
873.303	22862
873.432	22820
873.561	22847
873.69	22774
873.819	22873
873.948	22881
874.077	22889
874.206	22812
874.335	22675
874.464	22911
874.593	23033
874.722	23094
874.851	23033
874.979	23025
875.108	23041
875.237	22900
875.365	22866
875.494	23037
875.623	23033
875.751	22881
875.88	23052
876.008	23098
876.136	23189
876.265	23433
876.393	23490
876.521	23474
876.65	23691
876.778	23360
876.906	23334
877.034	23364
877.162	23368
877.29	23311
877.418	23341
877.546	23512
877.674	23406
877.802	23387
877.93	23398
878.058	23372
878.185	23204
878.313	23425
878.441	23307
878.568	23121
878.696	23284
878.824	23387
878.951	23474
879.079	23611
879.206	23592
879.333	23668
879.461	23376
879.588	23364
879.715	23467
879.842	23528
879.97	23356
880.097	23197
880.224	23102
880.351	23075
880.478	23185
880.605	23064
880.732	23162
880.859	23364
880.986	23212
881.112	23147
881.239	22980
881.366	22873
881.493	22847
881.619	22736
881.746	22637
881.872	22949
881.999	22782
882.125	22759
882.252	22786
882.378	22824
882.505	22919
882.631	22630
882.757	22546
882.883	22573
883.01	22436
883.136	22348
883.262	22341
883.388	22234
883.514	22455
883.64	22489
883.766	22417
883.892	22386
884.018	22261
884.143	22447
884.269	22512
884.395	22139
884.52	22070
884.646	22074
884.772	22059
884.897	22059
885.023	21994
885.148	22268
885.274	22185
885.399	22162
885.524	22063
885.65	22101
885.775	22082
885.9	22017
886.025	22238
886.15	22162
886.275	21945
886.4	22090
886.525	22082
886.65	21915
886.775	22093
886.9	22139
887.025	22261
887.149	21915
887.274	21774
887.399	21785
887.523	21785
887.648	21766
887.773	21785
887.897	21854
888.021	21907
888.146	21713
888.27	21953
888.395	21953
888.519	21804
888.643	21819
888.767	21888
888.891	21625
889.015	21568
889.139	21633
889.263	21564
889.387	21648
889.511	21854
889.635	21679
889.759	21606
889.883	21557
890.006	21564
890.13	21724
890.254	21534
890.377	21469
890.501	21283
890.624	21420
890.748	21283
890.871	21154
890.995	21001
891.118	21024
891.241	21112
891.364	20990
891.488	21169
891.611	21066
891.734	21146
891.857	21249
891.98	21184
892.103	21260
892.226	21112
892.349	21009
892.471	20998
892.594	21028
892.717	21085
892.839	20941
892.962	20986
893.085	21036
893.207	21032
893.33	20910
893.452	20925
893.575	21089
893.697	21047
893.819	21135
893.941	21195
894.064	21211
894.186	21036
894.308	20853
894.43	21138
894.552	21173
894.674	21005
894.796	21013
894.918	20960
895.04	21058
895.161	21089
895.283	21070
895.405	20952
895.526	21024
895.648	21039
895.769	21074
895.891	21066
896.012	20994
896.134	21157
896.255	21119
896.376	21028
896.498	21062
896.619	20994
896.74	21070
896.861	21131
896.982	21298
897.103	21443
897.224	21332
897.345	21256
897.466	21294
897.587	21298
897.708	21332
897.828	21317
897.949	21131
898.07	21043
898.19	21226
898.311	21351
898.431	21116
898.552	21142
898.672	21317
898.792	21230
898.913	21283
899.033	21165
899.153	20960
899.273	20804
899.393	20876
899.513	20876
899.633	20998
899.753	20914
899.873	20785
899.993	20899
900.113	20864
900.232	20899
900.352	20804
900.472	20792
900.591	20651
900.711	20754
900.83	20533
900.95	20731
901.069	20651
901.189	20507
901.308	20221
901.427	20328
901.546	20214
901.665	20362
901.784	20286
901.904	20138
902.023	20096
902.141	19811
902.26	19761
902.379	19807
902.498	19635
902.617	19742
902.735	19772
902.854	19708
902.973	19624
903.091	19362
903.21	19521
903.328	19327
903.446	19346
903.565	19289
903.683	19110
903.801	19042
903.919	19099
904.038	19179
904.156	19050
904.274	18932
904.392	18878
904.51	18882
904.627	18928
904.745	19031
904.863	18943
904.981	18703
905.098	18551
905.216	18700
905.334	18677
905.451	18604
905.569	18578
905.686	18650
905.803	18521
905.921	18353
906.038	18391
906.155	18239
906.272	18251
906.389	18289
906.506	18171
906.623	18182
906.74	18064
906.857	18060
906.974	17996
907.091	18114
907.208	18277
907.324	18049
907.441	17977
907.557	17939
907.674	17840
907.79	17809
907.907	17729
908.023	17870
908.139	17786
908.256	17802
908.372	17657
908.488	17676
908.604	17634
908.72	17471
908.836	17539
908.952	17467
909.068	17490
909.184	17634
909.3	17474
909.415	17509
909.531	17501
909.647	17258
909.762	17170
909.878	17261
909.993	17143
910.108	17193
910.224	17124
910.339	17109
910.454	16976
910.57	17140
910.685	16877
910.8	17193
910.915	17204
911.03	17086
911.145	16778
911.259	16710
911.374	16721
911.489	16653
911.604	16645
911.718	16466
911.833	16516
911.947	16470
912.062	16318
912.176	16580
912.291	16550
912.405	16470
912.519	16580
912.633	16634
912.748	16382
912.862	16386
912.976	16200
913.09	16287
913.204	16177
913.318	16234
913.431	16303
913.545	16242
913.659	16325
913.772	16257
913.886	16048
914	16112
914.113	16280
914.226	16207
914.34	16078
914.453	15987
914.566	16128
914.68	15987
914.793	15857
914.906	15800
915.019	15610
915.132	15614
915.245	15671
915.358	15633
915.47	15686
915.583	15747
915.696	15739
915.809	15762
915.921	15861
916.034	15705
916.146	15591
916.259	15511
916.371	15705
916.483	15637
916.595	15374
916.708	15515
916.82	15496
916.932	15507
917.044	15439
917.156	15340
917.268	15264
917.38	15310
917.491	15226
917.603	15188
917.715	15245
917.826	15313
917.938	15245
918.049	15135
918.161	15169
918.272	15408
918.384	15344
918.495	15211
918.606	15058
918.717	15047
918.828	15032
918.939	15093
919.05	14891
919.161	14986
919.272	14750
919.383	14952
919.494	15013
919.604	15283
919.715	15070
919.826	14982
919.936	14937
920.047	14990
920.157	14975
920.267	15154
920.378	14994
920.488	15036
920.598	15036
920.708	15310
920.818	14986
920.928	15085
921.038	15199
921.148	15176
921.258	14998
921.368	14804
921.477	14678
921.587	14720
921.697	14450
921.806	14625
921.916	14480
922.025	14385
922.134	14275
922.244	14252
922.353	14343
922.462	14202
922.571	14176
922.68	13940
922.789	13921
922.898	13860
923.007	13860
923.116	13974
923.224	13826
923.333	13894
923.442	13856
923.55	13746
923.659	13746
923.767	13776
923.876	13719
923.984	13750
924.092	13708
924.201	13689
924.309	13712
924.417	13563
924.525	13548
924.633	13613
924.741	14362
924.849	13343
924.956	13525
925.064	13343
925.172	13278
925.279	13320
925.387	13335
925.494	13358
925.602	13460
925.709	13350
925.816	13236
925.924	13324
926.031	13301
926.138	13247
926.245	13324
926.352	13126
926.459	13285
926.566	13308
926.673	13228
926.779	13061
926.886	13053
926.993	12871
927.099	12920
927.206	12878
927.312	12768
927.419	12890
927.525	12844
927.631	12852
927.737	12833
927.843	12715
927.95	12570
928.056	12662
928.162	12665
928.267	12646
928.373	13346
928.479	12707
928.585	12528
928.69	12604
928.796	12582
928.901	12471
929.007	12429
929.112	12521
929.218	12604
929.323	12380
929.428	12353
929.533	12551
929.638	12304
929.743	12323
929.848	12410
929.953	12380
930.058	12254
930.163	12007
930.267	12136
930.372	12232
930.477	12045
930.581	12178
930.685	12140
930.79	11923
930.894	11954
930.998	11859
931.103	12030
931.207	11699
931.311	11581
931.415	11543
931.519	11269
931.623	11254
