Data from test_V78500241_1542.txt Node
Date: Fri Mar 25 15:52:28 CST 2022
User: usil
Spectrometer: V785-0024
Trigger mode: 0
Integration Time (sec): 4.000000E-1
Scans to average: 1
Nonlinearity correction enabled: false
Boxcar width: 0
Storing dark spectrum: false
XAxis mode: Wavelengths
Number of Pixels in Spectrum: 1024
>>>>>Begin Spectral Data<<<<<
801.071	27679
801.214	27686
801.356	27424
801.499	27405
801.641	27351
801.783	27332
801.926	27412
802.068	27218
802.211	27310
802.353	27233
802.496	26861
802.638	26910
802.78	26906
802.923	26921
803.065	26925
803.208	26853
803.35	26979
803.492	27150
803.635	27169
803.777	26952
803.919	27047
804.061	27488
804.204	27184
804.346	26979
804.488	26960
804.63	27070
804.773	26944
804.915	27184
805.057	27131
805.199	27009
805.341	27249
805.483	27291
805.626	27245
805.768	27291
805.91	27291
806.052	27233
806.194	27119
806.336	27454
806.478	27207
806.62	27249
806.762	27424
806.904	27408
807.046	27709
807.188	27751
807.33	27709
807.472	27728
807.614	27553
807.756	27656
807.898	27507
808.04	27408
808.182	27386
808.324	27504
808.465	27587
808.607	27789
808.749	27876
808.891	27831
809.033	27930
809.174	27846
809.316	27975
809.458	27934
809.6	28002
809.741	27960
809.883	27987
810.025	28059
810.166	28090
810.308	28082
810.45	28150
810.591	28082
810.733	27922
810.875	27987
811.016	27644
811.158	27648
811.299	27937
811.441	28097
811.582	28097
811.724	27987
811.865	27838
812.007	27899
812.148	27964
812.29	27865
812.431	27975
812.573	28185
812.714	28219
812.855	28360
812.997	28462
813.138	28569
813.279	28466
813.421	28344
813.562	28299
813.703	28135
813.845	27975
813.986	27713
814.127	27587
814.268	27454
814.41	27568
814.551	27637
814.692	27583
814.833	27572
814.974	27405
815.115	27686
815.256	27378
815.397	27329
815.539	27306
815.68	27306
815.821	27386
815.962	27389
816.103	27264
816.244	27123
816.385	27043
816.526	27100
816.666	26975
816.807	26876
816.948	26891
817.089	26777
817.23	26868
817.371	26842
817.512	26811
817.653	26849
817.793	26811
817.934	26686
818.075	26781
818.216	26895
818.356	26731
818.497	26632
818.638	26442
818.778	26560
818.919	26598
819.06	26686
819.2	26826
819.341	26815
819.481	26857
819.622	26891
819.762	27066
819.903	27062
820.043	26971
820.184	26986
820.324	27009
820.465	26979
820.605	26971
820.746	26982
820.886	26731
821.026	26804
821.167	26914
821.307	26883
821.447	26811
821.588	26758
821.728	26716
821.868	26389
822.008	26339
822.149	26317
822.289	26240
822.429	26073
822.569	25966
822.709	25921
822.849	25913
822.99	25761
823.13	25681
823.27	25655
823.41	25559
823.55	25533
823.69	25674
823.83	25479
823.97	25609
824.11	25460
824.25	25388
824.389	25426
824.529	25479
824.669	25331
824.809	25586
824.949	25609
825.089	25438
825.228	25479
825.368	25274
825.508	25289
825.648	25297
825.787	25324
825.927	25343
826.067	25377
826.206	25274
826.346	25327
826.485	25441
826.625	25228
826.765	25396
826.904	25388
827.044	25046
827.183	25004
827.323	25019
827.462	25069
827.601	24970
827.741	25114
827.88	24981
828.02	24916
828.159	24939
828.298	24916
828.437	25027
828.577	24970
828.716	25133
828.855	24913
828.994	24715
829.134	24764
829.273	24730
829.412	24677
829.551	24559
829.69	24623
829.829	24764
829.968	24783
830.107	24749
830.246	24627
830.385	24700
830.524	24692
830.663	24616
830.802	24414
830.941	24251
831.08	24281
831.219	24407
831.357	24155
831.496	24616
831.635	24281
831.774	24201
831.913	24186
832.051	24197
832.19	24091
832.329	24011
832.467	23950
832.606	23954
832.744	23942
832.883	24018
833.022	23992
833.16	23977
833.299	24068
833.437	23954
833.576	24011
833.714	24076
833.852	24091
833.991	24064
834.129	24159
834.267	24041
834.406	23996
834.544	24091
834.682	24087
834.821	24102
834.959	24232
835.097	23908
835.235	24087
835.373	24022
835.511	24041
835.65	23859
835.788	23863
835.926	23817
836.064	23710
836.202	23756
836.34	23794
836.478	23999
836.615	23840
836.753	23908
836.891	23904
837.029	23935
837.167	23832
837.305	23790
837.443	23779
837.58	23707
837.718	23695
837.856	23661
837.993	23558
838.131	23665
838.269	23596
838.406	23619
838.544	23600
838.681	23402
838.819	23444
838.956	23170
839.094	23197
839.231	23273
839.369	23284
839.506	23642
839.643	23452
839.781	23223
839.918	23113
840.055	23227
840.193	23181
840.33	23193
840.467	23113
840.604	23162
840.742	23387
840.879	22972
841.016	23018
841.153	23037
841.29	23178
841.427	23079
841.564	23170
841.701	23018
841.838	23109
841.975	22938
842.112	22927
842.249	22957
842.385	22850
842.522	23105
842.659	22858
842.796	22740
842.933	22805
843.069	22831
843.206	22866
843.343	22748
843.479	22866
843.616	22866
843.752	22713
843.889	22713
844.025	22733
844.162	22611
844.298	22713
844.435	22569
844.571	22508
844.708	22618
844.844	22835
844.98	22687
845.117	22618
845.253	22512
845.389	22421
845.525	22508
845.661	22523
845.798	22382
845.934	22417
846.07	22310
846.206	22371
846.342	22394
846.478	22356
846.614	22230
846.75	21964
846.886	22215
847.022	22086
847.158	22109
847.294	22059
847.429	22143
847.565	22044
847.701	22352
847.837	21789
847.972	21861
848.108	21903
848.244	21998
848.379	21770
848.515	21728
848.65	21705
848.786	21663
848.921	21781
849.057	21812
849.192	21747
849.328	21762
849.463	21622
849.598	21557
849.734	21625
849.869	21557
850.004	21416
850.14	21492
850.275	21389
850.41	21416
850.545	21374
850.68	21374
850.815	21374
850.95	21435
851.085	21637
851.22	21534
851.355	21542
851.49	21435
851.625	21351
851.76	21424
851.895	21405
852.03	21321
852.165	21485
852.299	21431
852.434	21526
852.569	21587
852.703	21401
852.838	21553
852.973	21553
853.107	21564
853.242	21382
853.376	21287
853.511	21131
853.645	21283
853.78	21378
853.914	21256
854.048	21233
854.183	21230
854.317	21161
854.451	21386
854.585	21264
854.72	21351
854.854	21378
854.988	21313
855.122	21245
855.256	21154
855.39	21283
855.524	21386
855.658	21332
855.792	21233
855.926	21176
856.06	21302
856.194	21367
856.327	21340
856.461	21233
856.595	21180
856.729	21233
856.862	21359
856.996	21287
857.13	21363
857.263	21374
857.397	21564
857.53	21256
857.664	21272
857.797	21249
857.931	21363
858.064	21199
858.197	21374
858.331	21348
858.464	21142
858.597	21241
858.731	21260
858.864	21112
858.997	21245
859.13	21275
859.263	21241
859.396	21321
859.529	21207
859.662	21116
859.795	21245
859.928	21256
860.061	21325
860.194	21389
860.327	21340
860.46	21203
860.592	21367
860.725	21344
860.858	21340
860.99	21173
861.123	21218
861.256	21207
861.388	21348
861.521	21781
861.653	21123
861.786	21051
861.918	21127
862.05	21142
862.183	21207
862.315	21291
862.447	21237
862.58	21214
862.712	21036
862.844	20994
862.976	21089
863.108	20975
863.24	21466
863.372	20925
863.504	20982
863.636	21009
863.768	20990
863.9	20944
864.032	20956
864.164	20834
864.296	21043
864.428	21058
864.559	21142
864.691	21036
864.823	21062
864.954	20994
865.086	21028
865.217	20811
865.349	20906
865.48	20906
865.612	20914
865.743	21043
865.875	20876
866.006	20842
866.137	20933
866.269	20910
866.4	20891
866.531	20720
866.662	20792
866.793	20807
866.924	20838
867.055	20819
867.186	20868
867.317	20739
867.448	20739
867.579	20845
867.71	20667
867.841	20762
867.972	20777
868.103	20739
868.233	20861
868.364	20773
868.495	20811
868.625	21077
868.756	21127
868.886	20906
869.017	21043
869.147	21116
869.278	21116
869.408	21180
869.539	21116
869.669	21096
869.799	21135
869.929	21264
870.06	21135
870.19	21428
870.32	21344
870.45	21401
870.58	21405
870.71	21431
870.84	21629
870.97	21370
871.1	21534
871.23	21496
871.36	21606
871.489	21568
871.619	21705
871.749	21648
871.879	21797
872.008	21808
872.138	21694
872.267	21633
872.397	21603
872.526	21526
872.656	21481
872.785	21488
872.915	21641
873.044	21785
873.173	21789
873.303	21857
873.432	21694
873.561	21778
873.69	21663
873.819	21637
873.948	21797
874.077	21610
874.206	21717
874.335	21633
874.464	21911
874.593	21972
874.722	21884
874.851	21846
874.979	21930
875.108	21918
875.237	21892
875.365	21797
875.494	21797
875.623	21949
875.751	21827
875.88	21968
876.008	22029
876.136	22021
876.265	22272
876.393	22375
876.521	22474
876.65	22375
876.778	22287
876.906	22173
877.034	22215
877.162	22246
877.29	22249
877.418	22261
877.546	22246
877.674	22268
877.802	22268
877.93	22211
878.058	22226
878.185	22124
878.313	22188
878.441	22166
878.568	22162
878.696	22204
878.824	22223
878.951	22181
879.079	22394
879.206	22592
879.333	22455
879.461	22257
879.588	22352
879.715	22462
879.842	22557
879.97	22352
880.097	22097
880.224	22048
880.351	22181
880.478	22093
880.605	22086
880.732	22036
880.859	22192
880.986	22032
881.112	21960
881.239	21949
881.366	21781
881.493	21838
881.619	21793
881.746	21705
881.872	21656
881.999	21587
882.125	21542
882.252	21663
882.378	21576
882.505	21675
882.631	21595
882.757	21466
882.883	21424
883.01	21492
883.136	21340
883.262	21351
883.388	21146
883.514	21348
883.64	21408
883.766	21279
883.892	21112
884.018	21188
884.143	21211
884.269	21306
884.395	20998
884.52	20925
884.646	20918
884.772	20944
884.897	20887
885.023	20929
885.148	21161
885.274	21100
885.399	21112
885.524	20925
885.65	20948
885.775	21024
885.9	21017
886.025	21009
886.15	21081
886.275	20948
886.4	20826
886.525	20994
886.65	20819
886.775	21070
886.9	21043
887.025	21260
887.149	20925
887.274	20807
887.399	20826
887.523	20727
887.648	20788
887.773	20613
887.897	20667
888.021	20853
888.146	20720
888.27	20864
888.395	20929
888.519	20765
888.643	20842
888.767	20815
888.891	20609
889.015	20518
889.139	20571
889.263	20549
889.387	20636
889.511	20781
889.635	20632
889.759	20503
889.883	20476
890.006	20514
890.13	20720
890.254	20518
890.377	20438
890.501	20492
890.624	20305
890.748	20465
890.871	20180
890.995	20157
891.118	20027
891.241	20229
891.364	20084
891.488	20237
891.611	20115
891.734	20183
891.857	20225
891.98	20050
892.103	20202
892.226	20092
892.349	20096
892.471	19909
892.594	20058
892.717	20069
892.839	19955
892.962	19997
893.085	20050
893.207	20069
893.33	19963
893.452	19947
893.575	20035
893.697	19967
893.819	20084
893.941	20202
894.064	20164
894.186	20012
894.308	19986
894.43	20039
894.552	20088
894.674	20107
894.796	19936
894.918	20084
895.04	20081
895.161	20225
895.283	20054
895.405	20046
895.526	20115
895.648	20073
895.769	20107
895.891	20058
896.012	20180
896.134	20142
896.255	20050
896.376	20062
896.498	20092
896.619	19986
896.74	20065
896.861	20206
896.982	20400
897.103	20556
897.224	20339
897.345	20252
897.466	20142
897.587	20218
897.708	20396
897.828	20400
897.949	20183
898.07	20103
898.19	20328
898.311	20301
898.431	20195
898.552	20252
898.672	20366
898.792	20412
898.913	20248
899.033	20138
899.153	20161
899.273	20001
899.393	20043
899.513	19978
899.633	20111
899.753	20126
899.873	19898
899.993	20035
900.113	19944
900.232	20050
900.352	19959
900.472	19738
900.591	19731
900.711	19776
900.83	19761
900.95	19757
901.069	19811
901.189	19712
901.308	19514
901.427	19369
901.546	19472
901.665	19369
901.784	19362
901.904	19259
902.023	19168
902.141	19015
902.26	18962
902.379	18970
902.498	18768
902.617	18909
902.735	18882
902.854	18890
902.973	18840
903.091	18551
903.21	18635
903.328	18616
903.446	18456
903.565	18350
903.683	18361
903.801	18330
903.919	18334
904.038	18311
904.156	18125
904.274	18220
904.392	18091
904.51	18083
904.627	18068
904.745	18152
904.863	18232
904.981	17980
905.098	17802
905.216	17832
905.334	17893
905.451	17927
905.569	17729
905.686	17756
905.803	17832
905.921	17604
906.038	17657
906.155	17634
906.272	17532
906.389	17482
906.506	17299
906.623	17478
906.74	17356
906.857	17178
906.974	17337
907.091	17417
907.208	17425
907.324	17395
907.441	17083
907.557	17022
907.674	17056
907.79	16961
907.907	17045
908.023	17098
908.139	17041
908.256	16953
908.372	16927
908.488	16972
908.604	16904
908.72	16691
908.836	16892
908.952	16767
909.068	16797
909.184	16839
909.3	16801
909.415	16744
909.531	16778
909.647	16485
909.762	16478
909.878	16466
909.993	16500
910.108	16474
910.224	16421
910.339	16436
910.454	16268
910.57	16363
910.685	16200
910.8	16546
910.915	16440
911.03	16306
911.145	16173
911.259	16109
911.374	16101
911.489	16078
911.604	15975
911.718	15770
911.833	15880
911.947	15709
912.062	15610
912.176	15717
912.291	15812
912.405	15850
912.519	16082
912.633	15956
912.748	15873
912.862	15789
912.976	15576
913.09	15561
913.204	15625
913.318	15648
913.431	15789
913.545	15743
913.659	15812
913.772	15603
913.886	15469
914	15393
914.113	15515
914.226	15534
914.34	15530
914.453	15336
914.566	15382
914.68	15348
914.793	15272
914.906	15097
915.019	15043
915.132	15108
915.245	15112
915.358	15070
915.47	15112
915.583	15051
915.696	15074
915.809	15127
915.921	15184
916.034	15017
916.146	14963
916.259	14971
916.371	15074
916.483	15146
916.595	14887
916.708	14918
916.82	14925
916.932	14804
917.044	14853
917.156	14773
917.268	14773
917.38	14712
917.491	14762
917.603	14754
917.715	14777
917.826	14823
917.938	14705
918.049	14648
918.161	14693
918.272	14815
918.384	14807
918.495	14651
918.606	14495
918.717	14412
918.828	14450
918.939	14461
919.05	14393
919.161	14423
919.272	14202
919.383	14370
919.494	14594
919.604	14674
919.715	14484
919.826	14355
919.936	14438
920.047	14396
920.157	14358
920.267	14575
920.378	14454
920.488	14495
920.598	14674
920.708	14754
920.818	14625
920.928	14648
921.038	14727
921.148	14811
921.258	14503
921.368	14324
921.477	14225
921.587	14142
921.697	14092
921.806	14164
921.916	14050
922.025	13993
922.134	13890
922.244	13807
922.353	13871
922.462	13761
922.571	13761
922.68	13499
922.789	13480
922.898	13426
923.007	13438
923.116	13445
923.224	13487
923.333	13457
923.442	13327
923.55	13285
923.659	13255
923.767	13331
923.876	13213
923.984	13236
924.092	13217
924.201	13190
924.309	13209
924.417	13137
924.525	13171
924.633	13114
924.741	14027
924.849	12924
924.956	13091
925.064	12894
925.172	12829
925.279	12859
925.387	12916
925.494	12886
925.602	12966
925.709	12966
925.816	12954
925.924	12772
926.031	12977
926.138	12878
926.245	12867
926.352	12745
926.459	12806
926.566	12909
926.673	12730
926.779	12570
926.886	12635
926.993	12475
927.099	12464
927.206	12391
927.312	12467
927.419	12475
927.525	12464
927.631	12437
927.737	12391
927.843	12334
927.95	12270
928.056	12296
928.162	12247
928.267	12308
928.373	12928
928.479	12365
928.585	12076
928.69	12216
928.796	12330
928.901	12106
929.007	12026
929.112	12114
929.218	12022
929.323	11984
929.428	12045
929.533	12076
929.638	11923
929.743	11992
929.848	12045
929.953	11973
930.058	11920
930.163	11714
930.267	11688
930.372	11843
930.477	11722
930.581	11897
930.685	11745
930.79	11535
930.894	11562
930.998	11577
931.103	11688
931.207	11280
931.311	11231
931.415	11174
931.519	10942
931.623	11029
