Data from test_V78500241_715.txt Node
Date: Fri Mar 25 15:46:45 CST 2022
User: usil
Spectrometer: V785-0024
Trigger mode: 0
Integration Time (sec): 4.000000E-1
Scans to average: 1
Nonlinearity correction enabled: false
Boxcar width: 0
Storing dark spectrum: false
XAxis mode: Wavelengths
Number of Pixels in Spectrum: 1024
>>>>>Begin Spectral Data<<<<<
801.071	27709
801.214	27705
801.356	27473
801.499	27367
801.641	27233
801.783	27264
801.926	27389
802.068	27093
802.211	27218
802.353	27169
802.496	26967
802.638	27032
802.78	26956
802.923	26838
803.065	26872
803.208	27024
803.35	26876
803.492	27047
803.635	27142
803.777	27024
803.919	27245
804.061	27363
804.204	27157
804.346	27077
804.488	26952
804.63	27028
804.773	27051
804.915	27077
805.057	27260
805.199	27116
805.341	27260
805.483	27306
805.626	27203
805.768	27173
805.91	27222
806.052	27287
806.194	27116
806.336	27325
806.478	27374
806.62	27264
806.762	27420
806.904	27454
807.046	27656
807.188	27808
807.33	27660
807.472	27823
807.614	27736
807.756	27736
807.898	27427
808.04	27576
808.182	27477
808.324	27526
808.465	27591
808.607	27603
808.749	27873
808.891	27876
809.033	28124
809.174	28086
809.316	27876
809.458	27922
809.6	27903
809.741	28070
809.883	28070
810.025	28257
810.166	28177
810.308	28147
810.45	28226
810.591	28040
810.733	27873
810.875	27964
811.016	27838
811.158	27800
811.299	27975
811.441	28097
811.582	27979
811.724	27926
811.865	27861
812.007	27819
812.148	27930
812.29	27926
812.431	28067
812.573	28284
812.714	28276
812.855	28421
812.997	28542
813.138	28607
813.279	28527
813.421	28413
813.562	28462
813.703	28200
813.845	28143
813.986	27816
814.127	27663
814.268	27504
814.41	27698
814.551	27557
814.692	27591
814.833	27450
814.974	27545
815.115	27466
815.256	27515
815.397	27370
815.539	27519
815.68	27279
815.821	27207
815.962	27363
816.103	27431
816.244	27260
816.385	27157
816.526	27218
816.666	27024
816.807	26937
816.948	26918
817.089	26967
817.23	27005
817.371	26724
817.512	26887
817.653	26906
817.793	26773
817.934	26781
818.075	26921
818.216	26724
818.356	26849
818.497	26655
818.638	26686
818.778	26659
818.919	26644
819.06	26663
819.2	26807
819.341	26819
819.481	26750
819.622	26994
819.762	27127
819.903	27138
820.043	27074
820.184	26925
820.324	26910
820.465	27017
820.605	27036
820.746	26880
820.886	26880
821.026	26933
821.167	26842
821.307	27017
821.447	26975
821.588	26743
821.728	26575
821.868	26564
822.008	26332
822.149	26381
822.289	26278
822.429	26058
822.569	26161
822.709	26024
822.849	25894
822.99	25746
823.13	25811
823.27	25887
823.41	25594
823.55	25575
823.69	25662
823.83	25658
823.97	25487
824.11	25548
824.25	25499
824.389	25559
824.529	25605
824.669	25533
824.809	25624
824.949	25597
825.089	25487
825.228	25495
825.368	25236
825.508	25441
825.648	25331
825.787	25346
825.927	25533
826.067	25403
826.206	25346
826.346	25343
826.485	25434
826.625	25396
826.765	25343
826.904	25453
827.044	25095
827.183	25042
827.323	25042
827.462	25046
827.601	24989
827.741	25095
827.88	25076
828.02	24951
828.159	25053
828.298	25019
828.437	25160
828.577	24939
828.716	25034
828.855	24947
828.994	24791
829.134	24867
829.273	24859
829.412	24810
829.551	24779
829.69	24730
829.829	24772
829.968	24897
830.107	24852
830.246	24738
830.385	24658
830.524	24726
830.663	24589
830.802	24441
830.941	24391
831.08	24414
831.219	24627
831.357	24441
831.496	24456
831.635	24194
831.774	24194
831.913	24262
832.051	24201
832.19	24079
832.329	24243
832.467	24041
832.606	24060
832.744	23874
832.883	23950
833.022	23973
833.16	24106
833.299	23961
833.437	24106
833.576	24129
833.714	24194
833.852	24163
833.991	24057
834.129	24194
834.267	24281
834.406	24026
834.544	24095
834.682	24117
834.821	24136
834.959	24155
835.097	24098
835.235	24182
835.373	24064
835.511	24117
835.65	24030
835.788	23958
835.926	23954
836.064	23710
836.202	23771
836.34	23863
836.478	23999
836.615	23958
836.753	23992
836.891	23904
837.029	23984
837.167	23855
837.305	23809
837.443	23836
837.58	23764
837.718	23874
837.856	23832
837.993	23824
838.131	23824
838.269	23661
838.406	23695
838.544	23608
838.681	23493
838.819	23501
838.956	23216
839.094	23364
839.231	23360
839.369	23436
839.506	23691
839.643	23596
839.781	23455
839.918	23064
840.055	23395
840.193	23235
840.33	23280
840.467	23227
840.604	23197
840.742	23547
840.879	23113
841.016	23033
841.153	23052
841.29	23231
841.427	23090
841.564	23231
841.701	23277
841.838	23174
841.975	23010
842.112	23159
842.249	23083
842.385	22908
842.522	23132
842.659	22999
842.796	23025
842.933	22923
843.069	22885
843.206	22889
843.343	23124
843.479	23006
843.616	23003
843.752	22694
843.889	22850
844.025	22835
844.162	22729
844.298	22824
844.435	22599
844.571	22755
844.708	22809
844.844	22835
844.98	22862
845.117	22752
845.253	22706
845.389	22523
845.525	22679
845.661	22561
845.798	22386
845.934	22603
846.07	22519
846.206	22497
846.342	22694
846.478	22462
846.614	22261
846.75	22143
846.886	22234
847.022	22276
847.158	22268
847.294	22188
847.429	22287
847.565	22128
847.701	22436
847.837	21983
847.972	21918
848.108	22021
848.244	21941
848.379	21755
848.515	21747
848.65	21759
848.786	21762
848.921	21816
849.057	21876
849.192	21899
849.328	21831
849.463	21698
849.598	21800
849.734	21679
849.869	21534
850.004	21545
850.14	21652
850.275	21458
850.41	21526
850.545	21568
850.68	21435
850.815	21606
850.95	21431
851.085	21816
851.22	21599
851.355	21534
851.49	21511
851.625	21405
851.76	21431
851.895	21447
852.03	21504
852.165	21507
852.299	21641
852.434	21564
852.569	21587
852.703	21530
852.838	21576
852.973	21766
853.107	21644
853.242	21431
853.376	21405
853.511	21252
853.645	21359
853.78	21469
853.914	21454
854.048	21249
854.183	21302
854.317	21382
854.451	21542
854.585	21424
854.72	21245
854.854	21492
854.988	21294
855.122	21447
855.256	21329
855.39	21386
855.524	21412
855.658	21386
855.792	21428
855.926	21454
856.06	21519
856.194	21389
856.327	21313
856.461	21298
856.595	21348
856.729	21367
856.862	21538
856.996	21401
857.13	21405
857.263	21515
857.397	21420
857.53	21317
857.664	21515
857.797	21428
857.931	21397
858.064	21397
858.197	21492
858.331	21393
858.464	21302
858.597	21184
858.731	21374
858.864	21268
858.997	21386
859.13	21329
859.263	21363
859.396	21378
859.529	21313
859.662	21298
859.795	21279
859.928	21420
860.061	21564
860.194	21564
860.327	21355
860.46	21325
860.592	21534
860.725	21511
860.858	21534
860.99	21329
861.123	21214
861.256	21348
861.388	21473
861.521	21937
861.653	21291
861.786	21184
861.918	21264
862.05	21211
862.183	21154
862.315	21378
862.447	21412
862.58	21310
862.712	21108
862.844	21020
862.976	21279
863.108	21150
863.24	21545
863.372	21055
863.504	21104
863.636	21157
863.768	21146
863.9	21058
864.032	21020
864.164	21093
864.296	21081
864.428	21157
864.559	21077
864.691	21096
864.823	21116
864.954	21230
865.086	21074
865.217	21024
865.349	20864
865.48	20902
865.612	20880
865.743	21146
865.875	21043
866.006	20906
866.137	21024
866.269	20948
866.4	20895
866.531	20906
866.662	20849
866.793	20845
866.924	20925
867.055	20887
867.186	20902
867.317	20891
867.448	20872
867.579	20777
867.71	20921
867.841	20682
867.972	20975
868.103	20921
868.233	20834
868.364	20857
868.495	20998
868.625	21161
868.756	21245
868.886	21089
869.017	21058
869.147	21245
869.278	21283
869.408	21184
869.539	21230
869.669	21138
869.799	21188
869.929	21233
870.06	21184
870.19	21447
870.32	21511
870.45	21424
870.58	21564
870.71	21591
870.84	21614
870.97	21378
871.1	21580
871.23	21751
871.36	21663
871.489	21663
871.619	21743
871.749	21717
871.879	21728
872.008	21819
872.138	21732
872.267	21679
872.397	21625
872.526	21507
872.656	21420
872.785	21603
872.915	21648
873.044	21915
873.173	21903
873.303	21789
873.432	21770
873.561	21880
873.69	21808
873.819	21797
873.948	21781
874.077	21701
874.206	21679
874.335	21743
874.464	21831
874.593	22032
874.722	21857
874.851	21991
874.979	22074
875.108	21960
875.237	21972
875.365	21831
875.494	22010
875.623	22051
875.751	22021
875.88	21972
876.008	22082
876.136	22329
876.265	22417
876.393	22424
876.521	22527
876.65	22474
876.778	22478
876.906	22268
877.034	22276
877.162	22390
877.29	22303
877.418	22329
877.546	22428
877.674	22272
877.802	22402
877.93	22310
878.058	22295
878.185	22128
878.313	22329
878.441	22226
878.568	22169
878.696	22223
878.824	22409
878.951	22398
879.079	22538
879.206	22717
879.333	22455
879.461	22310
879.588	22356
879.715	22462
879.842	22611
879.97	22424
880.097	22211
880.224	22070
880.351	22280
880.478	22230
880.605	22128
880.732	22116
880.859	22344
880.986	22177
881.112	22090
881.239	22097
881.366	21892
881.493	21884
881.619	21823
881.746	21720
881.872	21671
881.999	21637
882.125	21648
882.252	21705
882.378	21667
882.505	21781
882.631	21694
882.757	21408
882.883	21481
883.01	21420
883.136	21382
883.262	21233
883.388	21241
883.514	21523
883.64	21431
883.766	21230
883.892	21188
884.018	21272
884.143	21260
884.269	21412
884.395	21161
884.52	21096
884.646	21135
884.772	20967
884.897	20891
885.023	21039
885.148	21146
885.274	21135
885.399	21157
885.524	21017
885.65	21036
885.775	21195
885.9	21135
886.025	21093
886.15	21127
886.275	21074
886.4	21001
886.525	21051
886.65	21081
886.775	20963
886.9	21131
887.025	21252
887.149	21036
887.274	20925
887.399	20925
887.523	20811
887.648	20765
887.773	20720
887.897	20944
888.021	20971
888.146	20800
888.27	20921
888.395	20906
888.519	20925
888.643	20804
888.767	20857
888.891	20659
889.015	20724
889.139	20606
889.263	20625
889.387	20754
889.511	20807
889.635	20826
889.759	20632
889.883	20594
890.006	20454
890.13	20670
890.254	20492
890.377	20609
890.501	20454
890.624	20343
890.748	20393
890.871	20244
890.995	20031
891.118	20039
891.241	20195
891.364	20229
891.488	20301
891.611	20294
891.734	20305
891.857	20324
891.98	20229
892.103	20267
892.226	20225
892.349	20187
892.471	19906
892.594	20187
892.717	20225
892.839	20122
892.962	20218
893.085	20122
893.207	20058
893.33	19993
893.452	20065
893.575	20164
893.697	20183
893.819	20229
893.941	20298
894.064	20301
894.186	20035
894.308	20107
894.43	20161
894.552	20275
894.674	20092
894.796	20005
894.918	20073
895.04	20039
895.161	20214
895.283	20126
895.405	20012
895.526	20020
895.648	20153
895.769	20043
895.891	20122
896.012	20176
896.134	20130
896.255	20058
896.376	20065
896.498	20069
896.619	20214
896.74	20157
896.861	20199
896.982	20514
897.103	20606
897.224	20385
897.345	20332
897.466	20294
897.587	20248
897.708	20457
897.828	20294
897.949	20355
898.07	20218
898.19	20343
898.311	20450
898.431	20263
898.552	20400
898.672	20446
898.792	20473
898.913	20267
899.033	20164
899.153	20202
899.273	20012
899.393	20111
899.513	20103
899.633	20100
899.753	19951
899.873	20020
899.993	20046
900.113	20100
900.232	20016
900.352	20043
900.472	19860
900.591	19860
900.711	19871
900.83	19822
900.95	20024
901.069	19970
901.189	19799
901.308	19613
901.427	19438
901.546	19510
901.665	19457
901.784	19506
901.904	19350
902.023	19206
902.141	19050
902.26	19008
902.379	18935
902.498	18882
902.617	18897
902.735	18897
902.854	18981
902.973	18886
903.091	18646
903.21	18608
903.328	18627
903.446	18601
903.565	18437
903.683	18338
903.801	18369
903.919	18418
904.038	18338
904.156	18205
904.274	18266
904.392	18216
904.51	18110
904.627	18213
904.745	18174
904.863	18171
904.981	17977
905.098	17927
905.216	17954
905.334	17859
905.451	17874
905.569	17817
905.686	17901
905.803	17878
905.921	17642
906.038	17714
906.155	17665
906.272	17516
906.389	17551
906.506	17471
906.623	17467
906.74	17299
906.857	17303
906.974	17322
907.091	17459
907.208	17585
907.324	17429
907.441	17292
907.557	17113
907.674	17052
907.79	16987
907.907	17128
908.023	17098
908.139	17060
908.256	17041
908.372	17029
908.488	16965
908.604	16847
908.72	16797
908.836	16908
908.952	16892
909.068	16812
909.184	16953
909.3	16774
909.415	16839
909.531	16839
909.647	16512
909.762	16535
909.878	16577
909.993	16558
910.108	16527
910.224	16481
910.339	16478
910.454	16382
910.57	16428
910.685	16246
910.8	16550
910.915	16497
911.03	16371
911.145	16131
911.259	16181
911.374	16105
911.489	16013
911.604	16032
911.718	15854
911.833	15903
911.947	15823
912.062	15800
912.176	15892
912.291	16025
912.405	15911
912.519	16074
912.633	16078
912.748	15934
912.862	15831
912.976	15823
913.09	15572
913.204	15720
913.318	15629
913.431	15812
913.545	15698
913.659	15838
913.772	15694
913.886	15511
914	15481
914.113	15557
914.226	15709
914.34	15584
914.453	15348
914.566	15568
914.68	15458
914.793	15329
914.906	15241
915.019	15123
915.132	15066
915.245	15146
915.358	15127
915.47	15058
915.583	15173
915.696	15176
915.809	15184
915.921	15344
916.034	15116
916.146	14998
916.259	14914
916.371	15123
916.483	15146
916.595	14918
916.708	14941
916.82	14952
916.932	14876
917.044	14975
917.156	14845
917.268	14739
917.38	14769
917.491	14648
917.603	14788
917.715	14834
917.826	14823
917.938	14754
918.049	14541
918.161	14693
918.272	14781
918.384	14868
918.495	14712
918.606	14583
918.717	14522
918.828	14503
918.939	14617
919.05	14431
919.161	14476
919.272	14275
919.383	14446
919.494	14499
919.604	14598
919.715	14461
919.826	14377
919.936	14480
920.047	14625
920.157	14499
920.267	14701
920.378	14537
920.488	14492
920.598	14739
920.708	14788
920.818	14575
920.928	14610
921.038	14815
921.148	14743
921.258	14465
921.368	14389
921.477	14218
921.587	14305
921.697	14142
921.806	14218
921.916	14123
922.025	13989
922.134	13909
922.244	13849
922.353	14001
922.462	13765
922.571	13757
922.68	13575
922.789	13502
922.898	13567
923.007	13457
923.116	13575
923.224	13396
923.333	13396
923.442	13407
923.55	13304
923.659	13396
923.767	13384
923.876	13278
923.984	13472
924.092	13175
924.201	13327
924.309	13327
924.417	13263
924.525	13213
924.633	13206
924.741	14149
924.849	12909
924.956	13164
925.064	12977
925.172	12951
925.279	12947
925.387	12954
925.494	12909
925.602	13023
925.709	12939
925.816	12806
925.924	12920
926.031	12954
926.138	12802
926.245	12947
926.352	12821
926.459	12795
926.566	12958
926.673	12795
926.779	12547
926.886	12715
926.993	12506
927.099	12528
927.206	12460
927.312	12464
927.419	12563
927.525	12467
927.631	12486
927.737	12486
927.843	12372
927.95	12247
928.056	12277
928.162	12285
928.267	12369
928.373	12966
928.479	12346
928.585	12213
928.69	12262
928.796	12323
928.901	12136
929.007	12125
929.112	12140
929.218	12213
929.323	12110
929.428	12102
929.533	12270
929.638	11958
929.743	12072
929.848	12057
929.953	11973
930.058	11878
930.163	11748
930.267	11714
930.372	11824
930.477	11668
930.581	11999
930.685	11847
930.79	11608
930.894	11634
930.998	11630
931.103	11722
931.207	11376
931.311	11280
931.415	11223
931.519	11018
931.623	11025
