Data from test_V78500241_2181.txt Node
Date: Fri Mar 25 15:56:54 CST 2022
User: usil
Spectrometer: V785-0024
Trigger mode: 0
Integration Time (sec): 4.000000E-1
Scans to average: 1
Nonlinearity correction enabled: false
Boxcar width: 0
Storing dark spectrum: false
XAxis mode: Wavelengths
Number of Pixels in Spectrum: 1024
>>>>>Begin Spectral Data<<<<<
801.071	28915
801.214	28771
801.356	28508
801.499	28573
801.641	28535
801.783	28470
801.926	28527
802.068	28508
802.211	28341
802.353	28242
802.496	28128
802.638	28287
802.78	28120
802.923	27979
803.065	28055
803.208	27998
803.35	28207
803.492	28306
803.635	28329
803.777	28261
803.919	28462
804.061	28599
804.204	28554
804.346	28417
804.488	28375
804.63	28348
804.773	28379
804.915	28329
805.057	28474
805.199	28379
805.341	28474
805.483	28561
805.626	28417
805.768	28417
805.91	28668
806.052	28504
806.194	28588
806.336	28805
806.478	28546
806.62	28645
806.762	28706
806.904	28786
807.046	28976
807.188	28968
807.33	29022
807.472	28968
807.614	29018
807.756	28908
807.898	28911
808.04	28736
808.182	28828
808.324	28881
808.465	28881
808.607	29273
808.749	29143
808.891	29337
809.033	29433
809.174	29349
809.316	29223
809.458	29216
809.6	29162
809.741	29299
809.883	29490
810.025	29611
810.166	29539
810.308	29524
810.45	29414
810.591	29406
810.733	29406
810.875	29204
811.016	29189
811.158	29083
811.299	29330
811.441	29463
811.582	29501
811.724	29200
811.865	29227
812.007	29102
812.148	29303
812.29	29299
812.431	29444
812.573	29695
812.714	29661
812.855	29855
812.997	29836
813.138	29999
813.279	29908
813.421	29695
813.562	29866
813.703	29665
813.845	29558
813.986	29090
814.127	28957
814.268	28976
814.41	29056
814.551	29033
814.692	29044
814.833	28786
814.974	28949
815.115	29052
815.256	28790
815.397	28862
815.539	28847
815.68	28938
815.821	28706
815.962	28873
816.103	28908
816.244	28516
816.385	28485
816.526	28565
816.666	28432
816.807	28242
816.948	28443
817.089	28341
817.23	28192
817.371	28291
817.512	28219
817.653	28291
817.793	28249
817.934	28226
818.075	28268
818.216	28181
818.356	28276
818.497	28154
818.638	27953
818.778	28128
818.919	28112
819.06	28162
819.2	28181
819.341	28382
819.481	28344
819.622	28352
819.762	28535
819.903	28565
820.043	28569
820.184	28519
820.324	28474
820.465	28424
820.605	28405
820.746	28348
820.886	28371
821.026	28466
821.167	28413
821.307	28409
821.447	28314
821.588	28272
821.728	28196
821.868	27922
822.008	27774
822.149	27884
822.289	27827
822.429	27595
822.569	27557
822.709	27424
822.849	27344
822.99	27256
823.13	27386
823.27	27306
823.41	27123
823.55	27089
823.69	27001
823.83	27062
823.97	27017
824.11	26925
824.25	26868
824.389	26895
824.529	26979
824.669	26921
824.809	27089
824.949	26960
825.089	27032
825.228	27142
825.368	26678
825.508	26762
825.648	26743
825.787	26883
825.927	26906
826.067	26777
826.206	26735
826.346	26804
826.485	26895
826.625	26838
826.765	26967
826.904	26746
827.044	26678
827.183	26701
827.323	26484
827.462	26655
827.601	26651
827.741	26476
827.88	26549
828.02	26480
828.159	26621
828.298	26575
828.437	26453
828.577	26438
828.716	26568
828.855	26526
828.994	26153
829.134	26168
829.273	26282
829.412	26195
829.551	26092
829.69	26317
829.829	26168
829.968	26347
830.107	26332
830.246	26187
830.385	26225
830.524	26058
830.663	25963
830.802	25868
830.941	25696
831.08	25719
831.219	25856
831.357	25936
831.496	26084
831.635	25860
831.774	25849
831.913	25795
832.051	25601
832.19	25742
832.329	25620
832.467	25506
832.606	25533
832.744	25495
832.883	25468
833.022	25609
833.16	25624
833.299	25559
833.437	25457
833.576	25655
833.714	25624
833.852	25495
833.991	25651
834.129	25601
834.267	25563
834.406	25525
834.544	25575
834.682	25563
834.821	25483
834.959	25696
835.097	25514
835.235	25670
835.373	25571
835.511	25464
835.65	25388
835.788	25514
835.926	25251
836.064	25103
836.202	25228
836.34	25502
836.478	25518
836.615	25324
836.753	25365
836.891	25396
837.029	25384
837.167	25400
837.305	25228
837.443	25324
837.58	25187
837.718	25259
837.856	25031
837.993	25069
838.131	25152
838.269	25000
838.406	25084
838.544	25038
838.681	24650
838.819	24886
838.956	24646
839.094	24635
839.231	24779
839.369	24901
839.506	25141
839.643	24939
839.781	24669
839.918	24517
840.055	24665
840.193	24574
840.33	24635
840.467	24544
840.604	24711
840.742	24829
840.879	24410
841.016	24494
841.153	24426
841.29	24623
841.427	24547
841.564	24563
841.701	24513
841.838	24460
841.975	24429
842.112	24441
842.249	24433
842.385	24422
842.522	24536
842.659	24399
842.796	24334
842.933	24232
843.069	24285
843.206	24224
843.343	24338
843.479	24254
843.616	24273
843.752	24060
843.889	24220
844.025	24213
844.162	24148
844.298	24201
844.435	24095
844.571	23999
844.708	24232
844.844	24136
844.98	24232
845.117	24171
845.253	24148
845.389	23935
845.525	24022
845.661	23897
845.798	23748
845.934	23851
846.07	23832
846.206	23794
846.342	23935
846.478	23817
846.614	23653
846.75	23577
846.886	23581
847.022	23577
847.158	23551
847.294	23539
847.429	23676
847.565	23459
847.701	23703
847.837	23239
847.972	23159
848.108	23265
848.244	23414
848.379	23128
848.515	23117
848.65	23113
848.786	23178
848.921	23178
849.057	23299
849.192	23200
849.328	23033
849.463	23258
849.598	23121
849.734	22968
849.869	22968
850.004	22809
850.14	22908
850.275	22942
850.41	22782
850.545	22908
850.68	22877
850.815	22942
850.95	22782
851.085	22934
851.22	23022
851.355	22816
851.49	22949
851.625	22942
851.76	22889
851.895	22698
852.03	22809
852.165	22866
852.299	22904
852.434	23060
852.569	22904
852.703	22915
852.838	22961
852.973	22976
853.107	23022
853.242	22736
853.376	22672
853.511	22752
853.645	22637
853.78	22862
853.914	22702
854.048	22691
854.183	22649
854.317	22717
854.451	23003
854.585	22774
854.72	22641
854.854	22790
854.988	22634
855.122	22797
855.256	22550
855.39	22683
855.524	22744
855.658	22729
855.792	22820
855.926	22748
856.06	22782
856.194	22721
856.327	22717
856.461	22649
856.595	22622
856.729	22767
856.862	22759
856.996	22736
857.13	22797
857.263	22877
857.397	22721
857.53	22717
857.664	22748
857.797	22691
857.931	22710
858.064	22809
858.197	22767
858.331	22755
858.464	22554
858.597	22557
858.731	22672
858.864	22710
858.997	22763
859.13	22824
859.263	22626
859.396	22824
859.529	22725
859.662	22725
859.795	22759
859.928	22713
860.061	22919
860.194	23083
860.327	22691
860.46	22793
860.592	22797
860.725	22862
860.858	22847
860.99	22717
861.123	22691
861.256	22634
861.388	22649
861.521	23387
861.653	22603
861.786	22478
861.918	22485
862.05	22489
862.183	22763
862.315	22702
862.447	22725
862.58	22694
862.712	22413
862.844	22371
862.976	22421
863.108	22455
863.24	22854
863.372	22276
863.504	22352
863.636	22436
863.768	22531
863.9	22398
864.032	22356
864.164	22417
864.296	22466
864.428	22478
864.559	22398
864.691	22356
864.823	22428
864.954	22440
865.086	22344
865.217	22272
865.349	22265
865.48	22348
865.612	22265
865.743	22447
865.875	22344
866.006	22337
866.137	22219
866.269	22382
866.4	22219
866.531	22204
866.662	22200
866.793	22177
866.924	22147
867.055	22291
867.186	22287
867.317	22196
867.448	22124
867.579	22344
867.71	22211
867.841	22120
867.972	22246
868.103	22211
868.233	22196
868.364	22154
868.495	22363
868.625	22299
868.756	22519
868.886	22512
869.017	22447
869.147	22538
869.278	22508
869.408	22466
869.539	22417
869.669	22489
869.799	22580
869.929	22538
870.06	22554
870.19	22797
870.32	22710
870.45	22767
870.58	22733
870.71	22854
870.84	22949
870.97	22869
871.1	22869
871.23	22999
871.36	23079
871.489	23025
871.619	23014
871.749	22999
871.879	23155
872.008	23204
872.138	23083
872.267	23162
872.397	22854
872.526	22904
872.656	22854
872.785	22934
872.915	23064
873.044	23200
873.173	23166
873.303	23128
873.432	23067
873.561	23041
873.69	23140
873.819	23056
873.948	23121
874.077	23105
874.206	23094
874.335	23083
874.464	23155
874.593	23250
874.722	23239
874.851	23334
874.979	23227
875.108	23250
875.237	23216
875.365	23166
875.494	23273
875.623	23379
875.751	23223
875.88	23421
876.008	23474
876.136	23440
876.265	23501
876.393	23718
876.521	23771
876.65	23756
876.778	23649
876.906	23551
877.034	23505
877.162	23653
877.29	23505
877.418	23615
877.546	23729
877.674	23691
877.802	23672
877.93	23539
878.058	23509
878.185	23482
878.313	23490
878.441	23577
878.568	23482
878.696	23608
878.824	23577
878.951	23726
879.079	23634
879.206	23874
879.333	23756
879.461	23531
879.588	23779
879.715	23695
879.842	23904
879.97	23760
880.097	23516
880.224	23463
880.351	23444
880.478	23379
880.605	23459
880.732	23368
880.859	23687
880.986	23448
881.112	23528
881.239	23307
881.366	23239
881.493	23102
881.619	23018
881.746	23033
881.872	22915
881.999	23018
882.125	22854
882.252	22942
882.378	22949
882.505	22942
882.631	22767
882.757	22653
882.883	22740
883.01	22641
883.136	22653
883.262	22569
883.388	22577
883.514	22683
883.64	22626
883.766	22675
883.892	22390
884.018	22447
884.143	22561
884.269	22675
884.395	22417
884.52	22299
884.646	22348
884.772	22192
884.897	22188
885.023	22295
885.148	22352
885.274	22478
885.399	22443
885.524	22276
885.65	22360
885.775	22329
885.9	22405
886.025	22398
886.15	22310
886.275	22348
886.4	22124
886.525	22238
886.65	22215
886.775	22226
886.9	22318
887.025	22489
887.149	22257
887.274	22074
887.399	22105
887.523	22109
887.648	21953
887.773	22036
887.897	22150
888.021	22116
888.146	21979
888.27	22162
888.395	22135
888.519	22131
888.643	22025
888.767	22048
888.891	21876
889.015	21797
889.139	21781
889.263	21861
889.387	22044
889.511	22006
889.635	21819
889.759	21865
889.883	21800
890.006	21713
890.13	21956
890.254	21736
890.377	21861
890.501	21709
890.624	21671
890.748	21625
890.871	21492
890.995	21294
891.118	21389
891.241	21405
891.364	21424
891.488	21660
891.611	21382
891.734	21504
891.857	21420
891.98	21439
892.103	21435
892.226	21397
892.349	21317
892.471	21245
892.594	21313
892.717	21332
892.839	21294
892.962	21237
893.085	21340
893.207	21195
893.33	21176
893.452	21264
893.575	21313
893.697	21283
893.819	21393
893.941	21424
894.064	21447
894.186	21203
894.308	21218
894.43	21230
894.552	21279
894.674	21313
894.796	21089
894.918	21256
895.04	21161
895.161	21272
895.283	21260
895.405	21165
895.526	21154
895.648	21291
895.769	21252
895.891	21207
896.012	21317
896.134	21393
896.255	21397
896.376	21294
896.498	21180
896.619	21313
896.74	21332
896.861	21275
896.982	21580
897.103	21625
897.224	21545
897.345	21401
897.466	21401
897.587	21447
897.708	21660
897.828	21435
897.949	21408
898.07	21374
898.19	21355
898.311	21443
898.431	21374
898.552	21412
898.672	21443
898.792	21492
898.913	21435
899.033	21184
899.153	21199
899.273	21077
899.393	21173
899.513	21192
899.633	21214
899.753	21108
899.873	21036
899.993	21157
900.113	21093
900.232	21032
900.352	21070
900.472	20914
900.591	20804
900.711	20975
900.83	21074
900.95	20971
901.069	21062
901.189	20864
901.308	20583
901.427	20366
901.546	20526
901.665	20625
901.784	20560
901.904	20267
902.023	20221
902.141	20180
902.26	19989
902.379	20145
902.498	20027
902.617	19913
902.735	20103
902.854	19868
902.973	19883
903.091	19651
903.21	19719
903.328	19677
903.446	19609
903.565	19483
903.683	19476
903.801	19327
903.919	19449
904.038	19362
904.156	19179
904.274	19285
904.392	19126
904.51	19126
904.627	19247
904.745	19225
904.863	19137
904.981	18947
905.098	18947
905.216	19088
905.334	18859
905.451	18875
905.569	18878
905.686	19057
905.803	18897
905.921	18650
906.038	18681
906.155	18681
906.272	18574
906.389	18528
906.506	18376
906.623	18330
906.74	18369
906.857	18384
906.974	18330
907.091	18479
907.208	18486
907.324	18452
907.441	18285
907.557	18186
907.674	18167
907.79	17961
907.907	17992
908.023	18144
908.139	18117
908.256	18053
908.372	17923
908.488	17897
908.604	17756
908.72	17885
908.836	17767
908.952	17760
909.068	17817
909.184	17931
909.3	17832
909.415	17847
909.531	17927
909.647	17573
909.762	17558
909.878	17516
909.993	17497
910.108	17364
910.224	17452
910.339	17364
910.454	17383
910.57	17280
910.685	17269
910.8	17543
910.915	17402
911.03	17322
911.145	17064
911.259	17109
911.374	17079
911.489	17037
911.604	16972
911.718	16839
911.833	16843
911.947	16748
912.062	16748
912.176	16892
912.291	16805
912.405	16904
912.519	17079
912.633	16995
912.748	16828
912.862	16736
912.976	16683
913.09	16500
913.204	16615
913.318	16569
913.431	16641
913.545	16729
913.659	16607
913.772	16622
913.886	16481
914	16451
914.113	16474
914.226	16466
914.34	16508
914.453	16246
914.566	16481
914.68	16352
914.793	16188
914.906	16128
915.019	15934
915.132	15873
915.245	15960
915.358	16017
915.47	16006
915.583	15949
915.696	16010
915.809	16051
915.921	16082
916.034	15968
916.146	15903
916.259	15880
916.371	15972
916.483	15926
916.595	15766
916.708	15827
916.82	15842
916.932	15797
917.044	15751
917.156	15690
917.268	15606
917.38	15625
917.491	15568
917.603	15652
917.715	15694
917.826	15667
917.938	15603
918.049	15515
918.161	15523
918.272	15660
918.384	15690
918.495	15488
918.606	15477
918.717	15245
918.828	15302
918.939	15439
919.05	15211
919.161	15332
919.272	15180
919.383	15116
919.494	15313
919.604	15572
919.715	15386
919.826	15188
919.936	15249
920.047	15466
920.157	15332
920.267	15485
920.378	15279
920.488	15150
920.598	15530
920.708	15633
920.818	15428
920.928	15351
921.038	15542
921.148	15526
921.258	15214
921.368	15180
921.477	15089
921.587	15028
921.697	14811
921.806	15127
921.916	14986
922.025	14731
922.134	14731
922.244	14621
922.353	14701
922.462	14583
922.571	14381
922.68	14347
922.789	14389
922.898	14347
923.007	14225
923.116	14328
923.224	14221
923.333	14305
923.442	14088
923.55	13993
923.659	14214
923.767	14164
923.876	14020
923.984	14062
924.092	13989
924.201	14046
924.309	13989
924.417	13967
924.525	13894
924.633	13959
924.741	14655
924.849	13772
924.956	13841
925.064	13731
925.172	13590
925.279	13677
925.387	13715
925.494	13582
925.602	13769
925.709	13666
925.816	13544
925.924	13582
926.031	13670
926.138	13628
926.245	13651
926.352	13476
926.459	13647
926.566	13738
926.673	13556
926.779	13426
926.886	13369
926.993	13331
927.099	13266
927.206	13194
927.312	13152
927.419	13278
927.525	13152
927.631	13194
927.737	13034
927.843	13031
927.95	12981
928.056	13027
928.162	13091
928.267	13072
928.373	13670
928.479	13168
928.585	12916
928.69	13015
928.796	13053
928.901	12779
929.007	12696
929.112	12947
929.218	12871
929.323	12772
929.428	12612
929.533	12848
929.638	12627
929.743	12631
929.848	12707
929.953	12745
930.058	12612
930.163	12391
930.267	12388
930.372	12490
930.477	12327
930.581	12555
930.685	12369
930.79	12315
930.894	12281
930.998	12197
931.103	12361
931.207	12060
931.311	11916
931.415	11916
931.519	11665
931.623	11638
