Data from test_V78500241_1868.txt Node
Date: Fri Mar 25 15:54:44 CST 2022
User: usil
Spectrometer: V785-0024
Trigger mode: 0
Integration Time (sec): 4.000000E-1
Scans to average: 1
Nonlinearity correction enabled: false
Boxcar width: 0
Storing dark spectrum: false
XAxis mode: Wavelengths
Number of Pixels in Spectrum: 1024
>>>>>Begin Spectral Data<<<<<
801.071	28679
801.214	28763
801.356	28523
801.499	28379
801.641	28394
801.783	28363
801.926	28440
802.068	28375
802.211	28268
802.353	28242
802.496	28067
802.638	28070
802.78	28154
802.923	28135
803.065	27892
803.208	28181
803.35	28013
803.492	28135
803.635	28238
803.777	28124
803.919	28386
804.061	28588
804.204	28459
804.346	28211
804.488	28280
804.63	28242
804.773	28291
804.915	28379
805.057	28417
805.199	28325
805.341	28352
805.483	28527
805.626	28493
805.768	28455
805.91	28413
806.052	28455
806.194	28371
806.336	28535
806.478	28542
806.62	28470
806.762	28512
806.904	28622
807.046	28999
807.188	28866
807.33	28820
807.472	28927
807.614	28790
807.756	28843
807.898	28698
808.04	28675
808.182	28668
808.324	28694
808.465	28691
808.607	28892
808.749	29178
808.891	29200
809.033	29235
809.174	29189
809.316	29094
809.458	29109
809.6	29064
809.741	29220
809.883	29254
810.025	29429
810.166	29421
810.308	29356
810.45	29379
810.591	29391
810.733	29208
810.875	29060
811.016	29003
811.158	29075
811.299	29044
811.441	29254
811.582	29379
811.724	29185
811.865	29143
812.007	29121
812.148	29094
812.29	29197
812.431	29204
812.573	29474
812.714	29501
812.855	29714
812.997	29676
813.138	29904
813.279	29714
813.421	29684
813.562	29642
813.703	29459
813.845	29425
813.986	29048
814.127	28927
814.268	28908
814.41	28961
814.551	28790
814.692	28850
814.833	28698
814.974	28797
815.115	28854
815.256	28755
815.397	28771
815.539	28896
815.68	28580
815.821	28535
815.962	28767
816.103	28535
816.244	28561
816.385	28401
816.526	28253
816.666	28230
816.807	28067
816.948	28261
817.089	28268
817.23	28253
817.371	28196
817.512	28101
817.653	28128
817.793	28154
817.934	28036
818.075	28261
818.216	28128
818.356	27979
818.497	28013
818.638	27899
818.778	27945
818.919	27884
819.06	27884
819.2	28116
819.341	28131
819.481	28116
819.622	28246
819.762	28390
819.903	28481
820.043	28360
820.184	28299
820.324	28192
820.465	28405
820.605	28169
820.746	28322
820.886	28131
821.026	28325
821.167	28124
821.307	28325
821.447	28234
821.588	28048
821.728	27880
821.868	27800
822.008	27614
822.149	27583
822.289	27652
822.429	27416
822.569	27348
822.709	27363
822.849	27154
822.99	27066
823.13	27138
823.27	27066
823.41	26971
823.55	26838
823.69	26910
823.83	27055
823.97	26902
824.11	26746
824.25	26735
824.389	26769
824.529	26845
824.669	26769
824.809	26872
824.949	26918
825.089	26887
825.228	26899
825.368	26640
825.508	26686
825.648	26632
825.787	26796
825.927	26750
826.067	26693
826.206	26716
826.346	26937
826.485	26686
826.625	26640
826.765	26777
826.904	26765
827.044	26545
827.183	26355
827.323	26385
827.462	26389
827.601	26324
827.741	26298
827.88	26381
828.02	26305
828.159	26278
828.298	26389
828.437	26385
828.577	26286
828.716	26495
828.855	26370
828.994	26081
829.134	26031
829.273	26126
829.412	25997
829.551	25974
829.69	26020
829.829	26092
829.968	26111
830.107	26164
830.246	26039
830.385	26134
830.524	25944
830.663	25951
830.802	25769
830.941	25651
831.08	25559
831.219	25822
831.357	25750
831.496	25860
831.635	25696
831.774	25457
831.913	25601
832.051	25468
832.19	25388
832.329	25575
832.467	25312
832.606	25362
832.744	25426
832.883	25369
833.022	25335
833.16	25266
833.299	25518
833.437	25266
833.576	25518
833.714	25354
833.852	25445
833.991	25388
834.129	25457
834.267	25491
834.406	25422
834.544	25396
834.682	25483
834.821	25434
834.959	25643
835.097	25270
835.235	25544
835.373	25407
835.511	25491
835.65	25103
835.788	25259
835.926	25110
836.064	25053
836.202	25148
836.34	25266
836.478	25339
836.615	25145
836.753	25198
836.891	25194
837.029	25247
837.167	25145
837.305	25091
837.443	25027
837.58	25023
837.718	24992
837.856	25027
837.993	25065
838.131	25031
838.269	25015
838.406	25076
838.544	24878
838.681	24798
838.819	24612
838.956	24559
839.094	24517
839.231	24604
839.369	24612
839.506	25012
839.643	24840
839.781	24490
839.918	24433
840.055	24540
840.193	24505
840.33	24292
840.467	24521
840.604	24532
840.742	24711
840.879	24376
841.016	24403
841.153	24159
841.29	24585
841.427	24441
841.564	24479
841.701	24490
841.838	24342
841.975	24361
842.112	24311
842.249	24384
842.385	24228
842.522	24224
842.659	24239
842.796	24194
842.933	24205
843.069	24034
843.206	24152
843.343	24194
843.479	24190
843.616	24083
843.752	23927
843.889	24057
844.025	24163
844.162	23859
844.298	23999
844.435	24117
844.571	23999
844.708	23897
844.844	24087
844.98	24030
845.117	24015
845.253	23961
845.389	23794
845.525	23775
845.661	23863
845.798	23710
845.934	23786
846.07	23581
846.206	23668
846.342	23684
846.478	23668
846.614	23501
846.75	23376
846.886	23326
847.022	23383
847.158	23398
847.294	23440
847.429	23448
847.565	23463
847.701	23665
847.837	23143
847.972	23048
848.108	23235
848.244	23174
848.379	23033
848.515	23098
848.65	22968
848.786	23025
848.921	23037
849.057	23143
849.192	23162
849.328	23060
849.463	23025
849.598	22995
849.734	22835
849.869	22782
850.004	22797
850.14	22782
850.275	22892
850.41	22618
850.545	22736
850.68	22778
850.815	22771
850.95	22767
851.085	22896
851.22	22858
851.355	22812
851.49	22698
851.625	22755
851.76	22649
851.895	22630
852.03	22683
852.165	22812
852.299	22915
852.434	22793
852.569	22748
852.703	22816
852.838	22755
852.973	22877
853.107	22858
853.242	22805
853.376	22523
853.511	22436
853.645	22603
853.78	22653
853.914	22508
854.048	22516
854.183	22550
854.317	22508
854.451	22820
854.585	22618
854.72	22569
854.854	22592
854.988	22485
855.122	22580
855.256	22554
855.39	22622
855.524	22569
855.658	22717
855.792	22626
855.926	22603
856.06	22584
856.194	22577
856.327	22573
856.461	22497
856.595	22599
856.729	22592
856.862	22622
856.996	22626
857.13	22569
857.263	22675
857.397	22557
857.53	22542
857.664	22626
857.797	22592
857.931	22710
858.064	22500
858.197	22763
858.331	22538
858.464	22641
858.597	22432
858.731	22622
858.864	22417
858.997	22497
859.13	22481
859.263	22519
859.396	22664
859.529	22603
859.662	22634
859.795	22542
859.928	22634
860.061	22630
860.194	22812
860.327	22641
860.46	22565
860.592	22771
860.725	22729
860.858	22782
860.99	22535
861.123	22729
861.256	22516
861.388	22603
861.521	23307
861.653	22424
861.786	22230
861.918	22367
862.05	22402
862.183	22455
862.315	22485
862.447	22546
862.58	22493
862.712	22325
862.844	22204
862.976	22265
863.108	22306
863.24	22721
863.372	22303
863.504	22314
863.636	22356
863.768	22242
863.9	22207
864.032	22310
864.164	22162
864.296	22177
864.428	22291
864.559	22329
864.691	22367
864.823	22200
864.954	22344
865.086	22185
865.217	22177
865.349	22090
865.48	22101
865.612	22188
865.743	22246
865.875	22310
866.006	22067
866.137	22173
866.269	22192
866.4	22173
866.531	22097
866.662	22196
866.793	22093
866.924	22059
867.055	22010
867.186	22055
867.317	22010
867.448	22036
867.579	22051
867.71	22013
867.841	22109
867.972	22097
868.103	22097
868.233	22010
868.364	22135
868.495	22139
868.625	22215
868.756	22386
868.886	22154
869.017	22322
869.147	22474
869.278	22390
869.408	22382
869.539	22360
869.669	22436
869.799	22379
869.929	22402
870.06	22470
870.19	22672
870.32	22508
870.45	22653
870.58	22729
870.71	22831
870.84	22828
870.97	22687
871.1	22645
871.23	22843
871.36	22892
871.489	22740
871.619	22915
871.749	22930
871.879	22927
872.008	23113
872.138	22949
872.267	22900
872.397	22759
872.526	22618
872.656	22786
872.785	22919
872.915	22923
873.044	23079
873.173	22915
873.303	22919
873.432	22976
873.561	22892
873.69	23079
873.819	22957
873.948	22987
874.077	22877
874.206	22972
874.335	22885
874.464	23140
874.593	23185
874.722	23071
874.851	23254
874.979	23227
875.108	23162
875.237	23189
875.365	23105
875.494	23208
875.623	23189
875.751	23098
875.88	23048
876.008	23208
876.136	23372
876.265	23425
876.393	23672
876.521	23676
876.65	23638
876.778	23387
876.906	23471
877.034	23474
877.162	23581
877.29	23417
877.418	23410
877.546	23649
877.674	23512
877.802	23543
877.93	23425
878.058	23581
878.185	23410
878.313	23535
878.441	23524
878.568	23315
878.696	23315
878.824	23547
878.951	23547
879.079	23665
879.206	23707
879.333	23661
879.461	23463
879.588	23604
879.715	23726
879.842	23817
879.97	23642
880.097	23398
880.224	23387
880.351	23299
880.478	23345
880.605	23254
880.732	23341
880.859	23471
880.986	23376
881.112	23326
881.239	23147
881.366	23090
881.493	22934
881.619	22881
881.746	22816
881.872	22892
881.999	22790
882.125	22763
882.252	22904
882.378	22850
882.505	23003
882.631	22615
882.757	22733
882.883	22668
883.01	22557
883.136	22436
883.262	22367
883.388	22611
883.514	22561
883.64	22546
883.766	22451
883.892	22337
884.018	22303
884.143	22428
884.269	22538
884.395	22131
884.52	22139
884.646	22147
884.772	22181
884.897	22082
885.023	22112
885.148	22268
885.274	22303
885.399	22215
885.524	22192
885.65	22204
885.775	22181
885.9	22048
886.025	22284
886.15	22162
886.275	22226
886.4	22044
886.525	22249
886.65	22036
886.775	22082
886.9	22352
887.025	22295
887.149	22078
887.274	21926
887.399	21949
887.523	21846
887.648	21937
887.773	21880
887.897	22029
888.021	22025
888.146	21846
888.27	22010
888.395	21983
888.519	22021
888.643	22025
888.767	22021
888.891	21823
889.015	21713
889.139	21937
889.263	21781
889.387	21785
889.511	21880
889.635	21812
889.759	21641
889.883	21698
890.006	21739
890.13	21892
890.254	21568
890.377	21599
890.501	21485
890.624	21469
890.748	21542
890.871	21302
890.995	21135
891.118	21142
891.241	21287
891.364	21393
891.488	21302
891.611	21351
891.734	21256
891.857	21279
891.98	21317
892.103	21367
892.226	21310
892.349	21169
892.471	21169
892.594	21199
892.717	21214
892.839	21214
892.962	21192
893.085	21226
893.207	21066
893.33	20967
893.452	21116
893.575	21169
893.697	21203
893.819	21329
893.941	21386
894.064	21313
894.186	21081
894.308	21070
894.43	21161
894.552	21173
894.674	21237
894.796	21062
894.918	21104
895.04	21077
895.161	21203
895.283	21157
895.405	20998
895.526	21154
895.648	21085
895.769	21230
895.891	21180
896.012	21195
896.134	21131
896.255	21241
896.376	21127
896.498	21157
896.619	21135
896.74	21142
896.861	21287
896.982	21462
897.103	21561
897.224	21374
897.345	21363
897.466	21317
897.587	21336
897.708	21530
897.828	21466
897.949	21351
898.07	21173
898.19	21203
898.311	21370
898.431	21287
898.552	21230
898.672	21507
898.792	21428
898.913	21291
899.033	21131
899.153	21180
899.273	21013
899.393	21028
899.513	20998
899.633	20994
899.753	21104
899.873	20975
899.993	21123
900.113	20895
900.232	21001
900.352	21017
900.472	20716
900.591	20804
900.711	20739
900.83	20781
900.95	20910
901.069	20960
901.189	20663
901.308	20457
901.427	20328
901.546	20343
901.665	20332
901.784	20408
901.904	20328
902.023	20069
902.141	20012
902.26	19932
902.379	19986
902.498	19928
902.617	19852
902.735	19970
902.854	19864
902.973	19822
903.091	19556
903.21	19483
903.328	19594
903.446	19548
903.565	19282
903.683	19301
903.801	19327
903.919	19266
904.038	19232
904.156	19168
904.274	19148
904.392	19076
904.51	19069
904.627	19065
904.745	18989
904.863	19103
904.981	18958
905.098	18795
905.216	18760
905.334	18829
905.451	18776
905.569	18814
905.686	18878
905.803	18833
905.921	18604
906.038	18623
906.155	18563
906.272	18433
906.389	18555
906.506	18285
906.623	18281
906.74	18281
906.857	18072
906.974	18251
907.091	18323
907.208	18334
907.324	18228
907.441	18106
907.557	18117
907.674	17973
907.79	17916
907.907	17920
908.023	18098
908.139	18121
908.256	17954
908.372	17874
908.488	17707
908.604	17695
908.72	17691
908.836	17752
908.952	17718
909.068	17714
909.184	17775
909.3	17623
909.415	17767
909.531	17668
909.647	17429
909.762	17372
909.878	17372
909.993	17421
910.108	17417
910.224	17326
910.339	17326
910.454	17189
910.57	17204
910.685	17052
910.8	17315
910.915	17356
911.03	17124
911.145	16972
911.259	17025
911.374	17025
911.489	16942
911.604	16889
911.718	16668
911.833	16820
911.947	16694
912.062	16508
912.176	16713
912.291	16736
912.405	16672
912.519	16957
912.633	16858
912.748	16767
912.862	16672
912.976	16577
913.09	16398
913.204	16535
913.318	16485
913.431	16538
913.545	16527
913.659	16588
913.772	16409
913.886	16386
914	16394
914.113	16455
914.226	16409
914.34	16272
914.453	16287
914.566	16352
914.68	16211
914.793	16135
914.906	15934
915.019	15865
915.132	15926
915.245	15907
915.358	15964
915.47	15937
915.583	15789
915.696	15949
915.809	16082
915.921	16120
916.034	15785
916.146	15778
916.259	15854
916.371	15850
916.483	15823
916.595	15732
916.708	15781
916.82	15736
916.932	15656
917.044	15755
917.156	15660
917.268	15553
917.38	15572
917.491	15557
917.603	15500
917.715	15584
917.826	15606
917.938	15507
918.049	15336
918.161	15564
918.272	15564
918.384	15519
918.495	15473
918.606	15382
918.717	15203
918.828	15321
918.939	15256
919.05	15157
919.161	15230
919.272	15127
919.383	15081
919.494	15325
919.604	15439
919.715	15302
919.826	15161
919.936	15165
920.047	15287
920.157	15245
920.267	15424
920.378	15291
920.488	15173
920.598	15374
920.708	15519
920.818	15348
920.928	15374
921.038	15599
921.148	15545
921.258	15226
921.368	14971
921.477	15097
921.587	14872
921.697	14857
921.806	14925
921.916	14800
922.025	14594
922.134	14564
922.244	14461
922.353	14606
922.462	14438
922.571	14412
922.68	14248
922.789	14210
922.898	14183
923.007	14240
923.116	14305
923.224	14286
923.333	14191
923.442	14111
923.55	14016
923.659	14065
923.767	14096
923.876	14012
923.984	14054
924.092	13913
924.201	14035
924.309	13967
924.417	13978
924.525	13871
924.633	13883
924.741	14617
924.849	13647
924.956	13856
925.064	13750
925.172	13613
925.279	13636
925.387	13506
925.494	13605
925.602	13685
925.709	13575
925.816	13472
925.924	13567
926.031	13582
926.138	13491
926.245	13624
926.352	13407
926.459	13529
926.566	13613
926.673	13422
926.779	13396
926.886	13343
926.993	13122
927.099	13042
927.206	13057
927.312	13027
927.419	13175
927.525	13129
927.631	13114
927.737	13004
927.843	12901
927.95	12821
928.056	12890
928.162	13038
928.267	12977
928.373	13514
928.479	13133
928.585	12760
928.69	12882
928.796	13019
928.901	12867
929.007	12722
929.112	12707
929.218	12753
929.323	12715
929.428	12688
929.533	12726
929.638	12528
929.743	12544
929.848	12669
929.953	12582
930.058	12509
930.163	12422
930.267	12342
930.372	12547
930.477	12220
930.581	12498
930.685	12376
930.79	12171
930.894	12224
930.998	12159
931.103	12369
931.207	11939
931.311	11889
931.415	11726
931.519	11532
931.623	11615
