Data from test_V78500241_664.txt Node
Date: Fri Mar 25 15:46:24 CST 2022
User: usil
Spectrometer: V785-0024
Trigger mode: 0
Integration Time (sec): 4.000000E-1
Scans to average: 1
Nonlinearity correction enabled: false
Boxcar width: 0
Storing dark spectrum: false
XAxis mode: Wavelengths
Number of Pixels in Spectrum: 1024
>>>>>Begin Spectral Data<<<<<
801.071	27173
801.214	27009
801.356	26712
801.499	26705
801.641	26518
801.783	26587
801.926	26754
802.068	26522
802.211	26499
802.353	26446
802.496	26138
802.638	26214
802.78	26180
802.923	26214
803.065	26115
803.208	26134
803.35	26237
803.492	26324
803.635	26351
803.777	26271
803.919	26358
804.061	26636
804.204	26252
804.346	26313
804.488	26237
804.63	26415
804.773	26221
804.915	26347
805.057	26453
805.199	26362
805.341	26457
805.483	26564
805.626	26339
805.768	26358
805.91	26336
806.052	26381
806.194	26511
806.336	26575
806.478	26590
806.62	26473
806.762	26507
806.904	26724
807.046	26883
807.188	26845
807.33	26940
807.472	27055
807.614	26834
807.756	26861
807.898	26724
808.04	26765
808.182	26629
808.324	26655
808.465	26823
808.607	26990
808.749	27032
808.891	27116
809.033	27287
809.174	27302
809.316	26975
809.458	27093
809.6	27112
809.741	27161
809.883	27291
810.025	27363
810.166	27298
810.308	27287
810.45	27382
810.591	27237
810.733	27089
810.875	26998
811.016	26883
811.158	26975
811.299	27211
811.441	27275
811.582	27199
811.724	27142
811.865	27013
812.007	27047
812.148	27032
812.29	27074
812.431	27233
812.573	27469
812.714	27450
812.855	27606
812.997	27698
813.138	27686
813.279	27637
813.421	27652
813.562	27488
813.703	27340
813.845	27180
813.986	26929
814.127	26807
814.268	26587
814.41	26769
814.551	26587
814.692	26834
814.833	26590
814.974	26686
815.115	26705
815.256	26613
815.397	26568
815.539	26537
815.68	26465
815.821	26393
815.962	26419
816.103	26549
816.244	26427
816.385	26320
816.526	26191
816.666	26088
816.807	25906
816.948	26103
817.089	26187
817.23	26043
817.371	25925
817.512	25993
817.653	25909
817.793	25940
817.934	25887
818.075	26024
818.216	25917
818.356	25913
818.497	25906
818.638	25776
818.778	25647
818.919	25655
819.06	25677
819.2	25887
819.341	25951
819.481	25944
819.622	26145
819.762	26183
819.903	26221
820.043	26176
820.184	26054
820.324	26058
820.465	26046
820.605	26035
820.746	26039
820.886	25986
821.026	26005
821.167	25970
821.307	26122
821.447	26054
821.588	25898
821.728	25742
821.868	25552
822.008	25453
822.149	25415
822.289	25354
822.429	25152
822.569	25107
822.709	25118
822.849	24951
822.99	25008
823.13	24954
823.27	24932
823.41	24700
823.55	24635
823.69	24814
823.83	24688
823.97	24623
824.11	24513
824.25	24475
824.389	24486
824.529	24513
824.669	24483
824.809	24642
824.949	24650
825.089	24764
825.228	24589
825.368	24384
825.508	24456
825.648	24460
825.787	24323
825.927	24646
826.067	24361
826.206	24346
826.346	24407
826.485	24334
826.625	24361
826.765	24547
826.904	24338
827.044	24159
827.183	23977
827.323	24114
827.462	24152
827.601	24087
827.741	24095
827.88	24140
828.02	23927
828.159	24213
828.298	24133
828.437	24194
828.577	24038
828.716	24266
828.855	24038
828.994	23745
829.134	23726
829.273	23821
829.412	23653
829.551	23866
829.69	23882
829.829	23843
829.968	23885
830.107	24007
830.246	23775
830.385	23824
830.524	23680
830.663	23509
830.802	23554
830.941	23395
831.08	23497
831.219	23642
831.357	23383
831.496	23668
831.635	23425
831.774	23406
831.913	23216
832.051	23174
832.19	23136
832.329	23208
832.467	23094
832.606	23071
832.744	23018
832.883	23094
833.022	23041
833.16	23128
833.299	23132
833.437	23124
833.576	23155
833.714	23010
833.852	23212
833.991	23200
834.129	23353
834.267	23151
834.406	23166
834.544	23181
834.682	23155
834.821	23090
834.959	23284
835.097	23113
835.235	23254
835.373	23143
835.511	23147
835.65	22915
835.788	23018
835.926	22873
836.064	22812
836.202	22778
836.34	22934
836.478	23052
836.615	23018
836.753	22999
836.891	23056
837.029	23029
837.167	22862
837.305	22805
837.443	22843
837.58	22847
837.718	22946
837.856	22957
837.993	22763
838.131	22713
838.269	22687
838.406	22797
838.544	22607
838.681	22432
838.819	22478
838.956	22360
839.094	22443
839.231	22424
839.369	22493
839.506	22607
839.643	22489
839.781	22352
839.918	22192
840.055	22382
840.193	22310
840.33	22188
840.467	22291
840.604	22291
840.742	22451
840.879	22181
841.016	22219
841.153	22181
841.29	22352
841.427	22223
841.564	22246
841.701	22265
841.838	21994
841.975	22230
842.112	22139
842.249	22029
842.385	22048
842.522	22188
842.659	22013
842.796	21979
842.933	22059
843.069	22006
843.206	21899
843.343	22078
843.479	22063
843.616	21994
843.752	21762
843.889	21690
844.025	21934
844.162	21789
844.298	21895
844.435	21755
844.571	21705
844.708	21895
844.844	21979
844.98	21949
845.117	21972
845.253	21819
845.389	21644
845.525	21633
845.661	21629
845.798	21462
845.934	21622
846.07	21580
846.206	21500
846.342	21587
846.478	21618
846.614	21416
846.75	21214
846.886	21218
847.022	21348
847.158	21252
847.294	21275
847.429	21317
847.565	21161
847.701	21504
847.837	21051
847.972	20929
848.108	21085
848.244	20998
848.379	20845
848.515	20804
848.65	20838
848.786	20899
848.921	20815
849.057	21028
849.192	20925
849.328	20963
849.463	20667
849.598	20872
849.734	20838
849.869	20678
850.004	20587
850.14	20575
850.275	20716
850.41	20480
850.545	20571
850.68	20511
850.815	20663
850.95	20556
851.085	20804
851.22	20640
851.355	20511
851.49	20454
851.625	20678
851.76	20598
851.895	20560
852.03	20476
852.165	20590
852.299	20583
852.434	20636
852.569	20678
852.703	20625
852.838	20568
852.973	20765
853.107	20689
853.242	20602
853.376	20492
853.511	20320
853.645	20393
853.78	20533
853.914	20442
854.048	20366
854.183	20400
854.317	20454
854.451	20697
854.585	20503
854.72	20366
854.854	20556
854.988	20351
855.122	20473
855.256	20294
855.39	20408
855.524	20545
855.658	20499
855.792	20446
855.926	20427
856.06	20507
856.194	20469
856.327	20431
856.461	20415
856.595	20256
856.729	20404
856.862	20575
856.996	20336
857.13	20480
857.263	20518
857.397	20488
857.53	20545
857.664	20488
857.797	20518
857.931	20549
858.064	20473
858.197	20598
858.331	20377
858.464	20301
858.597	20282
858.731	20381
858.864	20355
858.997	20450
859.13	20518
859.263	20431
859.396	20530
859.529	20431
859.662	20419
859.795	20317
859.928	20537
860.061	20556
860.194	20590
860.327	20396
860.46	20568
860.592	20526
860.725	20659
860.858	20541
860.99	20454
861.123	20347
861.256	20362
861.388	20484
861.521	20994
861.653	20412
861.786	20195
861.918	20294
862.05	20309
862.183	20495
862.315	20256
862.447	20419
862.58	20328
862.712	20157
862.844	20039
862.976	20088
863.108	20275
863.24	20526
863.372	20107
863.504	20153
863.636	20157
863.768	20168
863.9	20168
864.032	20008
864.164	20138
864.296	20259
864.428	20252
864.559	20317
864.691	20145
864.823	20103
864.954	20119
865.086	20191
865.217	20035
865.349	20039
865.48	20069
865.612	20058
865.743	20202
865.875	20142
866.006	20062
866.137	20024
866.269	20039
866.4	19970
866.531	19993
866.662	20012
866.793	20050
866.924	19936
867.055	19944
867.186	20043
867.317	20005
867.448	19871
867.579	19947
867.71	19837
867.841	19868
867.972	19993
868.103	19993
868.233	19932
868.364	20001
868.495	20092
868.625	20290
868.756	20339
868.886	20122
869.017	20294
869.147	20336
869.278	20396
869.408	20233
869.539	20183
869.669	20328
869.799	20195
869.929	20336
870.06	20412
870.19	20465
870.32	20575
870.45	20514
870.58	20598
870.71	20754
870.84	20788
870.97	20575
871.1	20625
871.23	20769
871.36	20830
871.489	20693
871.619	20838
871.749	20697
871.879	20872
872.008	20921
872.138	20876
872.267	20876
872.397	20667
872.526	20579
872.656	20670
872.785	20659
872.915	20830
873.044	20937
873.173	20800
873.303	20868
873.432	20845
873.561	21051
873.69	20944
873.819	20990
873.948	20990
874.077	20807
874.206	20830
874.335	20952
874.464	20914
874.593	21089
874.722	21077
874.851	21085
874.979	21142
875.108	21230
875.237	20921
875.365	21017
875.494	21066
875.623	21154
875.751	21005
875.88	21074
876.008	21287
876.136	21294
876.265	21496
876.393	21576
876.521	21610
876.65	21690
876.778	21580
876.906	21458
877.034	21329
877.162	21435
877.29	21462
877.418	21336
877.546	21500
877.674	21447
877.802	21542
877.93	21496
878.058	21496
878.185	21264
878.313	21382
878.441	21481
878.568	21298
878.696	21386
878.824	21485
878.951	21603
879.079	21610
879.206	21766
879.333	21644
879.461	21485
879.588	21587
879.715	21625
879.842	21549
879.97	21637
880.097	21287
880.224	21230
880.351	21389
880.478	21256
880.605	21306
880.732	21264
880.859	21553
880.986	21283
881.112	21325
881.239	21203
881.366	20994
881.493	20941
881.619	20823
881.746	20845
881.872	20899
881.999	20697
882.125	20899
882.252	20933
882.378	20902
882.505	20948
882.631	20731
882.757	20583
882.883	20625
883.01	20598
883.136	20434
883.262	20522
883.388	20393
883.514	20560
883.64	20556
883.766	20514
883.892	20374
884.018	20381
884.143	20587
884.269	20560
884.395	20374
884.52	20138
884.646	20336
884.772	20343
884.897	20138
885.023	20221
885.148	20286
885.274	20408
885.399	20336
885.524	20107
885.65	20256
885.775	20301
885.9	20225
886.025	20320
886.15	20317
886.275	20115
886.4	20183
886.525	20130
886.65	20164
886.775	20092
886.9	20400
887.025	20423
887.149	20240
887.274	20046
887.399	20043
887.523	20092
887.648	19970
887.773	19845
887.897	20039
888.021	20081
888.146	20046
888.27	20046
888.395	20050
888.519	20027
888.643	19883
888.767	19974
888.891	19902
889.015	19856
889.139	19818
889.263	19811
889.387	19955
889.511	20020
889.635	19993
889.759	19742
889.883	19925
890.006	19845
890.13	19925
890.254	19647
890.377	19791
890.501	19655
890.624	19628
890.748	19651
890.871	19590
890.995	19293
891.118	19308
891.241	19377
891.364	19419
891.488	19613
891.611	19324
891.734	19552
891.857	19403
891.98	19354
892.103	19373
892.226	19457
892.349	19335
892.471	19209
892.594	19346
892.717	19495
892.839	19251
892.962	19365
893.085	19392
893.207	19285
893.33	19160
893.452	19369
893.575	19301
893.697	19316
893.819	19499
893.941	19578
894.064	19324
894.186	19213
894.308	19206
894.43	19354
894.552	19487
894.674	19453
894.796	19202
894.918	19293
895.04	19316
895.161	19350
895.283	19381
895.405	19232
895.526	19384
895.648	19304
895.769	19308
895.891	19415
896.012	19282
896.134	19411
896.255	19483
896.376	19206
896.498	19388
896.619	19487
896.74	19369
896.861	19411
896.982	19723
897.103	19761
897.224	19571
897.345	19662
897.466	19491
897.587	19495
897.708	19746
897.828	19613
897.949	19525
898.07	19483
898.19	19582
898.311	19628
898.431	19601
898.552	19696
898.672	19613
898.792	19548
898.913	19628
899.033	19476
899.153	19381
899.273	19285
899.393	19388
899.513	19327
899.633	19464
899.753	19407
899.873	19392
899.993	19304
900.113	19244
900.232	19422
900.352	19225
900.472	19168
900.591	19050
900.711	19202
900.83	18993
900.95	19198
901.069	19183
901.189	19038
901.308	18859
901.427	18684
901.546	18837
901.665	18711
901.784	18684
901.904	18540
902.023	18532
902.141	18323
902.26	18365
902.379	18334
902.498	18266
902.617	18190
902.735	18289
902.854	18121
902.973	18148
903.091	17980
903.21	17920
903.328	17821
903.446	17771
903.565	17775
903.683	17809
903.801	17695
903.919	17684
904.038	17714
904.156	17497
904.274	17687
904.392	17524
904.51	17459
904.627	17566
904.745	17581
904.863	17551
904.981	17280
905.098	17280
905.216	17220
905.334	17216
905.451	17208
905.569	17140
905.686	17265
905.803	17212
905.921	17045
906.038	17094
906.155	16999
906.272	16953
906.389	16915
906.506	16774
906.623	16679
906.74	16850
906.857	16626
906.974	16683
907.091	16771
907.208	16809
907.324	16687
907.441	16611
907.557	16611
907.674	16527
907.79	16497
907.907	16436
908.023	16523
908.139	16508
908.256	16360
908.372	16329
908.488	16295
908.604	16234
908.72	16131
908.836	16219
908.952	16192
909.068	16253
909.184	16253
909.3	16242
909.415	16173
909.531	16158
909.647	15838
909.762	15979
909.878	15892
909.993	15907
910.108	15911
910.224	15835
910.339	15793
910.454	15766
910.57	15876
910.685	15660
910.8	15884
910.915	15823
911.03	15595
911.145	15542
911.259	15519
911.374	15542
911.489	15359
911.604	15370
911.718	15230
911.833	15218
911.947	15211
912.062	15074
912.176	15340
912.291	15104
912.405	15252
912.519	15454
912.633	15393
912.748	15294
912.862	15260
912.976	15100
913.09	15032
913.204	15043
913.318	15077
913.431	15176
913.545	15116
913.659	15218
913.772	15032
913.886	14921
914	14891
914.113	14910
914.226	14960
914.34	14944
914.453	14876
914.566	14979
914.68	14727
914.793	14705
914.906	14507
915.019	14488
915.132	14492
915.245	14549
915.358	14473
915.47	14541
915.583	14415
915.696	14514
915.809	14545
915.921	14708
916.034	14511
916.146	14480
916.259	14351
916.371	14503
916.483	14438
916.595	14396
916.708	14328
916.82	14301
916.932	14309
917.044	14358
917.156	14229
917.268	14301
917.38	14240
917.491	14164
917.603	14199
917.715	14145
917.826	14244
917.938	14214
918.049	14027
918.161	14119
918.272	14221
918.384	14252
918.495	14092
918.606	13955
918.717	13970
918.828	13993
918.939	14043
919.05	13894
919.161	13879
919.272	13746
919.383	13902
919.494	14039
919.604	14202
919.715	14043
919.826	13856
919.936	13898
920.047	14103
920.157	13947
920.267	14195
920.378	13951
920.488	13871
920.598	14088
920.708	14275
920.818	14005
920.928	14176
921.038	14263
921.148	14275
921.258	13864
921.368	13856
921.477	13712
921.587	13731
921.697	13620
921.806	13616
921.916	13521
922.025	13350
922.134	13388
922.244	13194
922.353	13396
922.462	13198
922.571	13187
922.68	13031
922.789	12951
922.898	12973
923.007	12989
923.116	13110
923.224	12852
923.333	12875
923.442	12897
923.55	12719
923.659	12848
923.767	12920
923.876	12650
923.984	12875
924.092	12821
924.201	12787
924.309	12764
924.417	12719
924.525	12665
924.633	12688
924.741	13426
924.849	12521
924.956	12502
925.064	12376
925.172	12372
925.279	12403
925.387	12441
925.494	12414
925.602	12574
925.709	12547
925.816	12395
925.924	12448
926.031	12502
926.138	12353
926.245	12418
926.352	12308
926.459	12467
926.566	12426
926.673	12308
926.779	12251
926.886	12182
926.993	12022
927.099	12038
927.206	12003
927.312	11992
927.419	12110
927.525	12030
927.631	12095
927.737	11954
927.843	11939
927.95	11904
928.056	11836
928.162	11927
928.267	11973
928.373	12426
928.479	11984
928.585	11737
928.69	11866
928.796	11767
928.901	11737
929.007	11505
929.112	11790
929.218	11672
929.323	11707
929.428	11585
929.533	11786
929.638	11535
929.743	11562
929.848	11623
929.953	11505
930.058	11364
930.163	11299
930.267	11265
930.372	11436
930.477	11239
930.581	11429
930.685	11330
930.79	11250
930.894	11250
930.998	11143
931.103	11318
931.207	10953
931.311	10915
931.415	10820
931.519	10558
931.623	10584
