Data from test_V78500241_2956.txt Node
Date: Fri Mar 25 16:02:16 CST 2022
User: usil
Spectrometer: V785-0024
Trigger mode: 0
Integration Time (sec): 4.000000E-1
Scans to average: 1
Nonlinearity correction enabled: false
Boxcar width: 0
Storing dark spectrum: false
XAxis mode: Wavelengths
Number of Pixels in Spectrum: 1024
>>>>>Begin Spectral Data<<<<<
801.071	28816
801.214	28603
801.356	28516
801.499	28432
801.641	28352
801.783	28409
801.926	28565
802.068	28329
802.211	28337
802.353	28215
802.496	28032
802.638	28139
802.78	27892
802.923	27979
803.065	27895
803.208	28025
803.35	28067
803.492	28158
803.635	28192
803.777	28177
803.919	28299
804.061	28649
804.204	28325
804.346	28173
804.488	28090
804.63	28257
804.773	28055
804.915	28386
805.057	28428
805.199	28379
805.341	28550
805.483	28447
805.626	28360
805.768	28375
805.91	28394
806.052	28626
806.194	28344
806.336	28527
806.478	28386
806.62	28519
806.762	28508
806.904	28702
807.046	29067
807.188	28847
807.33	28904
807.472	29025
807.614	28930
807.756	28767
807.898	28691
808.04	28683
808.182	28645
808.324	28999
808.465	28847
808.607	28915
808.749	29170
808.891	29334
809.033	29311
809.174	29227
809.316	29105
809.458	29109
809.6	29143
809.741	29315
809.883	29204
810.025	29452
810.166	29353
810.308	29387
810.45	29493
810.591	29356
810.733	29288
810.875	29159
811.016	29060
811.158	29079
811.299	29212
811.441	29303
811.582	29261
811.724	29109
811.865	29128
812.007	29136
812.148	29124
812.29	29212
812.431	29246
812.573	29482
812.714	29509
812.855	29764
812.997	29680
813.138	29965
813.279	29862
813.421	29695
813.562	29672
813.703	29566
813.845	29372
813.986	29079
814.127	28991
814.268	28881
814.41	28980
814.551	28919
814.692	28938
814.833	28850
814.974	28896
815.115	28866
815.256	28774
815.397	28782
815.539	28683
815.68	28634
815.821	28546
815.962	28706
816.103	28653
816.244	28615
816.385	28447
816.526	28489
816.666	28211
816.807	28196
816.948	28325
817.089	28204
817.23	28280
817.371	28223
817.512	28299
817.653	28204
817.793	28044
817.934	28226
818.075	28200
818.216	28124
818.356	28211
818.497	28124
818.638	27876
818.778	27907
818.919	27998
819.06	28101
819.2	28051
819.341	28234
819.481	28188
819.622	28455
819.762	28588
819.903	28550
820.043	28356
820.184	28280
820.324	28181
820.465	28417
820.605	28455
820.746	28246
820.886	28215
821.026	28276
821.167	28185
821.307	28287
821.447	28265
821.588	28074
821.728	27930
821.868	27888
822.008	27755
822.149	27595
822.289	27652
822.429	27549
822.569	27427
822.709	27401
822.849	27367
822.99	27165
823.13	27161
823.27	27062
823.41	26937
823.55	26750
823.69	27085
823.83	26944
823.97	27013
824.11	26758
824.25	26739
824.389	26830
824.529	26956
824.669	26762
824.809	26948
824.949	26967
825.089	26815
825.228	26910
825.368	26693
825.508	26667
825.648	26743
825.787	26693
825.927	26735
826.067	26602
826.206	26609
826.346	26636
826.485	26804
826.625	26750
826.765	26902
826.904	26716
827.044	26480
827.183	26556
827.323	26309
827.462	26450
827.601	26317
827.741	26317
827.88	26351
828.02	26301
828.159	26324
828.298	26385
828.437	26301
828.577	26278
828.716	26590
828.855	26404
828.994	26115
829.134	26081
829.273	26134
829.412	26142
829.551	26035
829.69	25913
829.829	26138
829.968	26142
830.107	26256
830.246	26096
830.385	26027
830.524	26065
830.663	25906
830.802	25875
830.941	25734
831.08	25643
831.219	25791
831.357	25780
831.496	25860
831.635	25723
831.774	25639
831.913	25666
832.051	25552
832.19	25377
832.329	25510
832.467	25392
832.606	25476
832.744	25381
832.883	25289
833.022	25381
833.16	25301
833.299	25483
833.437	25476
833.576	25373
833.714	25514
833.852	25525
833.991	25495
834.129	25464
834.267	25457
834.406	25540
834.544	25506
834.682	25445
834.821	25339
834.959	25635
835.097	25426
835.235	25495
835.373	25510
835.511	25426
835.65	25324
835.788	25327
835.926	25209
836.064	25019
836.202	25103
836.34	25324
836.478	25434
836.615	25175
836.753	25282
836.891	25316
837.029	25206
837.167	25304
837.305	25122
837.443	25133
837.58	25099
837.718	25240
837.856	25069
837.993	25027
838.131	25088
838.269	24989
838.406	24894
838.544	24795
838.681	24776
838.819	24776
838.956	24551
839.094	24475
839.231	24616
839.369	24757
839.506	24981
839.643	24905
839.781	24547
839.918	24452
840.055	24509
840.193	24418
840.33	24376
840.467	24517
840.604	24544
840.742	24707
840.879	24365
841.016	24334
841.153	24342
841.29	24502
841.427	24433
841.564	24544
841.701	24365
841.838	24327
841.975	24350
842.112	24426
842.249	24247
842.385	24254
842.522	24471
842.659	24357
842.796	24426
842.933	24148
843.069	24144
843.206	24182
843.343	24338
843.479	24239
843.616	24197
843.752	23973
843.889	23984
844.025	24079
844.162	24045
844.298	23980
844.435	23859
844.571	23950
844.708	24026
844.844	24136
844.98	24159
845.117	24053
845.253	23885
845.389	23802
845.525	23923
845.661	23973
845.798	23748
845.934	23714
846.07	23726
846.206	23638
846.342	23836
846.478	23710
846.614	23585
846.75	23547
846.886	23379
847.022	23474
847.158	23440
847.294	23440
847.429	23429
847.565	23478
847.701	23604
847.837	23132
847.972	23162
848.108	23197
848.244	23410
848.379	23025
848.515	23105
848.65	22923
848.786	23151
848.921	23105
849.057	23212
849.192	23132
849.328	23083
849.463	22999
849.598	22896
849.734	23018
849.869	22911
850.004	22869
850.14	22889
850.275	22809
850.41	22736
850.545	22752
850.68	22740
850.815	22759
850.95	22752
851.085	23003
851.22	22885
851.355	22900
851.49	22790
851.625	22755
851.76	22611
851.895	22782
852.03	22733
852.165	22854
852.299	22824
852.434	22809
852.569	22797
852.703	22763
852.838	22854
852.973	22911
853.107	22866
853.242	22839
853.376	22561
853.511	22675
853.645	22580
853.78	22702
853.914	22645
854.048	22596
854.183	22554
854.317	22721
854.451	22904
854.585	22611
854.72	22675
854.854	22679
854.988	22588
855.122	22603
855.256	22474
855.39	22668
855.524	22687
855.658	22565
855.792	22717
855.926	22584
856.06	22725
856.194	22759
856.327	22630
856.461	22550
856.595	22554
856.729	22653
856.862	22687
856.996	22691
857.13	22626
857.263	22748
857.397	22782
857.53	22588
857.664	22535
857.797	22710
857.931	22706
858.064	22580
858.197	22721
858.331	22508
858.464	22500
858.597	22527
858.731	22611
858.864	22538
858.997	22546
859.13	22538
859.263	22679
859.396	22687
859.529	22649
859.662	22508
859.795	22622
859.928	22733
860.061	22748
860.194	22835
860.327	22793
860.46	22561
860.592	22908
860.725	22782
860.858	22668
860.99	22622
861.123	22531
861.256	22554
861.388	22675
861.521	23376
861.653	22402
861.786	22329
861.918	22402
862.05	22557
862.183	22557
862.315	22554
862.447	22649
862.58	22478
862.712	22409
862.844	22333
862.976	22451
863.108	22382
863.24	22873
863.372	22257
863.504	22303
863.636	22318
863.768	22329
863.9	22280
864.032	22276
864.164	22367
864.296	22310
864.428	22424
864.559	22550
864.691	22390
864.823	22421
864.954	22276
865.086	22234
865.217	22223
865.349	22048
865.48	22211
865.612	22185
865.743	22257
865.875	22291
866.006	22185
866.137	22162
866.269	22318
866.4	22131
866.531	22124
866.662	22093
866.793	22124
866.924	22036
867.055	22109
867.186	22204
867.317	22082
867.448	22059
867.579	22192
867.71	22010
867.841	22070
867.972	22177
868.103	22074
868.233	21998
868.364	22044
868.495	22249
868.625	22405
868.756	22527
868.886	22363
869.017	22314
869.147	22516
869.278	22470
869.408	22455
869.539	22394
869.669	22535
869.799	22382
869.929	22512
870.06	22500
870.19	22793
870.32	22596
870.45	22774
870.58	22778
870.71	22786
870.84	22961
870.97	22843
871.1	22729
871.23	22961
871.36	23029
871.489	22843
871.619	22892
871.749	23094
871.879	23064
872.008	23083
872.138	22995
872.267	23025
872.397	22862
872.526	22869
872.656	22824
872.785	22885
872.915	23029
873.044	23083
873.173	22995
873.303	23041
873.432	23121
873.561	23075
873.69	22934
873.819	23048
873.948	23025
874.077	23056
874.206	22991
874.335	23010
874.464	23124
874.593	23341
874.722	23155
874.851	23155
874.979	23181
875.108	23235
875.237	23200
875.365	23121
875.494	23151
875.623	23197
875.751	23159
875.88	23250
876.008	23307
876.136	23330
876.265	23661
876.393	23756
876.521	23676
876.65	23745
876.778	23638
876.906	23592
877.034	23520
877.162	23611
877.29	23482
877.418	23535
877.546	23619
877.674	23528
877.802	23501
877.93	23482
878.058	23497
878.185	23322
878.313	23459
878.441	23520
878.568	23448
878.696	23467
878.824	23589
878.951	23589
879.079	23707
879.206	23866
879.333	23596
879.461	23672
879.588	23687
879.715	23653
879.842	23794
879.97	23570
880.097	23417
880.224	23349
880.351	23433
880.478	23436
880.605	23391
880.732	23277
880.859	23741
880.986	23349
881.112	23417
881.239	23364
881.366	23277
881.493	23041
881.619	22919
881.746	23052
881.872	22968
881.999	22824
882.125	22892
882.252	23010
882.378	23010
882.505	22919
882.631	22843
882.757	22668
882.883	22725
883.01	22653
883.136	22626
883.262	22447
883.388	22451
883.514	22588
883.64	22607
883.766	22500
883.892	22325
884.018	22356
884.143	22637
884.269	22672
884.395	22280
884.52	22318
884.646	22284
884.772	22131
884.897	22124
885.023	22318
885.148	22268
885.274	22242
885.399	22360
885.524	22253
885.65	22207
885.775	22249
885.9	22154
886.025	22348
886.15	22428
886.275	22105
886.4	22112
886.525	22185
886.65	22314
886.775	22040
886.9	22394
887.025	22489
887.149	22131
887.274	22082
887.399	21937
887.523	21994
887.648	21884
887.773	21968
887.897	22029
888.021	22021
888.146	21964
888.27	21949
888.395	22177
888.519	22002
888.643	21922
888.767	21956
888.891	21956
889.015	21641
889.139	21888
889.263	21800
889.387	21945
889.511	21873
889.635	21949
889.759	21770
889.883	21876
890.006	21861
890.13	21857
890.254	21705
890.377	21701
890.501	21431
890.624	21447
890.748	21538
890.871	21386
890.995	21408
891.118	21157
891.241	21351
891.364	21287
891.488	21268
891.611	21294
891.734	21317
891.857	21306
891.98	21370
892.103	21344
892.226	21344
892.349	21298
892.471	21184
892.594	21252
892.717	21195
892.839	21195
892.962	21260
893.085	21279
893.207	21188
893.33	21165
893.452	21085
893.575	21176
893.697	21173
893.819	21443
893.941	21382
894.064	21302
894.186	21013
894.308	21157
894.43	21180
894.552	21245
894.674	21192
894.796	21119
894.918	21188
895.04	21195
895.161	21203
895.283	21211
895.405	21108
895.526	21241
895.648	21207
895.769	21195
895.891	21192
896.012	21283
896.134	21283
896.255	21165
896.376	21104
896.498	21252
896.619	21264
896.74	21036
896.861	21222
896.982	21473
897.103	21580
897.224	21481
897.345	21435
897.466	21405
897.587	21367
897.708	21416
897.828	21412
897.949	21268
898.07	21268
898.19	21302
898.311	21568
898.431	21287
898.552	21230
898.672	21431
898.792	21401
898.913	21401
899.033	21256
899.153	21108
899.273	21051
899.393	21104
899.513	21127
899.633	21123
899.753	21058
899.873	21085
899.993	21131
900.113	21074
900.232	20975
900.352	20967
900.472	21093
900.591	20971
900.711	20887
900.83	20765
900.95	20880
901.069	20944
901.189	20785
901.308	20522
901.427	20415
901.546	20438
901.665	20556
901.784	20423
901.904	20278
902.023	20229
902.141	20054
902.26	19989
902.379	19982
902.498	20092
902.617	19959
902.735	20008
902.854	19894
902.973	19818
903.091	19613
903.21	19658
903.328	19506
903.446	19540
903.565	19476
903.683	19445
903.801	19304
903.919	19396
904.038	19369
904.156	19133
904.274	19324
904.392	19175
904.51	19141
904.627	19099
904.745	19255
904.863	19183
904.981	18947
905.098	18772
905.216	18878
905.334	18867
905.451	18753
905.569	18711
905.686	18829
905.803	18817
905.921	18582
906.038	18726
906.155	18711
906.272	18585
906.389	18544
906.506	18433
906.623	18399
906.74	18311
906.857	18220
906.974	18277
907.091	18399
907.208	18486
907.324	18311
907.441	18197
907.557	18159
907.674	18098
907.79	18079
907.907	17950
908.023	17999
908.139	18098
908.256	18026
908.372	17950
908.488	17882
908.604	17748
908.72	17714
908.836	17798
908.952	17775
909.068	17756
909.184	17767
909.3	17775
909.415	17802
909.531	17786
909.647	17585
909.762	17592
909.878	17528
909.993	17455
910.108	17433
910.224	17425
910.339	17478
910.454	17303
910.57	17303
910.685	17189
910.8	17299
910.915	17421
911.03	17231
911.145	17193
911.259	17003
911.374	16995
911.489	16881
911.604	16892
911.718	16793
911.833	16831
911.947	16580
912.062	16607
912.176	16710
912.291	16778
912.405	16752
912.519	16984
912.633	16953
912.748	16904
912.862	16793
912.976	16615
913.09	16447
913.204	16535
913.318	16580
913.431	16679
913.545	16725
913.659	16717
913.772	16519
913.886	16386
914	16478
914.113	16405
914.226	16421
914.34	16405
914.453	16211
914.566	16314
914.68	16219
914.793	16173
914.906	16082
915.019	15926
915.132	15884
915.245	15895
915.358	16040
915.47	15953
915.583	15941
915.696	15861
915.809	15972
915.921	16063
916.034	15915
916.146	15846
916.259	15823
916.371	15854
916.483	15956
916.595	15854
916.708	15854
916.82	15797
916.932	15720
917.044	15739
917.156	15709
917.268	15542
917.38	15656
917.491	15542
917.603	15496
917.715	15705
917.826	15584
917.938	15412
918.049	15389
918.161	15641
918.272	15622
918.384	15660
918.495	15553
918.606	15302
918.717	15340
918.828	15298
918.939	15329
919.05	15249
919.161	15386
919.272	15161
919.383	15154
919.494	15329
919.604	15500
919.715	15291
919.826	15199
919.936	15275
920.047	15332
920.157	15260
920.267	15458
920.378	15241
920.488	15268
920.598	15431
920.708	15587
920.818	15401
920.928	15431
921.038	15561
921.148	15504
921.258	15142
921.368	15093
921.477	14994
921.587	15017
921.697	14834
921.806	15020
921.916	14956
922.025	14773
922.134	14625
922.244	14602
922.353	14689
922.462	14484
922.571	14461
922.68	14271
922.789	14199
922.898	14183
923.007	14244
923.116	14244
923.224	14267
923.333	14145
923.442	14096
923.55	14065
923.659	14088
923.767	14138
923.876	13974
923.984	14062
924.092	13982
924.201	14008
924.309	13993
924.417	14012
924.525	13875
924.633	13864
924.741	14667
924.849	13655
924.956	13788
925.064	13765
925.172	13605
925.279	13540
925.387	13651
925.494	13643
925.602	13833
925.709	13734
925.816	13556
925.924	13586
926.031	13597
926.138	13544
926.245	13632
926.352	13453
926.459	13613
926.566	13586
926.673	13464
926.779	13411
926.886	13369
926.993	13156
927.099	13168
927.206	13133
927.312	13145
927.419	13213
927.525	13168
927.631	13198
927.737	13057
927.843	12989
927.95	12901
928.056	12947
928.162	13004
928.267	13072
928.373	13655
928.479	13019
928.585	12837
928.69	12924
928.796	12932
928.901	12814
929.007	12681
929.112	12802
929.218	12776
929.323	12730
929.428	12730
929.533	12772
929.638	12574
929.743	12688
929.848	12700
929.953	12662
930.058	12467
930.163	12251
930.267	12445
930.372	12452
930.477	12315
930.581	12578
930.685	12330
930.79	12148
930.894	12273
930.998	12201
931.103	12380
931.207	12049
931.311	11912
931.415	11809
931.519	11596
931.623	11680
