Data from test_V78500241_2397.txt Node
Date: Fri Mar 25 15:58:24 CST 2022
User: usil
Spectrometer: V785-0024
Trigger mode: 0
Integration Time (sec): 4.000000E-1
Scans to average: 1
Nonlinearity correction enabled: false
Boxcar width: 0
Storing dark spectrum: false
XAxis mode: Wavelengths
Number of Pixels in Spectrum: 1024
>>>>>Begin Spectral Data<<<<<
801.071	28869
801.214	28733
801.356	28577
801.499	28538
801.641	28398
801.783	28417
801.926	28417
802.068	28394
802.211	28306
802.353	28287
802.496	28124
802.638	27998
802.78	28048
802.923	28006
803.065	27945
803.208	28055
803.35	28185
803.492	28268
803.635	28276
803.777	28230
803.919	28356
804.061	28664
804.204	28413
804.346	28238
804.488	28318
804.63	28295
804.773	28265
804.915	28466
805.057	28523
805.199	28284
805.341	28325
805.483	28405
805.626	28523
805.768	28276
805.91	28542
806.052	28588
806.194	28478
806.336	28550
806.478	28485
806.62	28615
806.762	28660
806.904	28694
807.046	29056
807.188	28923
807.33	28999
807.472	29022
807.614	28820
807.756	28987
807.898	28873
808.04	28710
808.182	28755
808.324	28900
808.465	28862
808.607	28961
808.749	29109
808.891	29200
809.033	29303
809.174	29254
809.316	29162
809.458	29128
809.6	29044
809.741	29356
809.883	29330
810.025	29596
810.166	29497
810.308	29433
810.45	29398
810.591	29254
810.733	29284
810.875	29083
811.016	29071
811.158	29083
811.299	29117
811.441	29307
811.582	29288
811.724	29265
811.865	29170
812.007	29277
812.148	29159
812.29	29303
812.431	29159
812.573	29497
812.714	29615
812.855	29577
812.997	29813
813.138	29973
813.279	29904
813.421	29661
813.562	29805
813.703	29459
813.845	29330
813.986	28984
814.127	29064
814.268	28911
814.41	28923
814.551	28858
814.692	28999
814.833	28938
814.974	28911
815.115	28946
815.256	28888
815.397	28843
815.539	28850
815.68	28694
815.821	28607
815.962	28850
816.103	28626
816.244	28691
816.385	28424
816.526	28459
816.666	28360
816.807	28230
816.948	28386
817.089	28363
817.23	28276
817.371	28204
817.512	28169
817.653	28246
817.793	28139
817.934	28181
818.075	28318
818.216	28306
818.356	28162
818.497	28051
818.638	28013
818.778	27998
818.919	28036
819.06	28086
819.2	28287
819.341	28230
819.481	28401
819.622	28432
819.762	28459
819.903	28626
820.043	28466
820.184	28322
820.324	28356
820.465	28367
820.605	28360
820.746	28398
820.886	28207
821.026	28363
821.167	28314
821.307	28272
821.447	28280
821.588	28200
821.728	28112
821.868	27895
822.008	27747
822.149	27770
822.289	27587
822.429	27416
822.569	27416
822.709	27443
822.849	27203
822.99	27233
823.13	27260
823.27	27180
823.41	27020
823.55	26883
823.69	27066
823.83	26998
823.97	26872
824.11	26716
824.25	26933
824.389	26819
824.529	26899
824.669	26876
824.809	26975
824.949	26979
825.089	26918
825.228	26823
825.368	26724
825.508	26834
825.648	26754
825.787	26834
825.927	26853
826.067	26720
826.206	26716
826.346	26883
826.485	26686
826.625	26632
826.765	26880
826.904	26735
827.044	26507
827.183	26480
827.323	26328
827.462	26594
827.601	26408
827.741	26484
827.88	26587
828.02	26309
828.159	26381
828.298	26434
828.437	26533
828.577	26400
828.716	26533
828.855	26328
828.994	26309
829.134	26122
829.273	26286
829.412	26138
829.551	26122
829.69	26191
829.829	26317
829.968	26259
830.107	26168
830.246	26103
830.385	26180
830.524	26031
830.663	25940
830.802	25776
830.941	25727
831.08	25715
831.219	25738
831.357	25734
831.496	25944
831.635	25811
831.774	25693
831.913	25651
832.051	25514
832.19	25571
832.329	25525
832.467	25533
832.606	25354
832.744	25369
832.883	25479
833.022	25479
833.16	25422
833.299	25445
833.437	25419
833.576	25590
833.714	25464
833.852	25495
833.991	25518
834.129	25620
834.267	25628
834.406	25396
834.544	25521
834.682	25632
834.821	25438
834.959	25746
835.097	25407
835.235	25441
835.373	25377
835.511	25430
835.65	25388
835.788	25209
835.926	25171
836.064	25122
836.202	25190
836.34	25213
836.478	25362
836.615	25084
836.753	25274
836.891	25343
837.029	25225
837.167	25190
837.305	25164
837.443	25263
837.58	24962
837.718	25228
837.856	25012
837.993	25008
838.131	25168
838.269	25152
838.406	24939
838.544	25057
838.681	24890
838.819	24817
838.956	24642
839.094	24559
839.231	24665
839.369	24776
839.506	25027
839.643	24886
839.781	24551
839.918	24513
840.055	24612
840.193	24521
840.33	24414
840.467	24483
840.604	24612
840.742	24783
840.879	24422
841.016	24456
841.153	24380
841.29	24612
841.427	24490
841.564	24532
841.701	24464
841.838	24517
841.975	24292
842.112	24216
842.249	24410
842.385	24346
842.522	24395
842.659	24201
842.796	24114
842.933	24171
843.069	24163
843.206	24140
843.343	24285
843.479	24277
843.616	24136
843.752	24133
843.889	24072
844.025	24197
844.162	24007
844.298	24038
844.435	24079
844.571	24079
844.708	24041
844.844	24152
844.98	24167
845.117	24098
845.253	23893
845.389	23992
845.525	23958
845.661	23946
845.798	23691
845.934	23805
846.07	23813
846.206	23745
846.342	23882
846.478	23649
846.614	23657
846.75	23474
846.886	23459
847.022	23474
847.158	23493
847.294	23501
847.429	23551
847.565	23440
847.701	23600
847.837	23193
847.972	23147
848.108	23242
848.244	23288
848.379	23044
848.515	23102
848.65	23041
848.786	23003
848.921	23037
849.057	23166
849.192	23277
849.328	23018
849.463	23044
849.598	23033
849.734	22904
849.869	22946
850.004	22725
850.14	22763
850.275	22869
850.41	22793
850.545	22843
850.68	22839
850.815	22877
850.95	22889
851.085	22953
851.22	22850
851.355	22858
851.49	22820
851.625	22797
851.76	22797
851.895	22717
852.03	22801
852.165	22900
852.299	22900
852.434	22919
852.569	22824
852.703	22679
852.838	22782
852.973	22938
853.107	22938
853.242	22736
853.376	22485
853.511	22527
853.645	22592
853.78	22763
853.914	22702
854.048	22565
854.183	22645
854.317	22687
854.451	22771
854.585	22717
854.72	22622
854.854	22752
854.988	22481
855.122	22668
855.256	22466
855.39	22687
855.524	22653
855.658	22713
855.792	22634
855.926	22672
856.06	22687
856.194	22691
856.327	22668
856.461	22596
856.595	22565
856.729	22569
856.862	22736
856.996	22694
857.13	22763
857.263	22725
857.397	22588
857.53	22649
857.664	22634
857.797	22824
857.931	22748
858.064	22664
858.197	22725
858.331	22641
858.464	22645
858.597	22569
858.731	22569
858.864	22637
858.997	22554
859.13	22675
859.263	22584
859.396	22736
859.529	22687
859.662	22656
859.795	22550
859.928	22660
860.061	22759
860.194	22843
860.327	22656
860.46	22698
860.592	22653
860.725	22706
860.858	22801
860.99	22584
861.123	22550
861.256	22611
861.388	22573
861.521	23433
861.653	22577
861.786	22432
861.918	22485
862.05	22542
862.183	22436
862.315	22573
862.447	22599
862.58	22531
862.712	22371
862.844	22352
862.976	22386
863.108	22333
863.24	22744
863.372	22242
863.504	22344
863.636	22443
863.768	22284
863.9	22329
864.032	22234
864.164	22314
864.296	22306
864.428	22455
864.559	22379
864.691	22481
864.823	22360
864.954	22344
865.086	22352
865.217	22207
865.349	22173
865.48	22230
865.612	22204
865.743	22306
865.875	22261
866.006	22154
866.137	22268
866.269	22246
866.4	22173
866.531	22109
866.662	22006
866.793	22101
866.924	22109
867.055	22181
867.186	22204
867.317	22173
867.448	22124
867.579	22196
867.71	22116
867.841	22013
867.972	22063
868.103	22112
868.233	22162
868.364	22021
868.495	22363
868.625	22413
868.756	22363
868.886	22276
869.017	22390
869.147	22500
869.278	22557
869.408	22428
869.539	22451
869.669	22508
869.799	22367
869.929	22466
870.06	22485
870.19	22767
870.32	22641
870.45	22687
870.58	22778
870.71	22835
870.84	22835
870.97	22812
871.1	22862
871.23	22866
871.36	22946
871.489	22904
871.619	23071
871.749	23060
871.879	23060
872.008	23071
872.138	22934
872.267	22953
872.397	22835
872.526	22786
872.656	22949
872.785	22828
872.915	23079
873.044	23132
873.173	22976
873.303	22995
873.432	22991
873.561	23151
873.69	22999
873.819	22972
873.948	23022
874.077	22976
874.206	23014
874.335	22995
874.464	22991
874.593	23246
874.722	23200
874.851	23223
874.979	23269
875.108	23197
875.237	23227
875.365	23109
875.494	23067
875.623	23162
875.751	23109
875.88	23296
876.008	23376
876.136	23490
876.265	23653
876.393	23729
876.521	23687
876.65	23600
876.778	23608
876.906	23649
877.034	23539
877.162	23615
877.29	23455
877.418	23554
877.546	23649
877.674	23482
877.802	23611
877.93	23646
878.058	23646
878.185	23387
878.313	23505
878.441	23486
878.568	23303
878.696	23417
878.824	23528
878.951	23592
879.079	23687
879.206	23707
879.333	23722
879.461	23463
879.588	23600
879.715	23794
879.842	23794
879.97	23627
880.097	23265
880.224	23387
880.351	23379
880.478	23334
880.605	23337
880.732	23364
880.859	23554
880.986	23330
881.112	23353
881.239	23254
881.366	23098
881.493	23044
881.619	22938
881.746	23044
881.872	23048
881.999	22957
882.125	22889
882.252	22881
882.378	22816
882.505	23014
882.631	22820
882.757	22679
882.883	22752
883.01	22630
883.136	22542
883.262	22371
883.388	22497
883.514	22615
883.64	22561
883.766	22493
883.892	22432
884.018	22242
884.143	22470
884.269	22577
884.395	22314
884.52	22261
884.646	22238
884.772	22124
884.897	22006
885.023	22265
885.148	22261
885.274	22398
885.399	22360
885.524	22223
885.65	22253
885.775	22276
885.9	22226
886.025	22352
886.15	22249
886.275	22188
886.4	22097
886.525	22139
886.65	22162
886.775	22207
886.9	22360
887.025	22371
887.149	22192
887.274	21979
887.399	22021
887.523	21968
887.648	21922
887.773	21854
887.897	21895
888.021	22048
888.146	21968
888.27	21998
888.395	22086
888.519	21968
888.643	22006
888.767	21934
888.891	21850
889.015	21781
889.139	21789
889.263	21838
889.387	21937
889.511	21854
889.635	21835
889.759	21743
889.883	21804
890.006	21728
890.13	21911
890.254	21648
890.377	21728
890.501	21511
890.624	21542
890.748	21591
890.871	21287
890.995	21386
891.118	21226
891.241	21389
891.364	21370
891.488	21473
891.611	21230
891.734	21218
891.857	21359
891.98	21226
892.103	21393
892.226	21313
892.349	21184
892.471	21218
892.594	21211
892.717	21340
892.839	21165
892.962	21203
893.085	21184
893.207	21393
893.33	21116
893.452	21062
893.575	21260
893.697	21192
893.819	21405
893.941	21412
894.064	21340
894.186	21074
894.308	21173
894.43	21291
894.552	21393
894.674	21291
894.796	21123
894.918	21066
895.04	21081
895.161	21306
895.283	21138
895.405	21051
895.526	21165
895.648	21150
895.769	21268
895.891	21195
896.012	21317
896.134	21283
896.255	21218
896.376	21218
896.498	21112
896.619	21195
896.74	21085
896.861	21112
896.982	21515
897.103	21667
897.224	21420
897.345	21454
897.466	21260
897.587	21397
897.708	21534
897.828	21473
897.949	21374
898.07	21317
898.19	21359
898.311	21462
898.431	21294
898.552	21367
898.672	21424
898.792	21511
898.913	21500
899.033	21214
899.153	21127
899.273	21036
899.393	21024
899.513	21173
899.633	21135
899.753	21207
899.873	21047
899.993	21062
900.113	21066
900.232	21070
900.352	21032
900.472	21077
900.591	20849
900.711	20998
900.83	20914
900.95	20979
901.069	20834
901.189	20762
901.308	20484
901.427	20450
901.546	20362
901.665	20568
901.784	20476
901.904	20309
902.023	20298
902.141	19951
902.26	20035
902.379	19974
902.498	19940
902.617	19997
902.735	19928
902.854	19883
902.973	19864
903.091	19708
903.21	19521
903.328	19628
903.446	19533
903.565	19438
903.683	19426
903.801	19194
903.919	19297
904.038	19411
904.156	19194
904.274	19244
904.392	19027
904.51	18981
904.627	19107
904.745	19190
904.863	19175
904.981	19008
905.098	18894
905.216	18776
905.334	18924
905.451	18928
905.569	18852
905.686	18958
905.803	18692
905.921	18536
906.038	18700
906.155	18646
906.272	18502
906.389	18650
906.506	18281
906.623	18384
906.74	18426
906.857	18258
906.974	18254
907.091	18292
907.208	18410
907.324	18315
907.441	18308
907.557	18148
907.674	18098
907.79	17969
907.907	18034
908.023	18117
908.139	18083
908.256	17977
908.372	17950
908.488	17920
908.604	17779
908.72	17710
908.836	17824
908.952	17775
909.068	17748
909.184	17828
909.3	17756
909.415	17733
909.531	17748
909.647	17520
909.762	17665
909.878	17467
909.993	17490
910.108	17490
910.224	17429
910.339	17425
910.454	17277
910.57	17220
910.685	17124
910.8	17474
910.915	17242
911.03	17345
911.145	17083
911.259	17113
911.374	16942
911.489	17010
911.604	16942
911.718	16763
911.833	16835
911.947	16641
912.062	16649
912.176	16778
912.291	16869
912.405	16755
912.519	16972
912.633	16927
912.748	16706
912.862	16759
912.976	16599
913.09	16455
913.204	16561
913.318	16664
913.431	16664
913.545	16706
913.659	16637
913.772	16519
913.886	16447
914	16459
914.113	16432
914.226	16546
914.34	16504
914.453	16158
914.566	16375
914.68	16238
914.793	16246
914.906	16048
915.019	16013
915.132	15998
915.245	15937
915.358	15926
915.47	15975
915.583	15991
915.696	16021
915.809	16029
915.921	16093
916.034	15865
916.146	15766
916.259	15873
916.371	15926
916.483	15899
916.595	15709
916.708	15762
916.82	15755
916.932	15656
917.044	15679
917.156	15682
917.268	15553
917.38	15572
917.491	15614
917.603	15561
917.715	15561
917.826	15656
917.938	15564
918.049	15405
918.161	15622
918.272	15629
918.384	15648
918.495	15443
918.606	15378
918.717	15218
918.828	15397
918.939	15332
919.05	15169
919.161	15325
919.272	15108
919.383	15142
919.494	15408
919.604	15553
919.715	15306
919.826	15207
919.936	15298
920.047	15378
920.157	15298
920.267	15492
920.378	15291
920.488	15176
920.598	15507
920.708	15526
920.818	15450
920.928	15389
921.038	15622
921.148	15587
921.258	15256
921.368	15188
921.477	15070
921.587	15058
921.697	14883
921.806	14872
921.916	14914
922.025	14716
922.134	14602
922.244	14705
922.353	14644
922.462	14670
922.571	14473
922.68	14301
922.789	14301
922.898	14362
923.007	14301
923.116	14404
923.224	14317
923.333	14317
923.442	14043
923.55	14035
923.659	14134
923.767	14092
923.876	14008
923.984	14153
924.092	14043
924.201	14069
924.309	13928
924.417	13963
924.525	13932
924.633	13940
924.741	14743
924.849	13712
924.956	13875
925.064	13685
925.172	13670
925.279	13734
925.387	13647
925.494	13586
925.602	13731
925.709	13738
925.816	13540
925.924	13601
926.031	13685
926.138	13514
926.245	13681
926.352	13597
926.459	13738
926.566	13708
926.673	13487
926.779	13346
926.886	13514
926.993	13251
927.099	13168
927.206	13209
927.312	13221
927.419	13354
927.525	13206
927.631	13240
927.737	13126
927.843	12985
927.95	12897
928.056	12985
928.162	13015
928.267	13129
928.373	13761
928.479	13042
928.585	12772
928.69	12977
928.796	12954
928.901	12821
929.007	12738
929.112	12882
929.218	12802
929.323	12772
929.428	12753
929.533	12859
929.638	12639
929.743	12730
929.848	12726
929.953	12574
930.058	12498
930.163	12357
930.267	12418
930.372	12555
930.477	12372
930.581	12502
930.685	12403
930.79	12213
930.894	12262
930.998	12201
931.103	12350
931.207	12015
931.311	11939
931.415	11840
931.519	11646
931.623	11634
