Data from test_V78500241_3590.txt Node
Date: Fri Mar 25 16:06:40 CST 2022
User: usil
Spectrometer: V785-0024
Trigger mode: 0
Integration Time (sec): 4.000000E-1
Scans to average: 1
Nonlinearity correction enabled: false
Boxcar width: 0
Storing dark spectrum: false
XAxis mode: Wavelengths
Number of Pixels in Spectrum: 1024
>>>>>Begin Spectral Data<<<<<
801.071	28934
801.214	28759
801.356	28573
801.499	28512
801.641	28401
801.783	28382
801.926	28550
802.068	28306
802.211	28382
802.353	28436
802.496	28128
802.638	28040
802.78	28109
802.923	27907
803.065	27987
803.208	28025
803.35	28219
803.492	28261
803.635	28147
803.777	28215
803.919	28238
804.061	28653
804.204	28398
804.346	28200
804.488	28204
804.63	28500
804.773	28207
804.915	28344
805.057	28478
805.199	28257
805.341	28500
805.483	28459
805.626	28493
805.768	28440
805.91	28367
806.052	28535
806.194	28371
806.336	28858
806.478	28512
806.62	28466
806.762	28588
806.904	28710
807.046	28911
807.188	28976
807.33	28923
807.472	29018
807.614	28744
807.756	29010
807.898	28778
808.04	28713
808.182	28683
808.324	28805
808.465	28850
808.607	29124
808.749	29273
808.891	29235
809.033	29330
809.174	29277
809.316	29166
809.458	29170
809.6	29265
809.741	29220
809.883	29273
810.025	29406
810.166	29501
810.308	29444
810.45	29337
810.591	29471
810.733	29375
810.875	29181
811.016	29197
811.158	29098
811.299	29261
811.441	29436
811.582	29383
811.724	29166
811.865	29181
812.007	29284
812.148	29269
812.29	29239
812.431	29429
812.573	29383
812.714	29687
812.855	29573
812.997	29802
813.138	30022
813.279	29958
813.421	29657
813.562	29710
813.703	29501
813.845	29303
813.986	29185
814.127	29018
814.268	28938
814.41	28892
814.551	28771
814.692	28953
814.833	28873
814.974	28809
815.115	29014
815.256	28755
815.397	28698
815.539	28672
815.68	28771
815.821	28672
815.962	28847
816.103	28733
816.244	28630
816.385	28512
816.526	28535
816.666	28215
816.807	28200
816.948	28333
817.089	28333
817.23	28272
817.371	28112
817.512	28253
817.653	28242
817.793	28044
817.934	28192
818.075	28386
818.216	28261
818.356	28074
818.497	28101
818.638	28105
818.778	27937
818.919	27846
819.06	28010
819.2	28166
819.341	28177
819.481	28188
819.622	28367
819.762	28462
819.903	28443
820.043	28371
820.184	28352
820.324	28375
820.465	28440
820.605	28341
820.746	28253
820.886	28265
821.026	28367
821.167	28360
821.307	28432
821.447	28223
821.588	28215
821.728	28078
821.868	27819
822.008	27781
822.149	27793
822.289	27762
822.429	27367
822.569	27606
822.709	27424
822.849	27237
822.99	27294
823.13	27241
823.27	27108
823.41	27142
823.55	27005
823.69	27047
823.83	27005
823.97	27039
824.11	26929
824.25	26788
824.389	26838
824.529	26963
824.669	26940
824.809	27005
824.949	27036
825.089	26876
825.228	26979
825.368	26708
825.508	26777
825.648	26686
825.787	26921
825.927	26815
826.067	26735
826.206	26864
826.346	26830
826.485	26800
826.625	26773
826.765	26937
826.904	26727
827.044	26602
827.183	26514
827.323	26457
827.462	26648
827.601	26579
827.741	26457
827.88	26571
828.02	26400
828.159	26606
828.298	26328
828.437	26564
828.577	26400
828.716	26575
828.855	26347
828.994	26248
829.134	26244
829.273	26278
829.412	26088
829.551	26100
829.69	26180
829.829	26202
829.968	26259
830.107	26218
830.246	26370
830.385	26084
830.524	26240
830.663	25970
830.802	26062
830.941	25769
831.08	25765
831.219	25811
831.357	25871
831.496	26046
831.635	25769
831.774	25696
831.913	25677
832.051	25647
832.19	25499
832.329	25563
832.467	25518
832.606	25266
832.744	25487
832.883	25457
833.022	25308
833.16	25422
833.299	25487
833.437	25495
833.576	25624
833.714	25556
833.852	25491
833.991	25518
834.129	25674
834.267	25742
834.406	25525
834.544	25567
834.682	25434
834.821	25529
834.959	25666
835.097	25548
835.235	25567
835.373	25403
835.511	25575
835.65	25354
835.788	25441
835.926	25198
836.064	25225
836.202	25152
836.34	25350
836.478	25472
836.615	25251
836.753	25251
836.891	25320
837.029	25445
837.167	25270
837.305	25221
837.443	25137
837.58	25057
837.718	25209
837.856	25187
837.993	25236
838.131	25129
838.269	25038
838.406	25084
838.544	24920
838.681	24817
838.819	24863
838.956	24696
839.094	24703
839.231	24749
839.369	24741
839.506	24970
839.643	24943
839.781	24479
839.918	24597
840.055	24703
840.193	24669
840.33	24570
840.467	24563
840.604	24532
840.742	24913
840.879	24327
841.016	24388
841.153	24422
841.29	24642
841.427	24471
841.564	24498
841.701	24513
841.838	24429
841.975	24353
842.112	24494
842.249	24304
842.385	24213
842.522	24551
842.659	24384
842.796	24361
842.933	24163
843.069	24247
843.206	24114
843.343	24395
843.479	24216
843.616	24140
843.752	24079
843.889	24136
844.025	24228
844.162	24095
844.298	24190
844.435	24110
844.571	23999
844.708	24095
844.844	24190
844.98	24121
845.117	24144
845.253	23908
845.389	23889
845.525	23920
845.661	23889
845.798	23767
845.934	23878
846.07	23851
846.206	23836
846.342	23980
846.478	23745
846.614	23600
846.75	23455
846.886	23535
847.022	23509
847.158	23577
847.294	23509
847.429	23539
847.565	23471
847.701	23695
847.837	23303
847.972	23220
848.108	23280
848.244	23242
848.379	23174
848.515	23067
848.65	23037
848.786	23090
848.921	23181
849.057	23250
849.192	23341
849.328	23086
849.463	23178
849.598	23025
849.734	22892
849.869	22889
850.004	22892
850.14	22904
850.275	22847
850.41	22733
850.545	22862
850.68	22786
850.815	22824
850.95	22854
851.085	23083
851.22	23143
851.355	22915
851.49	22946
851.625	22809
851.76	23014
851.895	22824
852.03	22713
852.165	22839
852.299	22919
852.434	22877
852.569	22839
852.703	22873
852.838	23018
852.973	23033
853.107	22976
853.242	22889
853.376	22672
853.511	22664
853.645	22725
853.78	22771
853.914	22687
854.048	22683
854.183	22546
854.317	22656
854.451	22866
854.585	22698
854.72	22596
854.854	22774
854.988	22649
855.122	22611
855.256	22580
855.39	22668
855.524	22744
855.658	22675
855.792	22687
855.926	22649
856.06	22812
856.194	22778
856.327	22645
856.461	22771
856.595	22626
856.729	22698
856.862	22843
856.996	22748
857.13	22683
857.263	22866
857.397	22752
857.53	22778
857.664	22649
857.797	22755
857.931	22839
858.064	22771
858.197	22752
858.331	22843
858.464	22656
858.597	22550
858.731	22820
858.864	22653
858.997	22569
859.13	22531
859.263	22835
859.396	22786
859.529	22763
859.662	22603
859.795	22752
859.928	22736
860.061	22930
860.194	22915
860.327	22755
860.46	22630
860.592	22744
860.725	22797
860.858	22793
860.99	22748
861.123	22653
861.256	22683
861.388	22759
861.521	23315
861.653	22512
861.786	22504
861.918	22459
862.05	22519
862.183	22637
862.315	22577
862.447	22694
862.58	22630
862.712	22367
862.844	22367
862.976	22478
863.108	22360
863.24	22904
863.372	22409
863.504	22428
863.636	22318
863.768	22363
863.9	22413
864.032	22253
864.164	22223
864.296	22375
864.428	22554
864.559	22341
864.691	22584
864.823	22356
864.954	22481
865.086	22333
865.217	22177
865.349	22284
865.48	22276
865.612	22272
865.743	22413
865.875	22382
866.006	22303
866.137	22322
866.269	22162
866.4	22333
866.531	22097
866.662	22200
866.793	22207
866.924	22265
867.055	22215
867.186	22226
867.317	22223
867.448	22162
867.579	22234
867.71	22261
867.841	22192
867.972	22162
868.103	22219
868.233	22238
868.364	22287
868.495	22211
868.625	22337
868.756	22512
868.886	22417
869.017	22386
869.147	22470
869.278	22561
869.408	22424
869.539	22523
869.669	22356
869.799	22500
869.929	22550
870.06	22538
870.19	22812
870.32	22649
870.45	22710
870.58	22892
870.71	22816
870.84	22869
870.97	22850
871.1	22824
871.23	22980
871.36	22965
871.489	22816
871.619	23006
871.749	23105
871.879	23185
872.008	23083
872.138	22980
872.267	23022
872.397	22858
872.526	22801
872.656	22889
872.785	22786
872.915	22919
873.044	23185
873.173	22999
873.303	23216
873.432	23067
873.561	22991
873.69	22908
873.819	22961
873.948	23124
874.077	23109
874.206	23140
874.335	23025
874.464	23109
874.593	23265
874.722	23242
874.851	23235
874.979	23235
875.108	23299
875.237	23288
875.365	23109
875.494	23288
875.623	23284
875.751	23239
875.88	23330
876.008	23459
876.136	23505
876.265	23619
876.393	23805
876.521	23729
876.65	23707
876.778	23646
876.906	23524
877.034	23630
877.162	23547
877.29	23680
877.418	23562
877.546	23623
877.674	23661
877.802	23615
877.93	23558
878.058	23509
878.185	23406
878.313	23509
878.441	23531
878.568	23444
878.696	23516
878.824	23623
878.951	23611
879.079	23737
879.206	23843
879.333	23737
879.461	23619
879.588	23707
879.715	23767
879.842	23802
879.97	23600
880.097	23474
880.224	23288
880.351	23421
880.478	23505
880.605	23474
880.732	23471
880.859	23528
880.986	23463
881.112	23387
881.239	23284
881.366	23250
881.493	23170
881.619	22919
881.746	23094
881.872	23033
881.999	22816
882.125	22919
882.252	22972
882.378	22999
882.505	23170
882.631	22877
882.757	22702
882.883	22736
883.01	22698
883.136	22710
883.262	22485
883.388	22516
883.514	22675
883.64	22702
883.766	22698
883.892	22436
884.018	22485
884.143	22546
884.269	22542
884.395	22375
884.52	22276
884.646	22211
884.772	22287
884.897	22154
885.023	22348
885.148	22280
885.274	22440
885.399	22314
885.524	22242
885.65	22371
885.775	22306
885.9	22306
886.025	22386
886.15	22314
886.275	22257
886.4	22314
886.525	22188
886.65	22200
886.775	22147
886.9	22287
887.025	22451
887.149	22204
887.274	22048
887.399	22101
887.523	22090
887.648	21979
887.773	21926
887.897	22139
888.021	22017
888.146	21892
888.27	22223
888.395	22131
888.519	21994
888.643	22055
888.767	22017
888.891	21907
889.015	21747
889.139	21865
889.263	21781
889.387	22002
889.511	22002
889.635	21972
889.759	21743
889.883	21831
890.006	21873
890.13	21835
890.254	21717
890.377	21785
890.501	21618
890.624	21511
890.748	21603
890.871	21523
890.995	21310
891.118	21272
891.241	21428
891.364	21340
891.488	21504
891.611	21367
891.734	21393
891.857	21507
891.98	21405
892.103	21454
892.226	21355
892.349	21393
892.471	21199
892.594	21252
892.717	21313
892.839	21146
892.962	21317
893.085	21272
893.207	21245
893.33	21325
893.452	21104
893.575	21355
893.697	21207
893.819	21359
893.941	21439
894.064	21424
894.186	21138
894.308	21233
894.43	21237
894.552	21397
894.674	21351
894.796	21119
894.918	21279
895.04	21199
895.161	21332
895.283	21302
895.405	21230
895.526	21218
895.648	21116
895.769	21161
895.891	21268
896.012	21256
896.134	21317
896.255	21340
896.376	21157
896.498	21195
896.619	21310
896.74	21264
896.861	21359
896.982	21572
897.103	21675
897.224	21523
897.345	21435
897.466	21393
897.587	21473
897.708	21633
897.828	21359
897.949	21386
898.07	21245
898.19	21256
898.311	21431
898.431	21401
898.552	21447
898.672	21534
898.792	21580
898.913	21351
899.033	21275
899.153	21222
899.273	21154
899.393	21199
899.513	21131
899.633	21214
899.753	21138
899.873	21192
899.993	21119
900.113	20998
900.232	21043
900.352	21020
900.472	21131
900.591	20963
900.711	21058
900.83	20891
900.95	21039
901.069	21020
901.189	20838
901.308	20552
901.427	20419
901.546	20575
901.665	20431
901.784	20552
901.904	20396
902.023	20225
902.141	20088
902.26	19951
902.379	19997
902.498	19925
902.617	19928
902.735	20065
902.854	20103
902.973	19871
903.091	19738
903.21	19571
903.328	19677
903.446	19586
903.565	19510
903.683	19468
903.801	19304
903.919	19365
904.038	19411
904.156	19164
904.274	19278
904.392	19270
904.51	19232
904.627	19202
904.745	19213
904.863	19255
904.981	19148
905.098	18856
905.216	18848
905.334	18947
905.451	18989
905.569	18871
905.686	18958
905.803	18886
905.921	18749
906.038	18783
906.155	18688
906.272	18544
906.389	18551
906.506	18490
906.623	18380
906.74	18395
906.857	18247
906.974	18285
907.091	18525
907.208	18433
907.324	18452
907.441	18292
907.557	18095
907.674	18209
907.79	18034
907.907	17977
908.023	18083
908.139	18201
908.256	17973
908.372	17969
908.488	18034
908.604	17824
908.72	17779
908.836	17805
908.952	17752
909.068	17828
909.184	17870
909.3	17729
909.415	17889
909.531	17790
909.647	17490
909.762	17474
909.878	17455
909.993	17509
910.108	17421
910.224	17535
910.339	17376
910.454	17360
910.57	17292
910.685	17265
910.8	17482
910.915	17364
911.03	17227
911.145	17075
911.259	17083
911.374	17048
911.489	16987
911.604	16946
911.718	16812
911.833	16828
911.947	16736
912.062	16630
912.176	16824
912.291	16816
912.405	16824
912.519	16972
912.633	17003
912.748	16885
912.862	16835
912.976	16664
913.09	16504
913.204	16550
913.318	16584
913.431	16713
913.545	16694
913.659	16660
913.772	16531
913.886	16409
914	16363
914.113	16455
914.226	16550
914.34	16402
914.453	16318
914.566	16451
914.68	16299
914.793	16253
914.906	16059
915.019	15876
915.132	15922
915.245	15987
915.358	15972
915.47	16002
915.583	16063
915.696	16021
915.809	16116
915.921	16044
916.034	15873
916.146	15888
916.259	15766
916.371	16017
916.483	15930
916.595	15751
916.708	15842
916.82	15762
916.932	15728
917.044	15838
917.156	15656
917.268	15591
917.38	15625
917.491	15751
917.603	15622
917.715	15625
917.826	15660
917.938	15488
918.049	15355
918.161	15545
918.272	15701
918.384	15656
918.495	15606
918.606	15367
918.717	15313
918.828	15382
918.939	15329
919.05	15211
919.161	15294
919.272	15089
919.383	15222
919.494	15389
919.604	15485
919.715	15317
919.826	15237
919.936	15367
920.047	15348
920.157	15192
920.267	15450
920.378	15279
920.488	15268
920.598	15351
920.708	15568
920.818	15325
920.928	15504
921.038	15606
921.148	15557
921.258	15321
921.368	15169
921.477	15142
921.587	15009
921.697	14880
921.806	15085
921.916	14845
922.025	14788
922.134	14625
922.244	14602
922.353	14693
922.462	14560
922.571	14495
922.68	14271
922.789	14355
922.898	14374
923.007	14286
923.116	14214
923.224	14267
923.333	14183
923.442	14088
923.55	14191
923.659	14123
923.767	14077
923.876	14027
923.984	14199
924.092	13959
924.201	14069
924.309	14031
924.417	14073
924.525	14039
924.633	13936
924.741	14914
924.849	13719
924.956	13860
925.064	13715
925.172	13605
925.279	13628
925.387	13723
925.494	13715
925.602	13780
925.709	13715
925.816	13544
925.924	13609
926.031	13696
926.138	13521
926.245	13586
926.352	13491
926.459	13556
926.566	13601
926.673	13537
926.779	13403
926.886	13362
926.993	13259
927.099	13156
927.206	13156
927.312	13118
927.419	13232
927.525	13126
927.631	13168
927.737	13012
927.843	13053
927.95	12848
928.056	13103
928.162	12985
928.267	13114
928.373	13563
928.479	13107
928.585	12890
928.69	12989
928.796	12989
928.901	12837
929.007	12692
929.112	12817
929.218	12779
929.323	12787
929.428	12662
929.533	12852
929.638	12631
929.743	12620
929.848	12612
929.953	12715
930.058	12631
930.163	12342
930.267	12422
930.372	12532
930.477	12334
930.581	12547
930.685	12418
930.79	12273
930.894	12327
930.998	12262
931.103	12365
931.207	11977
931.311	12019
931.415	11897
931.519	11627
931.623	11657
