Data from test_V78500241_2338.txt Node
Date: Fri Mar 25 15:57:59 CST 2022
User: usil
Spectrometer: V785-0024
Trigger mode: 0
Integration Time (sec): 4.000000E-1
Scans to average: 1
Nonlinearity correction enabled: false
Boxcar width: 0
Storing dark spectrum: false
XAxis mode: Wavelengths
Number of Pixels in Spectrum: 1024
>>>>>Begin Spectral Data<<<<<
801.071	28325
801.214	28325
801.356	28086
801.499	28044
801.641	28029
801.783	27884
801.926	28051
802.068	28006
802.211	28040
802.353	27846
802.496	27641
802.638	27781
802.78	27633
802.923	27610
803.065	27530
803.208	27633
803.35	27629
803.492	27816
803.635	27785
803.777	27789
803.919	27812
804.061	28265
804.204	27914
804.346	27888
804.488	27895
804.63	27930
804.773	27922
804.915	27869
805.057	28021
805.199	27800
805.341	28017
805.483	28097
805.626	28074
805.768	27850
805.91	28139
806.052	28181
806.194	28048
806.336	28177
806.478	28112
806.62	28063
806.762	28139
806.904	28303
807.046	28596
807.188	28405
807.33	28462
807.472	28341
807.614	28459
807.756	28462
807.898	28405
808.04	28234
808.182	28299
808.324	28424
808.465	28641
808.607	28421
808.749	28786
808.891	28858
809.033	28847
809.174	28733
809.316	28888
809.458	28721
809.6	28713
809.741	28904
809.883	28923
810.025	28972
810.166	28873
810.308	29018
810.45	28873
810.591	28965
810.733	28763
810.875	28713
811.016	28634
811.158	28603
811.299	28733
811.441	28900
811.582	29014
811.724	28774
811.865	28729
812.007	28809
812.148	28733
812.29	28839
812.431	29029
812.573	29124
812.714	29006
812.855	29349
812.997	29459
813.138	29501
813.279	29353
813.421	29322
813.562	29083
813.703	29094
813.845	28934
813.986	28736
814.127	28561
814.268	28508
814.41	28474
814.551	28481
814.692	28512
814.833	28367
814.974	28329
815.115	28447
815.256	28223
815.397	28192
815.539	28280
815.68	28147
815.821	28147
815.962	28226
816.103	28306
816.244	28086
816.385	27972
816.526	27937
816.666	27842
816.807	27698
816.948	27751
817.089	27865
817.23	27755
817.371	27736
817.512	27583
817.653	27762
817.793	27652
817.934	27774
818.075	27778
818.216	27739
818.356	27667
818.497	27542
818.638	27511
818.778	27420
818.919	27500
819.06	27538
819.2	27686
819.341	27747
819.481	27679
819.622	27857
819.762	28116
819.903	27934
820.043	27895
820.184	27926
820.324	27888
820.465	27953
820.605	27789
820.746	27724
820.886	27804
821.026	27698
821.167	27724
821.307	27728
821.447	27873
821.588	27538
821.728	27496
821.868	27325
822.008	27340
822.149	27062
822.289	27169
822.429	26956
822.569	26872
822.709	26910
822.849	26674
822.99	26785
823.13	26674
823.27	26560
823.41	26526
823.55	26336
823.69	26499
823.83	26590
823.97	26511
824.11	26381
824.25	26317
824.389	26408
824.529	26507
824.669	26271
824.809	26484
824.949	26495
825.089	26419
825.228	26503
825.368	26313
825.508	26191
825.648	26286
825.787	26180
825.927	26229
826.067	26183
826.206	26058
826.346	26275
826.485	26183
826.625	26233
826.765	26286
826.904	26259
827.044	26107
827.183	26084
827.323	25898
827.462	25959
827.601	26103
827.741	25890
827.88	25917
828.02	25868
828.159	25852
828.298	26073
828.437	26024
828.577	25818
828.716	26081
828.855	25902
828.994	25632
829.134	25632
829.273	25674
829.412	25666
829.551	25647
829.69	25590
829.829	25578
829.968	25689
830.107	25632
830.246	25643
830.385	25571
830.524	25415
830.663	25377
830.802	25304
830.941	25236
831.08	25206
831.219	25396
831.357	25365
831.496	25411
831.635	25228
831.774	25228
831.913	25080
832.051	25080
832.19	25019
832.329	25103
832.467	24890
832.606	24966
832.744	24928
832.883	24939
833.022	24814
833.16	25012
833.299	24901
833.437	24772
833.576	24867
833.714	24905
833.852	25190
833.991	24924
834.129	25095
834.267	25031
834.406	25053
834.544	24970
834.682	25000
834.821	24920
834.959	25053
835.097	24897
835.235	25088
835.373	24989
835.511	24943
835.65	24798
835.788	24741
835.926	24654
836.064	24505
836.202	24540
836.34	24669
836.478	24871
836.615	24738
836.753	24726
836.891	24795
837.029	24802
837.167	24715
837.305	24692
837.443	24692
837.58	24715
837.718	24665
837.856	24563
837.993	24589
838.131	24620
838.269	24570
838.406	24540
838.544	24376
838.681	24353
838.819	24159
838.956	24144
839.094	24102
839.231	24228
839.369	24178
839.506	24391
839.643	24334
839.781	24003
839.918	24072
840.055	24087
840.193	24057
840.33	23901
840.467	24045
840.604	24155
840.742	24197
840.879	23821
841.016	23973
841.153	23954
841.29	24041
841.427	24015
841.564	24045
841.701	24087
841.838	23992
841.975	23817
842.112	23950
842.249	23832
842.385	23710
842.522	23904
842.659	23817
842.796	23786
842.933	23809
843.069	23524
843.206	23722
843.343	23927
843.479	23764
843.616	23714
843.752	23474
843.889	23627
844.025	23676
844.162	23421
844.298	23573
844.435	23501
844.571	23570
844.708	23589
844.844	23646
844.98	23699
845.117	23531
845.253	23459
845.389	23562
845.525	23463
845.661	23345
845.798	23299
845.934	23376
846.07	23212
846.206	23231
846.342	23334
846.478	23159
846.614	23132
846.75	22873
846.886	22881
847.022	23044
847.158	22984
847.294	22995
847.429	22991
847.565	22995
847.701	23265
847.837	22637
847.972	22691
848.108	22752
848.244	22763
848.379	22546
848.515	22516
848.65	22557
848.786	22603
848.921	22626
849.057	22672
849.192	22653
849.328	22649
849.463	22546
849.598	22557
849.734	22386
849.869	22379
850.004	22344
850.14	22508
850.275	22367
850.41	22398
850.545	22299
850.68	22261
850.815	22306
850.95	22181
851.085	22565
851.22	22557
851.355	22402
851.49	22299
851.625	22474
851.76	22242
851.895	22379
852.03	22329
852.165	22322
852.299	22417
852.434	22493
852.569	22474
852.703	22386
852.838	22413
852.973	22508
853.107	22394
853.242	22207
853.376	22314
853.511	22074
853.645	22188
853.78	22139
853.914	22036
854.048	22048
854.183	22116
854.317	22303
854.451	22386
854.585	22185
854.72	22147
854.854	22211
854.988	22063
855.122	22143
855.256	22010
855.39	22109
855.524	22188
855.658	22276
855.792	22139
855.926	22124
856.06	22318
856.194	22166
856.327	22143
856.461	22070
856.595	22051
856.729	22105
856.862	22253
856.996	22154
857.13	22211
857.263	22295
857.397	22249
857.53	22109
857.664	22185
857.797	22234
857.931	22249
858.064	22265
858.197	22257
858.331	22055
858.464	22059
858.597	22063
858.731	22097
858.864	22051
858.997	22025
859.13	22211
859.263	22226
859.396	22413
859.529	22223
859.662	22124
859.795	22166
859.928	22120
860.061	22333
860.194	22329
860.327	22169
860.46	22143
860.592	22249
860.725	22291
860.858	22375
860.99	22192
861.123	22181
861.256	22044
861.388	22230
861.521	22892
861.653	22109
861.786	21865
861.918	22032
862.05	22021
862.183	22002
862.315	22105
862.447	22192
862.58	22013
862.712	21766
862.844	21926
862.976	21930
863.108	21945
863.24	22428
863.372	21861
863.504	21846
863.636	21739
863.768	21892
863.9	21861
864.032	21789
864.164	21827
864.296	21857
864.428	21937
864.559	21975
864.691	21930
864.823	21918
864.954	21850
865.086	21762
865.217	21774
865.349	21713
865.48	21823
865.612	21694
865.743	21827
865.875	21800
866.006	21679
866.137	21793
866.269	21747
866.4	21606
866.531	21580
866.662	21717
866.793	21625
866.924	21717
867.055	21705
867.186	21686
867.317	21572
867.448	21549
867.579	21663
867.71	21580
867.841	21606
867.972	21698
868.103	21507
868.233	21709
868.364	21599
868.495	21770
868.625	21991
868.756	22010
868.886	21888
869.017	21918
869.147	21975
869.278	21998
869.408	22002
869.539	21797
869.669	21922
869.799	21949
869.929	21987
870.06	22128
870.19	22158
870.32	22226
870.45	22196
870.58	22196
870.71	22360
870.84	22470
870.97	22394
871.1	22363
871.23	22512
871.36	22573
871.489	22470
871.619	22508
871.749	22459
871.879	22569
872.008	22694
872.138	22607
872.267	22538
872.397	22500
872.526	22375
872.656	22352
872.785	22386
872.915	22554
873.044	22645
873.173	22554
873.303	22497
873.432	22569
873.561	22641
873.69	22519
873.819	22565
873.948	22641
874.077	22451
874.206	22615
874.335	22432
874.464	22634
874.593	22805
874.722	22911
874.851	22725
874.979	22816
875.108	22759
875.237	22725
875.365	22542
875.494	22740
875.623	22824
875.751	22672
875.88	22896
876.008	22908
876.136	22847
876.265	23212
876.393	23216
876.521	23083
876.65	23155
876.778	23242
876.906	23075
877.034	23090
877.162	23128
877.29	22965
877.418	23128
877.546	22999
877.674	23185
877.802	23041
877.93	23064
878.058	23048
878.185	22953
878.313	23006
878.441	23037
878.568	22908
878.696	22953
878.824	23170
878.951	23037
879.079	23269
879.206	23360
879.333	23349
879.461	23166
879.588	23143
879.715	23277
879.842	23455
879.97	23189
880.097	22930
880.224	22881
880.351	22942
880.478	22858
880.605	22831
880.732	22934
880.859	23140
880.986	22873
881.112	22953
881.239	22854
881.366	22717
881.493	22584
881.619	22557
881.746	22462
881.872	22462
881.999	22508
882.125	22428
882.252	22493
882.378	22523
882.505	22588
882.631	22318
882.757	22173
882.883	22318
883.01	22169
883.136	22036
883.262	21922
883.388	22002
883.514	22124
883.64	22116
883.766	22219
883.892	21960
884.018	22112
884.143	22040
884.269	22093
884.395	21724
884.52	21747
884.646	21846
884.772	21755
884.897	21682
885.023	21918
885.148	21842
885.274	21941
885.399	21865
885.524	21759
885.65	21842
885.775	21918
885.9	21667
886.025	21873
886.15	21846
886.275	21724
886.4	21633
886.525	21770
886.65	21603
886.775	21762
886.9	21759
887.025	22002
887.149	21781
887.274	21679
887.399	21454
887.523	21599
887.648	21515
887.773	21466
887.897	21492
888.021	21667
888.146	21538
888.27	21774
888.395	21652
888.519	21542
888.643	21599
888.767	21538
888.891	21431
889.015	21405
889.139	21420
889.263	21382
889.387	21416
889.511	21507
889.635	21504
889.759	21272
889.883	21306
890.006	21405
890.13	21477
890.254	21260
890.377	21340
890.501	21036
890.624	21062
890.748	21081
890.871	21017
890.995	20842
891.118	20781
891.241	20921
891.364	20944
891.488	21085
891.611	20918
891.734	20891
891.857	21017
891.98	20937
892.103	20963
892.226	20975
892.349	20891
892.471	20602
892.594	20800
892.717	20861
892.839	20842
892.962	20735
893.085	20819
893.207	20830
893.33	20754
893.452	20712
893.575	20750
893.697	20724
893.819	20937
893.941	21055
894.064	20872
894.186	20765
894.308	20575
894.43	20781
894.552	20994
894.674	20872
894.796	20682
894.918	20796
895.04	20819
895.161	20842
895.283	20739
895.405	20689
895.526	20807
895.648	20769
895.769	20834
895.891	20804
896.012	20830
896.134	20777
896.255	20891
896.376	20872
896.498	20891
896.619	20826
896.74	20777
896.861	20845
896.982	21119
897.103	21336
897.224	21100
897.345	20986
897.466	20910
897.587	21047
897.708	21116
897.828	20990
897.949	20872
898.07	20918
898.19	20895
898.311	21093
898.431	20849
898.552	20899
898.672	21039
898.792	21089
898.913	20956
899.033	20887
899.153	20857
899.273	20568
899.393	20796
899.513	20796
899.633	20746
899.753	20739
899.873	20708
899.993	20819
900.113	20754
900.232	20724
900.352	20583
900.472	20556
900.591	20606
900.711	20575
900.83	20339
900.95	20583
901.069	20545
901.189	20385
901.308	20199
901.427	20073
901.546	20001
901.665	20119
901.784	20027
901.904	19883
902.023	19879
902.141	19670
902.26	19677
902.379	19658
902.498	19529
902.617	19620
902.735	19662
902.854	19525
902.973	19483
903.091	19339
903.21	19183
903.328	19301
903.446	19061
903.565	19008
903.683	19126
903.801	18951
903.919	19000
904.038	18996
904.156	18825
904.274	18867
904.392	18741
904.51	18829
904.627	18738
904.745	18821
904.863	18833
904.981	18658
905.098	18448
905.216	18471
905.334	18418
905.451	18597
905.569	18391
905.686	18513
905.803	18369
905.921	18399
906.038	18311
906.155	18251
906.272	18155
906.389	18243
906.506	18003
906.623	18045
906.74	17923
906.857	17939
906.974	17897
907.091	17980
907.208	18174
907.324	18064
907.441	17904
907.557	17764
907.674	17794
907.79	17714
907.907	17813
908.023	17691
908.139	17634
908.256	17695
908.372	17638
908.488	17615
908.604	17471
908.72	17398
908.836	17433
908.952	17356
909.068	17532
909.184	17577
909.3	17417
909.415	17543
909.531	17444
909.647	17193
909.762	17124
909.878	17105
909.993	17220
910.108	17102
910.224	17098
910.339	17033
910.454	16976
910.57	17029
910.685	16713
910.8	17094
910.915	17189
911.03	16919
911.145	16717
911.259	16706
911.374	16634
911.489	16687
911.604	16622
911.718	16451
911.833	16470
911.947	16356
912.062	16204
912.176	16440
912.291	16497
912.405	16466
912.519	16596
912.633	16573
912.748	16523
912.862	16382
912.976	16299
913.09	16333
913.204	16188
913.318	16318
913.431	16466
913.545	16352
913.659	16287
913.772	16207
913.886	16200
914	16044
914.113	16196
914.226	16223
914.34	16147
914.453	15949
914.566	16013
914.68	15899
914.793	15903
914.906	15766
915.019	15675
915.132	15606
915.245	15709
915.358	15633
915.47	15629
915.583	15534
915.696	15652
915.809	15789
915.921	15755
916.034	15572
916.146	15511
916.259	15473
916.371	15610
916.483	15660
916.595	15374
916.708	15526
916.82	15386
916.932	15462
917.044	15507
917.156	15450
917.268	15287
917.38	15245
917.491	15211
917.603	15302
917.715	15310
917.826	15348
917.938	15237
918.049	15138
918.161	15310
918.272	15340
918.384	15348
918.495	15093
918.606	15058
918.717	15104
918.828	15074
918.939	15051
919.05	14937
919.161	15039
919.272	14735
919.383	14895
919.494	15123
919.604	15173
919.715	15093
919.826	14899
919.936	14842
920.047	15058
920.157	14967
920.267	15070
920.378	14967
920.488	14906
920.598	15116
920.708	15249
920.818	15135
920.928	15047
921.038	15150
921.148	15272
921.258	14933
921.368	14750
921.477	14674
921.587	14705
921.697	14590
921.806	14667
921.916	14530
922.025	14343
922.134	14385
922.244	14305
922.353	14347
922.462	14206
922.571	14237
922.68	14058
922.789	13936
922.898	14027
923.007	13799
923.116	14031
923.224	14001
923.333	13978
923.442	13799
923.55	13811
923.659	13921
923.767	13906
923.876	13719
923.984	13799
924.092	13609
924.201	13647
924.309	13757
924.417	13594
924.525	13605
924.633	13605
924.741	14571
924.849	13457
924.956	13491
925.064	13491
925.172	13324
925.279	13320
925.387	13365
925.494	13365
925.602	13514
925.709	13407
925.816	13225
925.924	13358
926.031	13430
926.138	13365
926.245	13396
926.352	13179
926.459	13369
926.566	13297
926.673	13247
926.779	13175
926.886	13046
926.993	12966
927.099	12871
927.206	12947
927.312	12840
927.419	12951
927.525	12837
927.631	12954
927.737	12875
927.843	12848
927.95	12703
928.056	12760
928.162	12738
928.267	12711
928.373	13422
928.479	12741
928.585	12513
928.69	12631
928.796	12711
928.901	12616
929.007	12410
929.112	12589
929.218	12593
929.323	12483
929.428	12391
929.533	12593
929.638	12369
929.743	12357
929.848	12437
929.953	12395
930.058	12262
930.163	12182
930.267	12205
930.372	12285
930.477	12064
930.581	12353
930.685	12152
930.79	12030
930.894	12060
930.998	11999
931.103	12076
931.207	11722
931.311	11688
931.415	11566
931.519	11379
931.623	11387
