Data from test_V78500241_1310.txt Node
Date: Fri Mar 25 15:50:52 CST 2022
User: usil
Spectrometer: V785-0024
Trigger mode: 0
Integration Time (sec): 4.000000E-1
Scans to average: 1
Nonlinearity correction enabled: false
Boxcar width: 0
Storing dark spectrum: false
XAxis mode: Wavelengths
Number of Pixels in Spectrum: 1024
>>>>>Begin Spectral Data<<<<<
801.071	28801
801.214	28763
801.356	28417
801.499	28371
801.641	28398
801.783	28169
801.926	28382
802.068	28116
802.211	28249
802.353	28093
802.496	27987
802.638	27979
802.78	28067
802.923	27964
803.065	27861
803.208	27934
803.35	27941
803.492	28173
803.635	28188
803.777	28090
803.919	28261
804.061	28607
804.204	28318
804.346	28223
804.488	28143
804.63	28223
804.773	28116
804.915	28310
805.057	28466
805.199	28181
805.341	28390
805.483	28462
805.626	28363
805.768	28352
805.91	28428
806.052	28318
806.194	28261
806.336	28523
806.478	28413
806.62	28329
806.762	28478
806.904	28626
807.046	28949
807.188	29003
807.33	28923
807.472	28911
807.614	28691
807.756	28831
807.898	28755
808.04	28793
808.182	28634
808.324	28717
808.465	28679
808.607	28923
808.749	29189
808.891	29200
809.033	29273
809.174	29318
809.316	29208
809.458	29094
809.6	29102
809.741	29121
809.883	29258
810.025	29558
810.166	29334
810.308	29421
810.45	29356
810.591	29254
810.733	29079
810.875	29010
811.016	29018
811.158	28987
811.299	29239
811.441	29273
811.582	29334
811.724	29079
811.865	29140
812.007	29159
812.148	29159
812.29	29185
812.431	29383
812.573	29486
812.714	29646
812.855	29657
812.997	29668
813.138	29908
813.279	29760
813.421	29676
813.562	29676
813.703	29444
813.845	29353
813.986	29086
814.127	29044
814.268	28835
814.41	28911
814.551	28793
814.692	28858
814.833	28786
814.974	28949
815.115	28885
815.256	28809
815.397	28771
815.539	28797
815.68	28622
815.821	28599
815.962	28683
816.103	28569
816.244	28478
816.385	28596
816.526	28455
816.666	28162
816.807	28158
816.948	28322
817.089	28162
817.23	28253
817.371	28284
817.512	28101
817.653	28067
817.793	28032
817.934	28135
818.075	28246
818.216	28185
818.356	28105
818.497	28078
818.638	27850
818.778	27903
818.919	27953
819.06	28013
819.2	28044
819.341	28067
819.481	28112
819.622	28310
819.762	28451
819.903	28523
820.043	28542
820.184	28367
820.324	28242
820.465	28401
820.605	28246
820.746	28234
820.886	28299
821.026	28344
821.167	28211
821.307	28390
821.447	28265
821.588	28086
821.728	28002
821.868	27713
822.008	27747
822.149	27709
822.289	27701
822.429	27363
822.569	27340
822.709	27340
822.849	27127
822.99	27131
823.13	27150
823.27	27096
823.41	27001
823.55	26861
823.69	26891
823.83	26918
823.97	26948
824.11	26880
824.25	26689
824.389	26834
824.529	26811
824.669	26655
824.809	26921
824.949	27028
825.089	26899
825.228	26956
825.368	26735
825.508	26746
825.648	26712
825.787	26727
825.927	26804
826.067	26632
826.206	26621
826.346	26648
826.485	26705
826.625	26682
826.765	26876
826.904	26655
827.044	26579
827.183	26545
827.323	26427
827.462	26518
827.601	26415
827.741	26343
827.88	26465
828.02	26381
828.159	26412
828.298	26552
828.437	26533
828.577	26290
828.716	26419
828.855	26381
828.994	26142
829.134	26043
829.273	26020
829.412	26126
829.551	26077
829.69	25993
829.829	26046
829.968	26202
830.107	26164
830.246	26016
830.385	26005
830.524	26039
830.663	25807
830.802	25670
830.941	25685
831.08	25643
831.219	25776
831.357	25807
831.496	25932
831.635	25715
831.774	25734
831.913	25628
832.051	25518
832.19	25464
832.329	25479
832.467	25304
832.606	25278
832.744	25346
832.883	25289
833.022	25502
833.16	25343
833.299	25411
833.437	25449
833.576	25438
833.714	25381
833.852	25510
833.991	25464
834.129	25624
834.267	25700
834.406	25457
834.544	25377
834.682	25438
834.821	25438
834.959	25529
835.097	25369
835.235	25514
835.373	25422
835.511	25426
835.65	25160
835.788	25225
835.926	25209
836.064	25118
836.202	25065
836.34	25202
836.478	25377
836.615	25320
836.753	25301
836.891	25301
837.029	25422
837.167	25175
837.305	25221
837.443	25160
837.58	25000
837.718	25107
837.856	25190
837.993	24920
838.131	25065
838.269	24859
838.406	25129
838.544	24806
838.681	24677
838.819	24734
838.956	24555
839.094	24467
839.231	24684
839.369	24764
839.506	24928
839.643	24730
839.781	24494
839.918	24498
840.055	24513
840.193	24456
840.33	24479
840.467	24311
840.604	24582
840.742	24730
840.879	24304
841.016	24513
841.153	24285
841.29	24521
841.427	24357
841.564	24467
841.701	24376
841.838	24346
841.975	24369
842.112	24353
842.249	24254
842.385	24117
842.522	24426
842.659	24209
842.796	24076
842.933	24174
843.069	24079
843.206	24174
843.343	24216
843.479	24102
843.616	24251
843.752	24022
843.889	24011
844.025	24228
844.162	23992
844.298	24159
844.435	23977
844.571	23893
844.708	24091
844.844	24076
844.98	24114
845.117	24053
845.253	23832
845.389	23752
845.525	23870
845.661	23741
845.798	23707
845.934	23775
846.07	23570
846.206	23790
846.342	23817
846.478	23764
846.614	23509
846.75	23349
846.886	23406
847.022	23554
847.158	23398
847.294	23246
847.429	23444
847.565	23387
847.701	23691
847.837	23041
847.972	23147
848.108	23197
848.244	23284
848.379	23010
848.515	23105
848.65	23117
848.786	23029
848.921	22999
849.057	23105
849.192	23132
849.328	23025
849.463	23006
849.598	22896
849.734	22854
849.869	22763
850.004	22694
850.14	22694
850.275	22843
850.41	22763
850.545	22763
850.68	22740
850.815	22847
850.95	22801
851.085	22862
851.22	22767
851.355	22706
851.49	22706
851.625	22824
851.76	22733
851.895	22767
852.03	22653
852.165	22763
852.299	22797
852.434	22824
852.569	22778
852.703	22759
852.838	22809
852.973	22778
853.107	22843
853.242	22733
853.376	22569
853.511	22561
853.645	22542
853.78	22592
853.914	22660
854.048	22702
854.183	22538
854.317	22634
854.451	22748
854.585	22565
854.72	22569
854.854	22649
854.988	22440
855.122	22497
855.256	22379
855.39	22615
855.524	22675
855.658	22694
855.792	22691
855.926	22622
856.06	22668
856.194	22744
856.327	22580
856.461	22542
856.595	22443
856.729	22565
856.862	22634
856.996	22675
857.13	22573
857.263	22660
857.397	22706
857.53	22584
857.664	22668
857.797	22554
857.931	22687
858.064	22561
858.197	22615
858.331	22622
858.464	22603
858.597	22516
858.731	22519
858.864	22519
858.997	22538
859.13	22630
859.263	22607
859.396	22630
859.529	22538
859.662	22527
859.795	22557
859.928	22622
860.061	22713
860.194	22774
860.327	22596
860.46	22584
860.592	22649
860.725	22755
860.858	22713
860.99	22500
861.123	22531
861.256	22516
861.388	22637
861.521	23250
861.653	22474
861.786	22447
861.918	22512
862.05	22371
862.183	22470
862.315	22523
862.447	22538
862.58	22485
862.712	22272
862.844	22120
862.976	22493
863.108	22299
863.24	22577
863.372	22291
863.504	22257
863.636	22348
863.768	22428
863.9	22337
864.032	22306
864.164	22215
864.296	22295
864.428	22440
864.559	22352
864.691	22261
864.823	22341
864.954	22215
865.086	22078
865.217	22310
865.349	22112
865.48	22238
865.612	22219
865.743	22299
865.875	22196
866.006	22177
866.137	22109
866.269	22154
866.4	22032
866.531	22158
866.662	22120
866.793	22181
866.924	22158
867.055	22013
867.186	22090
867.317	22067
867.448	22055
867.579	22139
867.71	21945
867.841	21994
867.972	22166
868.103	21975
868.233	21994
868.364	22162
868.495	22226
868.625	22386
868.756	22535
868.886	22291
869.017	22379
869.147	22424
869.278	22462
869.408	22344
869.539	22284
869.669	22516
869.799	22421
869.929	22405
870.06	22424
870.19	22679
870.32	22584
870.45	22641
870.58	22744
870.71	22831
870.84	22774
870.97	22733
871.1	22767
871.23	22793
871.36	23006
871.489	22877
871.619	22839
871.749	22843
871.879	22976
872.008	23025
872.138	23048
872.267	22919
872.397	22915
872.526	22577
872.656	22782
872.785	22725
872.915	23010
873.044	23006
873.173	22869
873.303	22938
873.432	23006
873.561	23025
873.69	22946
873.819	22839
873.948	22965
874.077	22839
874.206	23014
874.335	22881
874.464	23086
874.593	23185
874.722	23140
874.851	23075
874.979	23124
875.108	23223
875.237	23048
875.365	23010
875.494	23124
875.623	23170
875.751	23265
875.88	23098
876.008	23170
876.136	23269
876.265	23566
876.393	23653
876.521	23554
876.65	23558
876.778	23604
876.906	23433
877.034	23307
877.162	23421
877.29	23425
877.418	23490
877.546	23398
877.674	23570
877.802	23376
877.93	23471
878.058	23512
878.185	23261
878.313	23653
878.441	23490
878.568	23303
878.696	23440
878.824	23478
878.951	23608
879.079	23786
879.206	23691
879.333	23657
879.461	23459
879.588	23615
879.715	23562
879.842	23710
879.97	23619
880.097	23299
880.224	23204
880.351	23242
880.478	23288
880.605	23307
880.732	23231
880.859	23512
880.986	23231
881.112	23383
881.239	23098
881.366	23033
881.493	22915
881.619	22828
881.746	22911
881.872	22820
881.999	22858
882.125	22767
882.252	22873
882.378	22854
882.505	23052
882.631	22668
882.757	22546
882.883	22592
883.01	22615
883.136	22424
883.262	22344
883.388	22504
883.514	22508
883.64	22622
883.766	22493
883.892	22276
884.018	22284
884.143	22577
884.269	22440
884.395	22200
884.52	22234
884.646	22143
884.772	22036
884.897	22063
885.023	22223
885.148	22295
885.274	22348
885.399	22139
885.524	22112
885.65	22181
885.775	22124
885.9	22192
886.025	22223
886.15	22234
886.275	22032
886.4	22059
886.525	22112
886.65	21994
886.775	22044
886.9	22295
887.025	22371
887.149	22185
887.274	22040
887.399	21941
887.523	21960
887.648	21850
887.773	21835
887.897	21983
888.021	21956
888.146	21895
888.27	21899
888.395	22162
888.519	21998
888.643	21975
888.767	21934
888.891	21880
889.015	21747
889.139	21804
889.263	21675
889.387	21895
889.511	21785
889.635	21808
889.759	21686
889.883	21633
890.006	21686
890.13	21804
890.254	21622
890.377	21572
890.501	21405
890.624	21416
890.748	21473
890.871	21424
890.995	21241
891.118	21275
891.241	21344
891.364	21252
891.488	21374
891.611	21230
891.734	21214
891.857	21184
891.98	21230
892.103	21249
892.226	21397
892.349	21226
892.471	21032
892.594	21188
892.717	21260
892.839	21169
892.962	21184
893.085	21199
893.207	21138
893.33	21104
893.452	21119
893.575	21207
893.697	21043
893.819	21412
893.941	21344
894.064	21123
894.186	21074
894.308	21180
894.43	21165
894.552	21317
894.674	21176
894.796	21070
894.918	21096
895.04	21131
895.161	21192
895.283	21203
895.405	21165
895.526	21116
895.648	21058
895.769	21070
895.891	21195
896.012	21302
896.134	21169
896.255	21093
896.376	21028
896.498	21127
896.619	21256
896.74	21184
896.861	21275
896.982	21557
897.103	21644
897.224	21443
897.345	21405
897.466	21382
897.587	21329
897.708	21519
897.828	21397
897.949	21401
898.07	21211
898.19	21275
898.311	21424
898.431	21214
898.552	21252
898.672	21469
898.792	21473
898.913	21374
899.033	21173
899.153	21154
899.273	21077
899.393	21104
899.513	21085
899.633	21184
899.753	21074
899.873	20914
899.993	21017
900.113	21051
900.232	21161
900.352	20960
900.472	20811
900.591	20861
900.711	21017
900.83	20720
900.95	20853
901.069	20899
901.189	20777
901.308	20522
901.427	20400
901.546	20446
901.665	20476
901.784	20374
901.904	20233
902.023	20278
902.141	19986
902.26	19894
902.379	19974
902.498	19871
902.617	20016
902.735	19875
902.854	19951
902.973	19841
903.091	19575
903.21	19571
903.328	19571
903.446	19510
903.565	19453
903.683	19381
903.801	19354
903.919	19343
904.038	19301
904.156	19107
904.274	19164
904.392	19148
904.51	19122
904.627	19141
904.745	19114
904.863	19168
904.981	18924
905.098	18787
905.216	18726
905.334	18840
905.451	18741
905.569	18791
905.686	18795
905.803	18726
905.921	18551
906.038	18692
906.155	18604
906.272	18407
906.389	18357
906.506	18380
906.623	18262
906.74	18262
906.857	18251
906.974	18106
907.091	18338
907.208	18350
907.324	18311
907.441	18243
907.557	18072
907.674	18064
907.79	18022
907.907	18038
908.023	18041
908.139	17996
908.256	17935
908.372	17851
908.488	17935
908.604	17718
908.72	17748
908.836	17771
908.952	17638
909.068	17802
909.184	17817
909.3	17672
909.415	17771
909.531	17615
909.647	17368
909.762	17395
909.878	17360
909.993	17467
910.108	17414
910.224	17368
910.339	17455
910.454	17337
910.57	17239
910.685	17132
910.8	17490
910.915	17372
911.03	17223
911.145	17014
911.259	17022
911.374	16915
911.489	16866
911.604	16911
911.718	16847
911.833	16824
911.947	16630
912.062	16584
912.176	16694
912.291	16687
912.405	16717
912.519	16812
912.633	16831
912.748	16763
912.862	16721
912.976	16660
913.09	16459
913.204	16470
913.318	16546
913.431	16668
913.545	16596
913.659	16550
913.772	16485
913.886	16405
914	16352
914.113	16318
914.226	16421
914.34	16344
914.453	16238
914.566	16398
914.68	16105
914.793	16128
914.906	16051
915.019	15941
915.132	15797
915.245	15972
915.358	15937
915.47	15869
915.583	15911
915.696	15861
915.809	15964
915.921	16036
916.034	15876
916.146	15736
916.259	15797
916.371	15888
916.483	15797
916.595	15705
916.708	15720
916.82	15720
916.932	15686
917.044	15705
917.156	15618
917.268	15408
917.38	15488
917.491	15610
917.603	15568
917.715	15580
917.826	15698
917.938	15412
918.049	15458
918.161	15477
918.272	15652
918.384	15553
918.495	15469
918.606	15367
918.717	15230
918.828	15374
918.939	15332
919.05	15093
919.161	15169
919.272	15047
919.383	15089
919.494	15291
919.604	15355
919.715	15249
919.826	15131
919.936	15199
920.047	15245
920.157	15233
920.267	15435
920.378	15195
920.488	15188
920.598	15382
920.708	15534
920.818	15325
920.928	15294
921.038	15450
921.148	15481
921.258	15142
921.368	15138
921.477	14872
921.587	14914
921.697	14823
921.806	14933
921.916	14716
922.025	14644
922.134	14583
922.244	14541
922.353	14598
922.462	14556
922.571	14374
922.68	14164
922.789	14214
922.898	14183
923.007	14153
923.116	14225
923.224	14191
923.333	14187
923.442	14035
923.55	14100
923.659	13967
923.767	14145
923.876	13993
923.984	14111
924.092	13932
924.201	13970
924.309	13909
924.417	13967
924.525	13986
924.633	13909
924.741	14864
924.849	13624
924.956	13822
925.064	13689
925.172	13540
925.279	13597
925.387	13643
925.494	13616
925.602	13738
925.709	13670
925.816	13445
925.924	13537
926.031	13613
926.138	13605
926.245	13681
926.352	13460
926.459	13597
926.566	13662
926.673	13483
926.779	13362
926.886	13331
926.993	13202
927.099	13225
927.206	13194
927.312	13057
927.419	13293
927.525	13103
927.631	13228
927.737	13053
927.843	12966
927.95	12833
928.056	12993
928.162	12928
928.267	13008
928.373	13529
928.479	13050
928.585	12783
928.69	12951
928.796	12954
928.901	12856
929.007	12722
929.112	12760
929.218	12810
929.323	12745
929.428	12715
929.533	12833
929.638	12604
929.743	12692
929.848	12642
929.953	12631
930.058	12582
930.163	12357
930.267	12407
930.372	12547
930.477	12277
930.581	12521
930.685	12479
930.79	12258
930.894	12319
930.998	12167
931.103	12388
931.207	11984
931.311	11901
931.415	11745
931.519	11600
931.623	11524
