Data from test_V78500241_3482.txt Node
Date: Fri Mar 25 16:05:55 CST 2022
User: usil
Spectrometer: V785-0024
Trigger mode: 0
Integration Time (sec): 4.000000E-1
Scans to average: 1
Nonlinearity correction enabled: false
Boxcar width: 0
Storing dark spectrum: false
XAxis mode: Wavelengths
Number of Pixels in Spectrum: 1024
>>>>>Begin Spectral Data<<<<<
801.071	29041
801.214	29010
801.356	28862
801.499	28843
801.641	28618
801.783	28637
801.926	28801
802.068	28717
802.211	28512
802.353	28603
802.496	28405
802.638	28344
802.78	28356
802.923	28329
803.065	28257
803.208	28173
803.35	28413
803.492	28672
803.635	28626
803.777	28588
803.919	28736
804.061	28809
804.204	28725
804.346	28645
804.488	28569
804.63	28691
804.773	28478
804.915	28812
805.057	28892
805.199	28550
805.341	28809
805.483	28763
805.626	28637
805.768	28790
805.91	28915
806.052	28850
806.194	28713
806.336	28900
806.478	28892
806.62	28816
806.762	28984
806.904	29231
807.046	29372
807.188	29197
807.33	29204
807.472	29261
807.614	29204
807.756	29326
807.898	29079
808.04	29086
808.182	28900
808.324	29090
808.465	29231
808.607	29368
808.749	29497
808.891	29566
809.033	29665
809.174	29630
809.316	29471
809.458	29627
809.6	29448
809.741	29646
809.883	29779
810.025	29824
810.166	29767
810.308	29783
810.45	29729
810.591	29756
810.733	29630
810.875	29566
811.016	29493
811.158	29547
811.299	29687
811.441	29699
811.582	29684
811.724	29592
811.865	29531
812.007	29433
812.148	29729
812.29	29821
812.431	29798
812.573	29901
812.714	30034
812.855	30007
812.997	30133
813.138	30254
813.279	30201
813.421	30201
813.562	29992
813.703	29977
813.845	29813
813.986	29478
814.127	29311
814.268	29212
814.41	29311
814.551	29284
814.692	29334
814.833	29174
814.974	29307
815.115	29193
815.256	29246
815.397	29117
815.539	29174
815.68	29086
815.821	28980
815.962	28961
816.103	29181
816.244	28968
816.385	28961
816.526	28835
816.666	28668
816.807	28634
816.948	28618
817.089	28656
817.23	28733
817.371	28531
817.512	28550
817.653	28546
817.793	28596
817.934	28527
818.075	28653
818.216	28554
818.356	28447
818.497	28451
818.638	28344
818.778	28299
818.919	28382
819.06	28432
819.2	28356
819.341	28580
819.481	28847
819.622	28767
819.762	28968
819.903	28927
820.043	28702
820.184	28790
820.324	28649
820.465	28877
820.605	28752
820.746	28778
820.886	28637
821.026	28858
821.167	28615
821.307	28740
821.447	28691
821.588	28535
821.728	28436
821.868	28322
822.008	28128
822.149	28139
822.289	27991
822.429	27808
822.569	27804
822.709	27800
822.849	27713
822.99	27743
823.13	27523
823.27	27534
823.41	27435
823.55	27252
823.69	27473
823.83	27507
823.97	27469
824.11	27264
824.25	27241
824.389	27199
824.529	27275
824.669	27176
824.809	27424
824.949	27317
825.089	27340
825.228	27348
825.368	27135
825.508	27116
825.648	27169
825.787	27180
825.927	27313
826.067	27096
826.206	27146
826.346	27218
826.485	27176
826.625	27066
826.765	27401
826.904	27154
827.044	26887
827.183	27009
827.323	26849
827.462	26933
827.601	26899
827.741	26845
827.88	26876
828.02	26663
828.159	26921
828.298	26857
828.437	27005
828.577	26830
828.716	26998
828.855	26773
828.994	26511
829.134	26511
829.273	26678
829.412	26469
829.551	26442
829.69	26682
829.829	26495
829.968	26492
830.107	26549
830.246	26564
830.385	26568
830.524	26552
830.663	26339
830.802	26324
830.941	26157
831.08	26237
831.219	26271
831.357	26237
831.496	26438
831.635	26149
831.774	26145
831.913	26054
832.051	25925
832.19	25887
832.329	25921
832.467	25909
832.606	25772
832.744	25818
832.883	25696
833.022	25795
833.16	25746
833.299	25780
833.437	25947
833.576	25921
833.714	26001
833.852	26005
833.991	25913
834.129	25936
834.267	25868
834.406	25826
834.544	25936
834.682	25879
834.821	25909
834.959	25974
835.097	25841
835.235	25917
835.373	25769
835.511	25909
835.65	25734
835.788	25655
835.926	25655
836.064	25506
836.202	25445
836.34	25795
836.478	25856
836.615	25712
836.753	25746
836.891	25651
837.029	25704
837.167	25700
837.305	25586
837.443	25472
837.58	25472
837.718	25609
837.856	25571
837.993	25521
838.131	25529
838.269	25362
838.406	25460
838.544	25381
838.681	25160
838.819	25091
838.956	24932
839.094	24871
839.231	25088
839.369	25012
839.506	25415
839.643	25316
839.781	25046
839.918	24894
840.055	24909
840.193	25027
840.33	24920
840.467	24875
840.604	24863
840.742	25084
840.879	24711
841.016	24783
841.153	24772
841.29	24947
841.427	24947
841.564	24886
841.701	24894
841.838	24856
841.975	24837
842.112	24787
842.249	24578
842.385	24730
842.522	24848
842.659	24817
842.796	24525
842.933	24642
843.069	24620
843.206	24471
843.343	24738
843.479	24738
843.616	24585
843.752	24551
843.889	24361
844.025	24616
844.162	24346
844.298	24528
844.435	24342
844.571	24308
844.708	24365
844.844	24608
844.98	24479
845.117	24502
845.253	24456
845.389	24243
845.525	24494
845.661	24330
845.798	24064
845.934	24330
846.07	24068
846.206	24235
846.342	24201
846.478	24129
846.614	23965
846.75	23878
846.886	23939
847.022	23878
847.158	23939
847.294	23840
847.429	23984
847.565	23832
847.701	24022
847.837	23558
847.972	23535
848.108	23802
848.244	23703
848.379	23539
848.515	23459
848.65	23459
848.786	23528
848.921	23444
849.057	23501
849.192	23509
849.328	23452
849.463	23364
849.598	23391
849.734	23322
849.869	23387
850.004	23220
850.14	23288
850.275	23239
850.41	23239
850.545	23083
850.68	23353
850.815	23299
850.95	23261
851.085	23402
851.22	23402
851.355	23227
851.49	23185
851.625	23162
851.76	23121
851.895	23056
852.03	23204
852.165	23037
852.299	23326
852.434	23269
852.569	23140
852.703	23326
852.838	23246
852.973	23372
853.107	23311
853.242	23223
853.376	23025
853.511	22923
853.645	22980
853.78	23124
853.914	23109
854.048	23022
854.183	23086
854.317	23018
854.451	23311
854.585	23102
854.72	23025
854.854	23064
854.988	23018
855.122	22953
855.256	22786
855.39	23041
855.524	23121
855.658	23132
855.792	23132
855.926	23048
856.06	22953
856.194	23242
856.327	23090
856.461	23037
856.595	23025
856.729	23094
856.862	23239
856.996	23117
857.13	23136
857.263	23090
857.397	23010
857.53	23033
857.664	23056
857.797	23079
857.931	23231
858.064	23204
858.197	23239
858.331	23060
858.464	22919
858.597	22869
858.731	23044
858.864	23033
858.997	23090
859.13	23037
859.263	23102
859.396	23162
859.529	23086
859.662	23071
859.795	23052
859.928	23098
860.061	23258
860.194	23246
860.327	23113
860.46	23052
860.592	23212
860.725	23467
860.858	23326
860.99	23181
861.123	22999
861.256	22934
861.388	23044
861.521	23786
861.653	22968
861.786	22972
861.918	22965
862.05	22786
862.183	22938
862.315	23048
862.447	22949
862.58	23048
862.712	22904
862.844	22881
862.976	22835
863.108	22812
863.24	23140
863.372	22645
863.504	22759
863.636	22801
863.768	22873
863.9	22786
864.032	22656
864.164	22702
864.296	22835
864.428	22892
864.559	22820
864.691	22698
864.823	22721
864.954	22877
865.086	22736
865.217	22599
865.349	22588
865.48	22672
865.612	22615
865.743	22873
865.875	22668
866.006	22660
866.137	22675
866.269	22645
866.4	22584
866.531	22561
866.662	22527
866.793	22569
866.924	22546
867.055	22603
867.186	22584
867.317	22687
867.448	22424
867.579	22519
867.71	22497
867.841	22531
867.972	22557
868.103	22607
868.233	22561
868.364	22599
868.495	22637
868.625	22831
868.756	22961
868.886	22641
869.017	22896
869.147	22980
869.278	22953
869.408	22850
869.539	22816
869.669	22961
869.799	22843
869.929	22869
870.06	22946
870.19	23079
870.32	23044
870.45	23105
870.58	23242
870.71	23254
870.84	23311
870.97	23189
871.1	23159
871.23	23356
871.36	23391
871.489	23372
871.619	23364
871.749	23311
871.879	23474
872.008	23482
872.138	23512
872.267	23417
872.397	23204
872.526	23292
872.656	23334
872.785	23220
872.915	23463
873.044	23482
873.173	23330
873.303	23425
873.432	23414
873.561	23577
873.69	23433
873.819	23417
873.948	23482
874.077	23646
874.206	23455
874.335	23292
874.464	23589
874.593	23737
874.722	23573
874.851	23676
874.979	23646
875.108	23657
875.237	23539
875.365	23493
875.494	23653
875.623	23657
875.751	23653
875.88	23695
876.008	23790
876.136	23813
876.265	23980
876.393	24133
876.521	23954
876.65	24102
876.778	24034
876.906	24083
877.034	23927
877.162	24030
877.29	23950
877.418	24072
877.546	23897
877.674	23870
877.802	23973
877.93	24011
878.058	23920
878.185	23847
878.313	23935
878.441	23874
878.568	23779
878.696	23878
878.824	23988
878.951	24030
879.079	24167
879.206	24235
879.333	24087
879.461	24049
879.588	24091
879.715	24076
879.842	24315
879.97	24022
880.097	23710
880.224	23764
880.351	23863
880.478	23836
880.605	23752
880.732	23745
880.859	23893
880.986	23752
881.112	23817
881.239	23653
881.366	23547
881.493	23261
881.619	23364
881.746	23337
881.872	23425
881.999	23326
882.125	23223
882.252	23269
882.378	23223
882.505	23493
882.631	23098
882.757	23132
882.883	23140
883.01	23010
883.136	22892
883.262	22850
883.388	22847
883.514	23025
883.64	23010
883.766	22915
883.892	22702
884.018	22748
884.143	23022
884.269	23029
884.395	22771
884.52	22569
884.646	22664
884.772	22485
884.897	22474
885.023	22683
885.148	22763
885.274	22847
885.399	22744
885.524	22580
885.65	22565
885.775	22713
885.9	22588
886.025	22748
886.15	22626
886.275	22588
886.4	22531
886.525	22596
886.65	22546
886.775	22500
886.9	22683
887.025	22801
887.149	22603
887.274	22421
887.399	22417
887.523	22424
887.648	22246
887.773	22284
887.897	22394
888.021	22443
888.146	22318
888.27	22424
888.395	22462
888.519	22432
888.643	22447
888.767	22474
888.891	22310
889.015	22116
889.139	22242
889.263	22207
889.387	22215
889.511	22386
889.635	22344
889.759	22082
889.883	22253
890.006	22181
890.13	22147
890.254	22196
890.377	22074
890.501	21918
890.624	21842
890.748	21842
890.871	21888
890.995	21717
891.118	21675
891.241	21679
891.364	21542
891.488	21854
891.611	21751
891.734	21698
891.857	21808
891.98	21709
892.103	21751
892.226	21675
892.349	21561
892.471	21523
892.594	21652
892.717	21679
892.839	21587
892.962	21511
893.085	21762
893.207	21549
893.33	21469
893.452	21458
893.575	21663
893.697	21553
893.819	21637
893.941	21819
894.064	21812
894.186	21492
894.308	21443
894.43	21671
894.552	21701
894.674	21633
894.796	21466
894.918	21519
895.04	21466
895.161	21675
895.283	21603
895.405	21424
895.526	21599
895.648	21454
895.769	21587
895.891	21538
896.012	21644
896.134	21561
896.255	21572
896.376	21496
896.498	21610
896.619	21469
896.74	21458
896.861	21728
896.982	21835
897.103	22051
897.224	21823
897.345	21751
897.466	21713
897.587	21679
897.708	21793
897.828	21774
897.949	21564
898.07	21587
898.19	21564
898.311	21857
898.431	21652
898.552	21762
898.672	21835
898.792	21793
898.913	21743
899.033	21580
899.153	21618
899.273	21412
899.393	21504
899.513	21481
899.633	21557
899.753	21462
899.873	21389
899.993	21462
900.113	21412
900.232	21504
900.352	21332
900.472	21317
900.591	21230
900.711	21169
900.83	21127
900.95	21294
901.069	21348
901.189	21062
901.308	20876
901.427	20781
901.546	20823
901.665	20834
901.784	20834
901.904	20594
902.023	20556
902.141	20320
902.26	20355
902.379	20358
902.498	20309
902.617	20309
902.735	20294
902.854	20370
902.973	20111
903.091	19974
903.21	19898
903.328	19925
903.446	19917
903.565	19742
903.683	19757
903.801	19609
903.919	19734
904.038	19597
904.156	19480
904.274	19411
904.392	19457
904.51	19460
904.627	19343
904.745	19533
904.863	19502
904.981	19251
905.098	19114
905.216	19160
905.334	19133
905.451	19023
905.569	19164
905.686	19187
905.803	19129
905.921	18890
906.038	19012
906.155	18916
906.272	18810
906.389	18814
906.506	18715
906.623	18639
906.74	18589
906.857	18559
906.974	18555
907.091	18658
907.208	18791
907.324	18646
907.441	18555
907.557	18372
907.674	18494
907.79	18292
907.907	18319
908.023	18365
908.139	18410
908.256	18376
908.372	18133
908.488	18247
908.604	18095
908.72	18057
908.836	18064
908.952	18057
909.068	18121
909.184	18197
909.3	18079
909.415	18178
909.531	18076
909.647	17916
909.762	17703
909.878	17752
909.993	17783
910.108	17802
910.224	17680
910.339	17760
910.454	17566
910.57	17532
910.685	17463
910.8	17836
910.915	17722
911.03	17554
911.145	17353
911.259	17410
911.374	17356
911.489	17204
911.604	17296
911.718	17079
911.833	17193
911.947	16953
912.062	17045
912.176	17102
912.291	17185
912.405	17064
912.519	17296
912.633	17258
912.748	17147
912.862	17143
912.976	16911
913.09	16797
913.204	16862
913.318	16949
913.431	16858
913.545	16953
913.659	16934
913.772	16778
913.886	16786
914	16698
914.113	16828
914.226	16771
914.34	16744
914.453	16440
914.566	16615
914.68	16523
914.793	16428
914.906	16287
915.019	16253
915.132	16173
915.245	16291
915.358	16177
915.47	16230
915.583	16344
915.696	16116
915.809	16348
915.921	16413
916.034	16139
916.146	16131
916.259	16120
916.371	16226
916.483	16093
916.595	16147
916.708	15979
916.82	16097
916.932	16040
917.044	16078
917.156	15987
917.268	15770
917.38	15865
917.491	15743
917.603	15915
917.715	15892
917.826	15907
917.938	15785
918.049	15564
918.161	15854
918.272	15846
918.384	15895
918.495	15785
918.606	15698
918.717	15599
918.828	15538
918.939	15637
919.05	15603
919.161	15591
919.272	15443
919.383	15443
919.494	15660
919.604	15850
919.715	15587
919.826	15393
919.936	15629
920.047	15542
920.157	15633
920.267	15648
920.378	15519
920.488	15526
920.598	15774
920.708	15728
920.818	15736
920.928	15686
921.038	15884
921.148	15846
921.258	15450
921.368	15428
921.477	15310
921.587	15306
921.697	15188
921.806	15283
921.916	15039
922.025	14979
922.134	14910
922.244	14895
922.353	14914
922.462	14792
922.571	14708
922.68	14617
922.789	14640
922.898	14537
923.007	14431
923.116	14537
923.224	14545
923.333	14415
923.442	14450
923.55	14347
923.659	14347
923.767	14408
923.876	14282
923.984	14294
924.092	14199
924.201	14282
924.309	14278
924.417	14225
924.525	14081
924.633	14183
924.741	14982
924.849	13849
924.956	14069
925.064	14020
925.172	13875
925.279	13898
925.387	13997
925.494	13921
925.602	14092
925.709	13925
925.816	13807
925.924	13902
926.031	13932
926.138	13852
926.245	13753
926.352	13742
926.459	13898
926.566	13898
926.673	13750
926.779	13704
926.886	13582
926.993	13384
927.099	13464
927.206	13415
927.312	13445
927.419	13510
927.525	13487
927.631	13419
927.737	13343
927.843	13263
927.95	13160
928.056	13187
928.162	13244
928.267	13236
928.373	13868
928.479	13327
928.585	13084
928.69	13232
928.796	13198
928.901	13099
929.007	12909
929.112	13107
929.218	13004
929.323	12894
929.428	12943
929.533	13038
929.638	12882
929.743	12806
929.848	12943
929.953	12920
930.058	12738
930.163	12574
930.267	12642
930.372	12719
930.477	12612
930.581	12764
930.685	12616
930.79	12418
930.894	12486
930.998	12456
931.103	12639
931.207	12209
931.311	12171
931.415	12041
931.519	11916
931.623	11923
