Data from test_V78500241_1103.txt Node
Date: Fri Mar 25 15:49:26 CST 2022
User: usil
Spectrometer: V785-0024
Trigger mode: 0
Integration Time (sec): 4.000000E-1
Scans to average: 1
Nonlinearity correction enabled: false
Boxcar width: 0
Storing dark spectrum: false
XAxis mode: Wavelengths
Number of Pixels in Spectrum: 1024
>>>>>Begin Spectral Data<<<<<
801.071	28557
801.214	28417
801.356	28306
801.499	28265
801.641	28040
801.783	28105
801.926	28169
802.068	28086
802.211	28097
802.353	28067
802.496	27857
802.638	27850
802.78	27736
802.923	27641
803.065	27759
803.208	27637
803.35	27728
803.492	27766
803.635	27994
803.777	27816
803.919	27979
804.061	28379
804.204	28120
804.346	27979
804.488	27804
804.63	28048
804.773	27835
804.915	27987
805.057	28082
805.199	28010
805.341	27994
805.483	28265
805.626	28006
805.768	28082
805.91	28166
806.052	28211
806.194	28131
806.336	28314
806.478	28200
806.62	28128
806.762	28310
806.904	28424
807.046	28752
807.188	28565
807.33	28573
807.472	28687
807.614	28588
807.756	28519
807.898	28436
808.04	28462
808.182	28500
808.324	28527
808.465	28455
808.607	28873
808.749	28873
808.891	28831
809.033	29056
809.174	28946
809.316	28744
809.458	28885
809.6	28759
809.741	28946
809.883	29022
810.025	29296
810.166	29079
810.308	29220
810.45	29185
810.591	28915
810.733	28908
810.875	28816
811.016	28668
811.158	28767
811.299	28938
811.441	28968
811.582	29006
811.724	28904
811.865	28850
812.007	28869
812.148	28828
812.29	28991
812.431	29170
812.573	29170
812.714	29417
812.855	29356
812.997	29493
813.138	29684
813.279	29467
813.421	29379
813.562	29227
813.703	29185
813.845	29185
813.986	28919
814.127	28531
814.268	28691
814.41	28683
814.551	28565
814.692	28554
814.833	28508
814.974	28611
815.115	28497
815.256	28622
815.397	28546
815.539	28523
815.68	28276
815.821	28249
815.962	28455
816.103	28371
816.244	28188
816.385	28040
816.526	28268
816.666	27934
816.807	27819
816.948	27983
817.089	27975
817.23	27949
817.371	27964
817.512	27918
817.653	27880
817.793	27903
817.934	27861
818.075	27747
818.216	27972
818.356	27956
818.497	27610
818.638	27561
818.778	27644
818.919	27583
819.06	27762
819.2	27766
819.341	27827
819.481	27778
819.622	28082
819.762	28192
819.903	28234
820.043	28074
820.184	27972
820.324	28109
820.465	28249
820.605	27972
820.746	28010
820.886	27846
821.026	27975
821.167	27972
821.307	28021
821.447	27941
821.588	27888
821.728	27774
821.868	27443
822.008	27443
822.149	27332
822.289	27382
822.429	27047
822.569	27017
822.709	27176
822.849	26876
822.99	26842
823.13	26838
823.27	26811
823.41	26670
823.55	26648
823.69	26788
823.83	26651
823.97	26678
824.11	26362
824.25	26415
824.389	26587
824.529	26522
824.669	26560
824.809	26701
824.949	26788
825.089	26606
825.228	26735
825.368	26427
825.508	26408
825.648	26393
825.787	26522
825.927	26549
826.067	26560
826.206	26530
826.346	26537
826.485	26305
826.625	26431
826.765	26594
826.904	26408
827.044	26164
827.183	26191
827.323	26115
827.462	26164
827.601	26058
827.741	26107
827.88	26119
828.02	26016
828.159	26180
828.298	26122
828.437	26237
828.577	26012
828.716	26161
828.855	26077
828.994	25928
829.134	25738
829.273	25947
829.412	25902
829.551	25708
829.69	25761
829.829	25925
829.968	25936
830.107	25928
830.246	25841
830.385	25871
830.524	25822
830.663	25647
830.802	25571
830.941	25495
831.08	25510
831.219	25472
831.357	25472
831.496	25731
831.635	25445
831.774	25293
831.913	25430
832.051	25251
832.19	25236
832.329	25373
832.467	25160
832.606	25202
832.744	25141
832.883	25133
833.022	25061
833.16	25110
833.299	25088
833.437	25213
833.576	25209
833.714	25247
833.852	25122
833.991	25209
834.129	25308
834.267	25354
834.406	25293
834.544	25133
834.682	25247
834.821	25247
834.959	25396
835.097	25126
835.235	25160
835.373	24973
835.511	25285
835.65	25080
835.788	25034
835.926	24840
836.064	24863
836.202	24863
836.34	25000
836.478	25118
836.615	25053
836.753	25088
836.891	24951
837.029	25015
837.167	24844
837.305	24943
837.443	24901
837.58	24859
837.718	24810
837.856	24810
837.993	24825
838.131	24673
838.269	24604
838.406	24703
838.544	24654
838.681	24517
838.819	24353
838.956	24224
839.094	24399
839.231	24171
839.369	24372
839.506	24639
839.643	24513
839.781	24319
839.918	24254
840.055	24235
840.193	24300
840.33	24315
840.467	24277
840.604	24258
840.742	24544
840.879	24018
841.016	24136
841.153	23935
841.29	24266
841.427	24011
841.564	24292
841.701	24251
841.838	24106
841.975	24072
842.112	24121
842.249	23904
842.385	24022
842.522	24163
842.659	24148
842.796	24011
842.933	24007
843.069	23878
843.206	23916
843.343	23977
843.479	23904
843.616	24030
843.752	23722
843.889	23828
844.025	23824
844.162	23718
844.298	23722
844.435	23653
844.571	23676
844.708	23805
844.844	23920
844.98	23866
845.117	23897
845.253	23630
845.389	23581
845.525	23531
845.661	23501
845.798	23471
845.934	23539
846.07	23505
846.206	23543
846.342	23455
846.478	23425
846.614	23231
846.75	23098
846.886	23197
847.022	23227
847.158	23231
847.294	23223
847.429	23239
847.565	23170
847.701	23501
847.837	22805
847.972	22816
848.108	23029
848.244	22942
848.379	22778
848.515	22733
848.65	22710
848.786	22721
848.921	22637
849.057	22854
849.192	22847
849.328	22721
849.463	22736
849.598	22626
849.734	22694
849.869	22675
850.004	22546
850.14	22611
850.275	22573
850.41	22489
850.545	22519
850.68	22527
850.815	22557
850.95	22580
851.085	22603
851.22	22596
851.355	22459
851.49	22519
851.625	22592
851.76	22440
851.895	22489
852.03	22455
852.165	22527
852.299	22550
852.434	22527
852.569	22481
852.703	22557
852.838	22630
852.973	22713
853.107	22649
853.242	22516
853.376	22424
853.511	22188
853.645	22268
853.78	22478
853.914	22261
854.048	22360
854.183	22242
854.317	22462
854.451	22470
854.585	22421
854.72	22295
854.854	22284
854.988	22242
855.122	22238
855.256	22337
855.39	22310
855.524	22409
855.658	22440
855.792	22382
855.926	22341
856.06	22394
856.194	22344
856.327	22284
856.461	22268
856.595	22230
856.729	22413
856.862	22428
856.996	22329
857.13	22436
857.263	22413
857.397	22367
857.53	22333
857.664	22284
857.797	22409
857.931	22516
858.064	22413
858.197	22337
858.331	22310
858.464	22257
858.597	22238
858.731	22139
858.864	22124
858.997	22234
859.13	22329
859.263	22413
859.396	22348
859.529	22284
859.662	22268
859.795	22299
859.928	22341
860.061	22535
860.194	22512
860.327	22443
860.46	22455
860.592	22516
860.725	22535
860.858	22455
860.99	22329
861.123	22325
861.256	22325
861.388	22409
861.521	23109
861.653	22234
861.786	22154
861.918	22226
862.05	22238
862.183	22181
862.315	22139
862.447	22306
862.58	22219
862.712	22082
862.844	21964
862.976	22204
863.108	22265
863.24	22542
863.372	21949
863.504	21979
863.636	22112
863.768	22131
863.9	22029
864.032	22010
864.164	21937
864.296	22188
864.428	22185
864.559	22112
864.691	22147
864.823	22051
864.954	21945
865.086	21972
865.217	21956
865.349	21800
865.48	21949
865.612	22032
865.743	22090
865.875	21838
866.006	21857
866.137	21911
866.269	22055
866.4	22021
866.531	21930
866.662	21972
866.793	21956
866.924	21774
867.055	21797
867.186	21911
867.317	21888
867.448	21739
867.579	21857
867.71	21808
867.841	21816
867.972	21831
868.103	21911
868.233	21831
868.364	21903
868.495	21941
868.625	22090
868.756	22265
868.886	22067
869.017	22154
869.147	22238
869.278	22219
869.408	22101
869.539	22143
869.669	22173
869.799	22166
869.929	22272
870.06	22097
870.19	22386
870.32	22455
870.45	22459
870.58	22508
870.71	22565
870.84	22618
870.97	22428
871.1	22417
871.23	22691
871.36	22660
871.489	22626
871.619	22656
871.749	22698
871.879	22755
872.008	22740
872.138	22626
872.267	22660
872.397	22527
872.526	22455
872.656	22531
872.785	22481
872.915	22748
873.044	22873
873.173	22668
873.303	22778
873.432	22725
873.561	22767
873.69	22710
873.819	22755
873.948	22774
874.077	22721
874.206	22733
874.335	22668
874.464	22881
874.593	23018
874.722	22949
874.851	22927
874.979	22942
875.108	22953
875.237	22949
875.365	22824
875.494	22942
875.623	22858
875.751	22778
875.88	22869
876.008	23010
876.136	23132
876.265	23379
876.393	23185
876.521	23284
876.65	23341
876.778	23315
876.906	23223
877.034	23178
877.162	23372
877.29	23121
877.418	23197
877.546	23277
877.674	23261
877.802	23200
877.93	23250
878.058	23178
878.185	23132
878.313	23204
878.441	23174
878.568	23181
878.696	23181
878.824	23288
878.951	23474
879.079	23368
879.206	23535
879.333	23471
879.461	23284
879.588	23368
879.715	23467
879.842	23524
879.97	23261
880.097	23064
880.224	22965
880.351	23029
880.478	23071
880.605	23014
880.732	23056
880.859	23239
880.986	23121
881.112	23151
881.239	22965
881.366	22774
881.493	22717
881.619	22611
881.746	22755
881.872	22679
881.999	22729
882.125	22584
882.252	22664
882.378	22584
882.505	22713
882.631	22550
882.757	22314
882.883	22356
883.01	22219
883.136	22268
883.262	22150
883.388	22090
883.514	22375
883.64	22238
883.766	22257
883.892	22017
884.018	22082
884.143	22238
884.269	22363
884.395	22051
884.52	22044
884.646	22051
884.772	21892
884.897	21781
885.023	21903
885.148	22032
885.274	22082
885.399	21983
885.524	21934
885.65	21975
885.775	21987
885.9	21781
886.025	22074
886.15	22143
886.275	21960
886.4	21873
886.525	22044
886.65	21934
886.775	21861
886.9	22059
887.025	22200
887.149	21831
887.274	21831
887.399	21599
887.523	21751
887.648	21705
887.773	21728
887.897	21808
888.021	21690
888.146	21534
888.27	21812
888.395	21793
888.519	21838
888.643	21751
888.767	21751
888.891	21618
889.015	21538
889.139	21656
889.263	21416
889.387	21682
889.511	21679
889.635	21610
889.759	21519
889.883	21515
890.006	21496
890.13	21576
890.254	21458
890.377	21458
890.501	21146
890.624	21184
890.748	21241
890.871	21142
890.995	20952
891.118	21055
891.241	21020
891.364	21104
891.488	21100
891.611	21066
891.734	20975
891.857	21074
891.98	21024
892.103	21146
892.226	21070
892.349	20941
892.471	20826
892.594	21005
892.717	20952
892.839	20880
892.962	21020
893.085	21005
893.207	20967
893.33	20834
893.452	20815
893.575	20971
893.697	20902
893.819	20975
893.941	21241
894.064	20998
894.186	20868
894.308	20834
894.43	20975
894.552	21077
894.674	20963
894.796	20895
894.918	20895
895.04	20941
895.161	20929
895.283	20864
895.405	20815
895.526	20895
895.648	20948
895.769	20857
895.891	21020
896.012	20986
896.134	20941
896.255	21001
896.376	20845
896.498	21001
896.619	20937
896.74	20918
896.861	20986
896.982	21100
897.103	21382
897.224	21123
897.345	21119
897.466	21058
897.587	21074
897.708	21161
897.828	21142
897.949	21058
898.07	20979
898.19	21165
898.311	21249
898.431	21157
898.552	21047
898.672	21100
898.792	21142
898.913	21062
899.033	20933
899.153	20979
899.273	20769
899.393	20872
899.513	20864
899.633	20788
899.753	20880
899.873	20899
899.993	20857
900.113	20815
900.232	20746
900.352	20762
900.472	20708
900.591	20629
900.711	20765
900.83	20545
900.95	20758
901.069	20705
901.189	20606
901.308	20317
901.427	20168
901.546	20233
901.665	20119
901.784	20210
901.904	19986
902.023	19951
902.141	19712
902.26	19780
902.379	19738
902.498	19639
902.617	19601
902.735	19712
902.854	19666
902.973	19609
903.091	19476
903.21	19422
903.328	19369
903.446	19270
903.565	19118
903.683	19122
903.801	19057
903.919	19057
904.038	19164
904.156	18973
904.274	18939
904.392	18829
904.51	18897
904.627	18814
904.745	19000
904.863	18977
904.981	18692
905.098	18540
905.216	18631
905.334	18566
905.451	18681
905.569	18479
905.686	18544
905.803	18490
905.921	18369
906.038	18547
906.155	18350
906.272	18289
906.389	18289
906.506	18136
906.623	18163
906.74	18114
906.857	18038
906.974	17950
907.091	18163
907.208	18140
907.324	18091
907.441	18015
907.557	17920
907.674	17813
907.79	17775
907.907	17885
908.023	17775
908.139	17836
908.256	17813
908.372	17726
908.488	17733
908.604	17596
908.72	17589
908.836	17596
908.952	17547
909.068	17592
909.184	17539
909.3	17528
909.415	17524
909.531	17524
909.647	17250
909.762	17239
909.878	17246
909.993	17254
910.108	17246
910.224	17178
910.339	17216
910.454	17079
910.57	17060
910.685	16953
910.8	17239
910.915	17250
911.03	17029
911.145	16889
911.259	16824
911.374	16774
911.489	16793
911.604	16660
911.718	16554
911.833	16569
911.947	16478
912.062	16405
912.176	16519
912.291	16569
912.405	16611
912.519	16736
912.633	16759
912.748	16599
912.862	16592
912.976	16371
913.09	16295
913.204	16322
913.318	16322
913.431	16379
913.545	16386
913.659	16535
913.772	16299
913.886	16173
914	16109
914.113	16204
914.226	16226
914.34	16143
914.453	16128
914.566	16188
914.68	15960
914.793	15956
914.906	16002
915.019	15800
915.132	15690
915.245	15770
915.358	15747
915.47	15778
915.583	15739
915.696	15679
915.809	15922
915.921	15835
916.034	15732
916.146	15622
916.259	15728
916.371	15694
916.483	15728
916.595	15553
916.708	15671
916.82	15504
916.932	15561
917.044	15488
917.156	15523
917.268	15408
917.38	15359
917.491	15401
917.603	15420
917.715	15431
917.826	15538
917.938	15325
918.049	15233
918.161	15287
918.272	15469
918.384	15389
918.495	15306
918.606	15173
918.717	15085
918.828	15081
918.939	15119
919.05	15085
919.161	15154
919.272	15013
919.383	14982
919.494	15123
919.604	15279
919.715	15051
919.826	15058
919.936	14960
920.047	15165
920.157	15108
920.267	15195
920.378	15116
920.488	14967
920.598	15214
920.708	15313
920.818	15180
920.928	15287
921.038	15431
921.148	15256
921.258	15017
921.368	14941
921.477	14686
921.587	14754
921.697	14613
921.806	14720
921.916	14598
922.025	14495
922.134	14400
922.244	14431
922.353	14484
922.462	14278
922.571	14256
922.68	14058
922.789	14088
922.898	14043
923.007	13982
923.116	14046
923.224	14134
923.333	14001
923.442	13959
923.55	13883
923.659	13959
923.767	13978
923.876	13753
923.984	13913
924.092	13765
924.201	13818
924.309	13788
924.417	13791
924.525	13734
924.633	13689
924.741	14511
924.849	13445
924.956	13647
925.064	13472
925.172	13400
925.279	13392
925.387	13453
925.494	13457
925.602	13609
925.709	13643
925.816	13297
925.924	13476
926.031	13487
926.138	13445
926.245	13354
926.352	13209
926.459	13480
926.566	13388
926.673	13255
926.779	13137
926.886	13236
926.993	13065
927.099	12935
927.206	12977
927.312	12996
927.419	13027
927.525	13046
927.631	12985
927.737	12928
927.843	12825
927.95	12730
928.056	12817
928.162	12859
928.267	12856
928.373	13343
928.479	12875
928.585	12654
928.69	12844
928.796	12890
928.901	12650
929.007	12547
929.112	12604
929.218	12623
929.323	12521
929.428	12528
929.533	12608
929.638	12441
929.743	12418
929.848	12490
929.953	12471
930.058	12380
930.163	12167
930.267	12281
930.372	12346
930.477	12182
930.581	12357
930.685	12129
930.79	12087
930.894	12171
930.998	12114
931.103	12186
931.207	11824
931.311	11722
931.415	11661
931.519	11539
931.623	11395
