Data from test_V78500241_1703.txt Node
Date: Fri Mar 25 15:53:35 CST 2022
User: usil
Spectrometer: V785-0024
Trigger mode: 0
Integration Time (sec): 4.000000E-1
Scans to average: 1
Nonlinearity correction enabled: false
Boxcar width: 0
Storing dark spectrum: false
XAxis mode: Wavelengths
Number of Pixels in Spectrum: 1024
>>>>>Begin Spectral Data<<<<<
801.071	28196
801.214	28032
801.356	28006
801.499	28017
801.641	27759
801.783	27694
801.926	27914
802.068	27808
802.211	27679
802.353	27762
802.496	27427
802.638	27462
802.78	27397
802.923	27321
803.065	27272
803.208	27523
803.35	27435
803.492	27564
803.635	27580
803.777	27443
803.919	27667
804.061	28002
804.204	27652
804.346	27648
804.488	27523
804.63	27671
804.773	27561
804.915	27705
805.057	27838
805.199	27675
805.341	27762
805.483	27827
805.626	27797
805.768	27876
805.91	27816
806.052	27934
806.194	27747
806.336	27888
806.478	27850
806.62	27873
806.762	27956
806.904	27968
807.046	28329
807.188	28162
807.33	28196
807.472	28333
807.614	28112
807.756	28280
807.898	28112
808.04	28040
808.182	27979
808.324	28181
808.465	28200
808.607	28432
808.749	28356
808.891	28470
809.033	28535
809.174	28573
809.316	28546
809.458	28432
809.6	28344
809.741	28664
809.883	28527
810.025	28767
810.166	28698
810.308	28771
810.45	28763
810.591	28675
810.733	28554
810.875	28478
811.016	28363
811.158	28337
811.299	28493
811.441	28626
811.582	28554
811.724	28447
811.865	28455
812.007	28554
812.148	28478
812.29	28531
812.431	28679
812.573	28767
812.714	28866
812.855	28908
812.997	29067
813.138	29174
813.279	29075
813.421	29010
813.562	29033
813.703	28771
813.845	28630
813.986	28603
814.127	28287
814.268	28128
814.41	28207
814.551	28200
814.692	28150
814.833	28181
814.974	28173
815.115	28093
815.256	28097
815.397	28147
815.539	28010
815.68	27964
815.821	27926
815.962	28082
816.103	28017
816.244	27873
816.385	27838
816.526	27732
816.666	27679
816.807	27340
816.948	27557
817.089	27644
817.23	27504
817.371	27572
817.512	27420
817.653	27443
817.793	27382
817.934	27477
818.075	27507
818.216	27412
818.356	27412
818.497	27378
818.638	27222
818.778	27256
818.919	27298
819.06	27256
819.2	27370
819.341	27587
819.481	27507
819.622	27534
819.762	27644
819.903	27667
820.043	27595
820.184	27515
820.324	27614
820.465	27675
820.605	27534
820.746	27595
820.886	27416
821.026	27511
821.167	27534
821.307	27641
821.447	27435
821.588	27424
821.728	27203
821.868	27169
822.008	27013
822.149	26979
822.289	27001
822.429	26575
822.569	26678
822.709	26606
822.849	26575
822.99	26560
823.13	26396
823.27	26408
823.41	26248
823.55	26180
823.69	26282
823.83	26286
823.97	26278
824.11	26130
824.25	26039
824.389	26046
824.529	26267
824.669	26073
824.809	26119
824.949	26054
825.089	26145
825.228	26282
825.368	25986
825.508	25890
825.648	25925
825.787	25917
825.927	26145
826.067	25875
826.206	25959
826.346	25982
826.485	26031
826.625	25997
826.765	26016
826.904	25871
827.044	25799
827.183	25708
827.323	25594
827.462	25784
827.601	25647
827.741	25616
827.88	25674
828.02	25548
828.159	25616
828.298	25578
828.437	25746
828.577	25586
828.716	25609
828.855	25537
828.994	25400
829.134	25320
829.273	25388
829.412	25190
829.551	25301
829.69	25259
829.829	25209
829.968	25464
830.107	25320
830.246	25426
830.385	25346
830.524	25274
830.663	25206
830.802	25069
830.941	25012
831.08	24977
831.219	24928
831.357	25072
831.496	25152
831.635	25012
831.774	24867
831.913	24905
832.051	24875
832.19	24745
832.329	24772
832.467	24620
832.606	24627
832.744	24646
832.883	24616
833.022	24684
833.16	24658
833.299	24650
833.437	24631
833.576	24760
833.714	24521
833.852	24726
833.991	24677
834.129	24764
834.267	24612
834.406	24509
834.544	24719
834.682	24681
834.821	24589
834.959	24776
835.097	24658
835.235	24703
835.373	24677
835.511	24563
835.65	24498
835.788	24559
835.926	24369
836.064	24323
836.202	24372
836.34	24441
836.478	24601
836.615	24479
836.753	24486
836.891	24578
837.029	24551
837.167	24509
837.305	24418
837.443	24418
837.58	24319
837.718	24380
837.856	24327
837.993	24243
838.131	24277
838.269	24372
838.406	24247
838.544	24251
838.681	24015
838.819	23870
838.956	23786
839.094	23817
839.231	23836
839.369	24030
839.506	24117
839.643	23999
839.781	23965
839.918	23665
840.055	23916
840.193	23707
840.33	23729
840.467	23786
840.604	23710
840.742	23980
840.879	23665
841.016	23741
841.153	23615
841.29	23847
841.427	23798
841.564	23786
841.701	23623
841.838	23608
841.975	23642
842.112	23611
842.249	23611
842.385	23444
842.522	23790
842.659	23577
842.796	23364
842.933	23478
843.069	23551
843.206	23543
843.343	23539
843.479	23490
843.616	23505
843.752	23258
843.889	23250
844.025	23436
844.162	23143
844.298	23318
844.435	23246
844.571	23166
844.708	23280
844.844	23337
844.98	23387
845.117	23227
845.253	23197
845.389	23094
845.525	23216
845.661	23098
845.798	23052
845.934	23094
846.07	23056
846.206	22987
846.342	23193
846.478	22949
846.614	22782
846.75	22641
846.886	22675
847.022	22767
847.158	22687
847.294	22729
847.429	22755
847.565	22634
847.701	22847
847.837	22470
847.972	22474
848.108	22447
848.244	22542
848.379	22409
848.515	22432
848.65	22325
848.786	22371
848.921	22352
849.057	22394
849.192	22466
849.328	22329
849.463	22249
849.598	22363
849.734	22348
849.869	22242
850.004	22109
850.14	22070
850.275	22010
850.41	21953
850.545	22006
850.68	22032
850.815	22078
850.95	22029
851.085	22147
851.22	22177
851.355	22135
851.49	22097
851.625	22078
851.76	21991
851.895	22067
852.03	22048
852.165	21964
852.299	22135
852.434	21987
852.569	22067
852.703	22059
852.838	22177
852.973	22322
853.107	22230
853.242	21937
853.376	21934
853.511	21743
853.645	21808
853.78	21979
853.914	21895
854.048	21838
854.183	21956
854.317	21930
854.451	22173
854.585	21930
854.72	21766
854.854	22017
854.988	21873
855.122	21846
855.256	21804
855.39	21865
855.524	21869
855.658	21968
855.792	22021
855.926	22029
856.06	21861
856.194	21964
856.327	21956
856.461	21854
856.595	21945
856.729	21918
856.862	21994
856.996	21876
857.13	21884
857.263	21926
857.397	21816
857.53	21960
857.664	21941
857.797	21865
857.931	21991
858.064	21865
858.197	22101
858.331	21793
858.464	21781
858.597	21781
858.731	21907
858.864	21819
858.997	21819
859.13	21857
859.263	21949
859.396	21979
859.529	21724
859.662	21873
859.795	21854
859.928	21922
860.061	22059
860.194	22101
860.327	21743
860.46	21816
860.592	21956
860.725	22131
860.858	22109
860.99	21888
861.123	21770
861.256	21793
861.388	21922
861.521	22580
861.653	21804
861.786	21641
861.918	21770
862.05	21751
862.183	21804
862.315	21892
862.447	21785
862.58	21781
862.712	21580
862.844	21595
862.976	21652
863.108	21797
863.24	22128
863.372	21553
863.504	21572
863.636	21523
863.768	21500
863.9	21610
864.032	21576
864.164	21481
864.296	21644
864.428	21667
864.559	21534
864.691	21580
864.823	21530
864.954	21549
865.086	21595
865.217	21561
865.349	21408
865.48	21443
865.612	21450
865.743	21610
865.875	21504
866.006	21439
866.137	21412
866.269	21530
866.4	21572
866.531	21428
866.662	21416
866.793	21370
866.924	21363
867.055	21435
867.186	21420
867.317	21340
867.448	21241
867.579	21408
867.71	21287
867.841	21180
867.972	21317
868.103	21466
868.233	21507
868.364	21397
868.495	21507
868.625	21671
868.756	21751
868.886	21492
869.017	21637
869.147	21633
869.278	21739
869.408	21759
869.539	21610
869.669	21793
869.799	21667
869.929	21789
870.06	21717
870.19	22021
870.32	21907
870.45	22029
870.58	22143
870.71	22139
870.84	22215
870.97	22017
871.1	22109
871.23	22173
871.36	22147
871.489	22162
871.619	22261
871.749	22215
871.879	22162
872.008	22436
872.138	22272
872.267	22276
872.397	22059
872.526	21983
872.656	22211
872.785	22040
872.915	22215
873.044	22379
873.173	22303
873.303	22379
873.432	22474
873.561	22348
873.69	22276
873.819	22230
873.948	22196
874.077	22390
874.206	22238
874.335	22284
874.464	22382
874.593	22527
874.722	22402
874.851	22516
874.979	22409
875.108	22554
875.237	22497
875.365	22455
875.494	22428
875.623	22542
875.751	22478
875.88	22508
876.008	22668
876.136	22637
876.265	22957
876.393	22961
876.521	22889
876.65	23079
876.778	22885
876.906	22900
877.034	22691
877.162	22968
877.29	22744
877.418	22980
877.546	22839
877.674	22892
877.802	22854
877.93	22908
878.058	22744
878.185	22721
878.313	22778
878.441	22824
878.568	22615
878.696	22755
878.824	22835
878.951	22869
879.079	23067
879.206	23197
879.333	23060
879.461	22892
879.588	22892
879.715	23109
879.842	23189
879.97	22858
880.097	22660
880.224	22626
880.351	22687
880.478	22683
880.605	22603
880.732	22599
880.859	22862
880.986	22653
881.112	22683
881.239	22485
881.366	22402
881.493	22333
881.619	22356
881.746	22284
881.872	22253
881.999	22116
882.125	22070
882.252	22341
882.378	22249
882.505	22268
882.631	22021
882.757	21956
882.883	21979
883.01	22006
883.136	21960
883.262	21713
883.388	21686
883.514	21949
883.64	22048
883.766	21873
883.892	21770
884.018	21637
884.143	21873
884.269	21842
884.395	21705
884.52	21500
884.646	21682
884.772	21633
884.897	21450
885.023	21625
885.148	21587
885.274	21713
885.399	21564
885.524	21526
885.65	21523
885.775	21576
885.9	21538
886.025	21580
886.15	21675
886.275	21663
886.4	21344
886.525	21583
886.65	21466
886.775	21340
886.9	21781
887.025	21732
887.149	21545
887.274	21340
887.399	21393
887.523	21386
887.648	21226
887.773	21096
887.897	21363
888.021	21447
888.146	21199
888.27	21363
888.395	21268
888.519	21363
888.643	21473
888.767	21393
888.891	21211
889.015	21096
889.139	21230
889.263	21077
889.387	21218
889.511	21344
889.635	21348
889.759	21074
889.883	21043
890.006	21142
890.13	21131
890.254	21093
890.377	21039
890.501	20944
890.624	20891
890.748	20815
890.871	20727
890.995	20640
891.118	20606
891.241	20705
891.364	20743
891.488	20712
891.611	20682
891.734	20526
891.857	20739
891.98	20629
892.103	20811
892.226	20667
892.349	20640
892.471	20442
892.594	20568
892.717	20598
892.839	20594
892.962	20560
893.085	20590
893.207	20568
893.33	20385
893.452	20480
893.575	20575
893.697	20556
893.819	20678
893.941	20838
894.064	20720
894.186	20522
894.308	20404
894.43	20613
894.552	20735
894.674	20720
894.796	20514
894.918	20537
895.04	20492
895.161	20625
895.283	20396
895.405	20594
895.526	20552
895.648	20526
895.769	20659
895.891	20579
896.012	20697
896.134	20678
896.255	20514
896.376	20514
896.498	20560
896.619	20461
896.74	20663
896.861	20579
896.982	20891
897.103	21032
897.224	20819
897.345	20739
897.466	20750
897.587	20807
897.708	21013
897.828	20781
897.949	20651
898.07	20705
898.19	20644
898.311	20785
898.431	20773
898.552	20819
898.672	20842
898.792	20906
898.913	20796
899.033	20659
899.153	20731
899.273	20438
899.393	20469
899.513	20594
899.633	20590
899.753	20552
899.873	20526
899.993	20503
900.113	20427
900.232	20442
900.352	20431
900.472	20275
900.591	20343
900.711	20278
900.83	20343
900.95	20465
901.069	20358
901.189	20252
901.308	20027
901.427	19906
901.546	19959
901.665	19833
901.784	19909
901.904	19849
902.023	19647
902.141	19495
902.26	19392
902.379	19373
902.498	19312
902.617	19274
902.735	19430
902.854	19274
902.973	19244
903.091	19122
903.21	19076
903.328	19122
903.446	18947
903.565	18886
903.683	18867
903.801	18738
903.919	18833
904.038	18779
904.156	18532
904.274	18719
904.392	18623
904.51	18593
904.627	18547
904.745	18669
904.863	18642
904.981	18494
905.098	18296
905.216	18296
905.334	18289
905.451	18197
905.569	18197
905.686	18213
905.803	18285
905.921	18121
906.038	18106
906.155	18087
906.272	18034
906.389	17908
906.506	17874
906.623	17760
906.74	17775
906.857	17756
906.974	17726
907.091	17859
907.208	17843
907.324	17851
907.441	17592
907.557	17573
907.674	17528
907.79	17486
907.907	17482
908.023	17486
908.139	17497
908.256	17402
908.372	17448
908.488	17395
908.604	17372
908.72	17166
908.836	17235
908.952	17235
909.068	17265
909.184	17311
909.3	17261
909.415	17288
909.531	17280
909.647	16908
909.762	16854
909.878	16904
909.993	17056
910.108	16919
910.224	16900
910.339	16927
910.454	16812
910.57	16706
910.685	16694
910.8	16961
910.915	16904
911.03	16801
911.145	16603
911.259	16421
911.374	16626
911.489	16436
911.604	16417
911.718	16295
911.833	16455
911.947	16200
912.062	16086
912.176	16207
912.291	16265
912.405	16303
912.519	16417
912.633	16436
912.748	16291
912.862	16295
912.976	16181
913.09	15983
913.204	16059
913.318	16063
913.431	16158
913.545	16116
913.659	16097
913.772	16059
913.886	15876
914	15816
914.113	16055
914.226	15907
914.34	15945
914.453	15800
914.566	15869
914.68	15667
914.793	15671
914.906	15545
915.019	15481
915.132	15370
915.245	15435
915.358	15424
915.47	15408
915.583	15405
915.696	15439
915.809	15469
915.921	15606
916.034	15306
916.146	15351
916.259	15466
916.371	15405
916.483	15393
916.595	15192
916.708	15374
916.82	15256
916.932	15214
917.044	15279
917.156	15279
917.268	15097
917.38	15195
917.491	14990
917.603	15116
917.715	15226
917.826	15119
917.938	15119
918.049	14906
918.161	14967
918.272	15180
918.384	15146
918.495	15036
918.606	14937
918.717	14781
918.828	14880
918.939	14914
919.05	14849
919.161	14857
919.272	14640
919.383	14762
919.494	14861
919.604	15100
919.715	14754
919.826	14819
919.936	14678
920.047	14891
920.157	14845
920.267	14990
920.378	14872
920.488	14750
920.598	14994
920.708	15100
920.818	15005
920.928	14998
921.038	15199
921.148	15070
921.258	14674
921.368	14640
921.477	14503
921.587	14522
921.697	14465
921.806	14571
921.916	14431
922.025	14244
922.134	14210
922.244	14221
922.353	14206
922.462	14050
922.571	14077
922.68	13849
922.789	13780
922.898	13795
923.007	13746
923.116	13791
923.224	13780
923.333	13830
923.442	13700
923.55	13594
923.659	13658
923.767	13765
923.876	13647
923.984	13731
924.092	13552
924.201	13693
924.309	13590
924.417	13438
924.525	13400
924.633	13472
924.741	14259
924.849	13304
924.956	13434
925.064	13327
925.172	13183
925.279	13270
925.387	13232
925.494	13289
925.602	13381
925.709	13297
925.816	13179
925.924	13137
926.031	13232
926.138	13156
926.245	13194
926.352	13050
926.459	13240
926.566	13168
926.673	13190
926.779	13031
926.886	13000
926.993	12863
927.099	12760
927.206	12783
927.312	12711
927.419	12878
927.525	12711
927.631	12787
927.737	12791
927.843	12639
927.95	12517
928.056	12650
928.162	12620
928.267	12604
928.373	13282
928.479	12627
928.585	12471
928.69	12494
928.796	12578
928.901	12452
929.007	12365
929.112	12437
929.218	12327
929.323	12292
929.428	12285
929.533	12498
929.638	12285
929.743	12228
929.848	12285
929.953	12262
930.058	12178
930.163	12026
930.267	12060
930.372	12239
930.477	11977
930.581	12114
930.685	12057
930.79	11882
930.894	11885
930.998	11866
931.103	11999
931.207	11665
931.311	11573
931.415	11474
931.519	11299
931.623	11246
