Data from test_V78500241_291.txt Node
Date: Fri Mar 25 15:43:49 CST 2022
User: usil
Spectrometer: V785-0024
Trigger mode: 0
Integration Time (sec): 4.000000E-1
Scans to average: 1
Nonlinearity correction enabled: false
Boxcar width: 0
Storing dark spectrum: false
XAxis mode: Wavelengths
Number of Pixels in Spectrum: 1024
>>>>>Begin Spectral Data<<<<<
801.071	29440
801.214	29486
801.356	29102
801.499	29162
801.641	29098
801.783	28972
801.926	29155
802.068	28972
802.211	28957
802.353	28828
802.496	28653
802.638	28797
802.78	28725
802.923	28611
803.065	28462
803.208	28660
803.35	28634
803.492	28820
803.635	28927
803.777	28729
803.919	28972
804.061	29204
804.204	28790
804.346	28740
804.488	28641
804.63	28759
804.773	28771
804.915	28854
805.057	28942
805.199	28896
805.341	29037
805.483	29052
805.626	28930
805.768	28744
805.91	29067
806.052	28923
806.194	28938
806.336	29041
806.478	28953
806.62	29033
806.762	29094
806.904	29235
807.046	29486
807.188	29391
807.33	29402
807.472	29486
807.614	29375
807.756	29166
807.898	29109
808.04	29029
808.182	29166
808.324	29193
808.465	29105
808.607	29497
808.749	29459
808.891	29570
809.033	29668
809.174	29665
809.316	29558
809.458	29592
809.6	29577
809.741	29745
809.883	29600
810.025	29889
810.166	29885
810.308	29752
810.45	29813
810.591	29741
810.733	29573
810.875	29687
811.016	29509
811.158	29589
811.299	29592
811.441	29836
811.582	29756
811.724	29516
811.865	29543
812.007	29543
812.148	29528
812.29	29619
812.431	29718
812.573	29901
812.714	30034
812.855	29923
812.997	30209
813.138	30213
813.279	30155
813.421	29973
813.562	29965
813.703	29855
813.845	29748
813.986	29524
814.127	29433
814.268	29292
814.41	29326
814.551	29239
814.692	29311
814.833	29121
814.974	29185
815.115	29204
815.256	29044
815.397	29121
815.539	29155
815.68	29033
815.821	28949
815.962	29048
816.103	29056
816.244	28930
816.385	28812
816.526	28767
816.666	28634
816.807	28519
816.948	28485
817.089	28398
817.23	28592
817.371	28466
817.512	28405
817.653	28299
817.793	28470
817.934	28325
818.075	28382
818.216	28440
818.356	28386
818.497	28268
818.638	28196
818.778	28131
818.919	28150
819.06	28090
819.2	28405
819.341	28246
819.481	28360
819.622	28436
819.762	28698
819.903	28508
820.043	28615
820.184	28596
820.324	28508
820.465	28538
820.605	28577
820.746	28432
820.886	28375
821.026	28523
821.167	28382
821.307	28421
821.447	28390
821.588	28230
821.728	28169
821.868	28025
822.008	27827
822.149	27755
822.289	27892
822.429	27538
822.569	27405
822.709	27447
822.849	27233
822.99	27424
823.13	27252
823.27	27268
823.41	27192
823.55	27093
823.69	27047
823.83	27100
823.97	27135
824.11	27001
824.25	26857
824.389	26849
824.529	26826
824.669	26868
824.809	27036
824.949	27028
825.089	27036
825.228	26902
825.368	26857
825.508	26697
825.648	26876
825.787	26765
825.927	26804
826.067	26659
826.206	26682
826.346	26727
826.485	26743
826.625	26667
826.765	26785
826.904	26811
827.044	26511
827.183	26518
827.323	26263
827.462	26461
827.601	26370
827.741	26366
827.88	26495
828.02	26339
828.159	26408
828.298	26480
828.437	26488
828.577	26381
828.716	26530
828.855	26480
828.994	26206
829.134	26195
829.273	26195
829.412	26054
829.551	26119
829.69	26176
829.829	25951
829.968	26183
830.107	25997
830.246	26012
830.385	26077
830.524	26054
830.663	25837
830.802	25868
830.941	25635
831.08	25712
831.219	25693
831.357	25750
831.496	25871
831.635	25586
831.774	25734
831.913	25556
832.051	25468
832.19	25472
832.329	25479
832.467	25476
832.606	25369
832.744	25381
832.883	25415
833.022	25198
833.16	25327
833.299	25312
833.437	25381
833.576	25304
833.714	25392
833.852	25453
833.991	25457
834.129	25350
834.267	25388
834.406	25232
834.544	25411
834.682	25293
834.821	25244
834.959	25479
835.097	25171
835.235	25327
835.373	25407
835.511	25308
835.65	25103
835.788	25259
835.926	25107
836.064	24852
836.202	25038
836.34	25228
836.478	25259
836.615	25118
836.753	25312
836.891	25266
837.029	25316
837.167	24954
837.305	25031
837.443	25145
837.58	24913
837.718	25080
837.856	24905
837.993	24848
838.131	24924
838.269	24894
838.406	24890
838.544	24741
838.681	24665
838.819	24410
838.956	24479
839.094	24300
839.231	24471
839.369	24635
839.506	24730
839.643	24642
839.781	24380
839.918	24270
840.055	24433
840.193	24330
840.33	24388
840.467	24395
840.604	24327
840.742	24604
840.879	24186
841.016	24338
841.153	24182
841.29	24346
841.427	24232
841.564	24273
841.701	24308
841.838	24182
841.975	24121
842.112	24163
842.249	24163
842.385	23980
842.522	24163
842.659	24076
842.796	23996
842.933	24003
843.069	23866
843.206	23935
843.343	24102
843.479	23988
843.616	24007
843.752	23817
843.889	23718
844.025	23767
844.162	23802
844.298	23901
844.435	23752
844.571	23581
844.708	23733
844.844	23946
844.98	23859
845.117	23767
845.253	23760
845.389	23634
845.525	23703
845.661	23691
845.798	23478
845.934	23547
846.07	23581
846.206	23535
846.342	23535
846.478	23383
846.614	23242
846.75	23200
846.886	23147
847.022	23273
847.158	23067
847.294	23090
847.429	23231
847.565	23147
847.701	23414
847.837	22889
847.972	22706
848.108	22999
848.244	22908
848.379	22835
848.515	22793
848.65	22733
848.786	22908
848.921	22801
849.057	22828
849.192	22854
849.328	22683
849.463	22790
849.598	22748
849.734	22713
849.869	22573
850.004	22443
850.14	22424
850.275	22481
850.41	22375
850.545	22462
850.68	22512
850.815	22459
850.95	22455
851.085	22626
851.22	22664
851.355	22508
851.49	22481
851.625	22356
851.76	22344
851.895	22474
852.03	22348
852.165	22489
852.299	22466
852.434	22550
852.569	22481
852.703	22344
852.838	22409
852.973	22577
853.107	22554
853.242	22402
853.376	22375
853.511	22181
853.645	22272
853.78	22268
853.914	22352
854.048	22154
854.183	22154
854.317	22295
854.451	22459
854.585	22234
854.72	22207
854.854	22223
854.988	22162
855.122	22185
855.256	22097
855.39	22276
855.524	22284
855.658	22246
855.792	22371
855.926	22303
856.06	22295
856.194	22226
856.327	22211
856.461	22059
856.595	22181
856.729	22249
856.862	22371
856.996	22242
857.13	22219
857.263	22310
857.397	22287
857.53	22280
857.664	22261
857.797	22261
857.931	22375
858.064	22303
858.197	22246
858.331	22329
858.464	22268
858.597	22124
858.731	22230
858.864	22112
858.997	22154
859.13	22112
859.263	22291
859.396	22356
859.529	22219
859.662	22200
859.795	22154
859.928	22333
860.061	22375
860.194	22394
860.327	22204
860.46	22188
860.592	22348
860.725	22413
860.858	22363
860.99	22234
861.123	22143
861.256	22150
861.388	22192
861.521	22843
861.653	22139
861.786	22029
861.918	22090
862.05	22010
862.183	22124
862.315	22196
862.447	22226
862.58	22131
862.712	21915
862.844	21930
862.976	21934
863.108	22010
863.24	22207
863.372	21819
863.504	21979
863.636	21797
863.768	21861
863.9	21991
864.032	21762
864.164	21850
864.296	21987
864.428	21953
864.559	21880
864.691	21964
864.823	21812
864.954	21835
865.086	21873
865.217	21732
865.349	21629
865.48	21846
865.612	21907
865.743	21770
865.875	21766
866.006	21739
866.137	21797
866.269	21724
866.4	21778
866.531	21770
866.662	21804
866.793	21637
866.924	21739
867.055	21747
867.186	21755
867.317	21568
867.448	21648
867.579	21671
867.71	21690
867.841	21675
867.972	21682
868.103	21580
868.233	21838
868.364	21831
868.495	21770
868.625	21956
868.756	21911
868.886	21838
869.017	21831
869.147	22135
869.278	21960
869.408	21930
869.539	21869
869.669	22090
869.799	22006
869.929	22135
870.06	22082
870.19	22150
870.32	22249
870.45	22287
870.58	22246
870.71	22341
870.84	22348
870.97	22295
871.1	22409
871.23	22546
871.36	22470
871.489	22348
871.619	22497
871.749	22512
871.879	22478
872.008	22580
872.138	22550
872.267	22538
872.397	22451
872.526	22363
872.656	22386
872.785	22341
872.915	22603
873.044	22660
873.173	22512
873.303	22622
873.432	22557
873.561	22641
873.69	22565
873.819	22550
873.948	22580
874.077	22516
874.206	22519
874.335	22584
874.464	22675
874.593	22824
874.722	22679
874.851	22721
874.979	22778
875.108	22957
875.237	22759
875.365	22603
875.494	22786
875.623	22790
875.751	22740
875.88	22782
876.008	22892
876.136	22869
876.265	23166
876.393	23181
876.521	23204
876.65	23242
876.778	23181
876.906	23044
877.034	23143
877.162	23102
877.29	23193
877.418	23048
877.546	23162
877.674	23071
877.802	23197
877.93	23105
878.058	23098
878.185	23121
878.313	23044
878.441	23170
878.568	22930
878.696	23037
878.824	23197
878.951	23318
879.079	23360
879.206	23474
879.333	23227
879.461	23056
879.588	23299
879.715	23265
879.842	23455
879.97	23162
880.097	23003
880.224	22748
880.351	22889
880.478	22881
880.605	22953
880.732	22866
880.859	23124
880.986	22923
881.112	22881
881.239	22835
881.366	22820
881.493	22615
881.619	22497
881.746	22489
881.872	22504
881.999	22417
882.125	22447
882.252	22611
882.378	22367
882.505	22626
882.631	22348
882.757	22211
882.883	22344
883.01	22185
883.136	22200
883.262	22074
883.388	21975
883.514	22306
883.64	22204
883.766	22112
883.892	21930
884.018	22051
884.143	22105
884.269	22215
884.395	22017
884.52	21819
884.646	21842
884.772	21663
884.897	21690
885.023	21915
885.148	21865
885.274	21960
885.399	22029
885.524	21865
885.65	21876
885.775	21762
885.9	21747
886.025	21888
886.15	21835
886.275	21804
886.4	21751
886.525	21739
886.65	21793
886.775	21869
886.9	21892
887.025	21964
887.149	21835
887.274	21717
887.399	21599
887.523	21496
887.648	21534
887.773	21462
887.897	21618
888.021	21557
888.146	21431
888.27	21561
888.395	21637
888.519	21675
888.643	21564
888.767	21698
888.891	21443
889.015	21313
889.139	21386
889.263	21302
889.387	21363
889.511	21500
889.635	21557
889.759	21428
889.883	21321
890.006	21363
890.13	21344
890.254	21226
890.377	21252
890.501	21081
890.624	21074
890.748	21085
890.871	20944
890.995	20876
891.118	20883
891.241	20842
891.364	20830
891.488	21032
891.611	20895
891.734	20883
891.857	20986
891.98	20971
892.103	20990
892.226	20979
892.349	20849
892.471	20644
892.594	20804
892.717	20861
892.839	20838
892.962	20762
893.085	20941
893.207	20682
893.33	20678
893.452	20792
893.575	20769
893.697	20750
893.819	20933
893.941	20895
894.064	20842
894.186	20758
894.308	20777
894.43	20853
894.552	20883
894.674	20762
894.796	20724
894.918	20891
895.04	20746
895.161	20743
895.283	20754
895.405	20674
895.526	20834
895.648	20853
895.769	20788
895.891	20781
896.012	20971
896.134	20876
896.255	20845
896.376	20864
896.498	20864
896.619	20960
896.74	20830
896.861	20975
896.982	21268
897.103	21370
897.224	21119
897.345	20960
897.466	20876
897.587	21001
897.708	21165
897.828	21017
897.949	20921
898.07	20861
898.19	20899
898.311	21093
898.431	20895
898.552	21001
898.672	21070
898.792	21096
898.913	20994
899.033	20804
899.153	20750
899.273	20750
899.393	20697
899.513	20819
899.633	20708
899.753	20678
899.873	20697
899.993	20663
900.113	20636
900.232	20609
900.352	20667
900.472	20621
900.591	20317
900.711	20469
900.83	20492
900.95	20590
901.069	20686
901.189	20366
901.308	20161
901.427	20058
901.546	20096
901.665	20134
901.784	20084
901.904	19974
902.023	19784
902.141	19616
902.26	19575
902.379	19765
902.498	19537
902.617	19529
902.735	19571
902.854	19525
902.973	19384
903.091	19304
903.21	19274
903.328	19095
903.446	19206
903.565	19023
903.683	19015
903.801	18886
903.919	18871
904.038	18951
904.156	18806
904.274	18791
904.392	18719
904.51	18749
904.627	18703
904.745	18795
904.863	18772
904.981	18616
905.098	18437
905.216	18441
905.334	18308
905.451	18361
905.569	18403
905.686	18525
905.803	18426
905.921	18178
906.038	18319
906.155	18258
906.272	18152
906.389	18155
906.506	18019
906.623	17961
906.74	17882
906.857	17836
906.974	17843
907.091	18003
907.208	18076
907.324	18060
907.441	17817
907.557	17684
907.674	17653
907.79	17482
907.907	17695
908.023	17699
908.139	17672
908.256	17642
908.372	17497
908.488	17474
908.604	17414
908.72	17299
908.836	17269
908.952	17303
909.068	17337
909.184	17482
909.3	17318
909.415	17307
909.531	17368
909.647	17113
909.762	17003
909.878	17010
909.993	17025
910.108	17010
910.224	17052
910.339	17037
910.454	16839
910.57	16790
910.685	16713
910.8	17060
910.915	16946
911.03	16805
911.145	16706
911.259	16584
911.374	16577
911.489	16516
911.604	16424
911.718	16314
911.833	16329
911.947	16207
912.062	16139
912.176	16417
912.291	16382
912.405	16367
912.519	16535
912.633	16440
912.748	16367
912.862	16352
912.976	16230
913.09	15991
913.204	16071
913.318	16101
913.431	16093
913.545	16177
913.659	16200
913.772	16063
913.886	15876
914	15888
914.113	16006
914.226	15987
914.34	15937
914.453	15755
914.566	15964
914.68	15804
914.793	15778
914.906	15618
915.019	15572
915.132	15504
915.245	15561
915.358	15595
915.47	15511
915.583	15545
915.696	15553
915.809	15663
915.921	15648
916.034	15481
916.146	15447
916.259	15412
916.371	15450
916.483	15416
916.595	15363
916.708	15439
916.82	15294
916.932	15348
917.044	15325
917.156	15256
917.268	15074
917.38	15214
917.491	15173
917.603	15150
917.715	15252
917.826	15161
917.938	15123
918.049	14963
918.161	15108
918.272	15165
918.384	15237
918.495	15074
918.606	14986
918.717	14800
918.828	14891
918.939	14861
919.05	14792
919.161	14785
919.272	14746
919.383	14678
919.494	14971
919.604	15104
919.715	14880
919.826	14765
919.936	14823
920.047	14891
920.157	14864
920.267	14979
920.378	14804
920.488	14731
920.598	14952
920.708	15028
920.818	14883
920.928	14910
921.038	15165
921.148	15070
921.258	14746
921.368	14682
921.477	14522
921.587	14590
921.697	14438
921.806	14469
921.916	14347
922.025	14282
922.134	14202
922.244	14149
922.353	14149
922.462	14081
922.571	13944
922.68	13780
922.789	13769
922.898	13780
923.007	13750
923.116	13871
923.224	13791
923.333	13784
923.442	13715
923.55	13727
923.659	13674
923.767	13628
923.876	13544
923.984	13597
924.092	13441
924.201	13571
924.309	13476
924.417	13567
924.525	13403
924.633	13525
924.741	14419
924.849	13217
924.956	13384
925.064	13285
925.172	13213
925.279	13274
925.387	13278
925.494	13190
925.602	13308
925.709	13301
925.816	13076
925.924	13141
926.031	13324
926.138	13118
926.245	13198
926.352	13091
926.459	13160
926.566	13263
926.673	13061
926.779	12985
926.886	12909
926.993	12848
927.099	12662
927.206	12798
927.312	12711
927.419	12821
927.525	12760
927.631	12741
927.737	12597
927.843	12585
927.95	12601
928.056	12563
928.162	12517
928.267	12578
928.373	13225
928.479	12658
928.585	12445
928.69	12513
928.796	12559
928.901	12460
929.007	12239
929.112	12399
929.218	12410
929.323	12232
929.428	12273
929.533	12372
929.638	12205
929.743	12205
929.848	12270
929.953	12209
930.058	12114
930.163	11984
930.267	11885
930.372	12041
930.477	11908
930.581	12079
930.685	11969
930.79	11863
930.894	11870
930.998	11855
931.103	11901
931.207	11528
931.311	11478
931.415	11383
931.519	11288
931.623	11178
