Data from test_V78500241_3470.txt Node
Date: Fri Mar 25 16:05:50 CST 2022
User: usil
Spectrometer: V785-0024
Trigger mode: 0
Integration Time (sec): 4.000000E-1
Scans to average: 1
Nonlinearity correction enabled: false
Boxcar width: 0
Storing dark spectrum: false
XAxis mode: Wavelengths
Number of Pixels in Spectrum: 1024
>>>>>Begin Spectral Data<<<<<
801.071	29136
801.214	29041
801.356	28793
801.499	28748
801.641	28710
801.783	28607
801.926	28733
802.068	28615
802.211	28573
802.353	28459
802.496	28238
802.638	28306
802.78	28405
802.923	28200
803.065	28101
803.208	28341
803.35	28523
803.492	28478
803.635	28542
803.777	28379
803.919	28542
804.061	28854
804.204	28729
804.346	28599
804.488	28527
804.63	28618
804.773	28409
804.915	28679
805.057	28805
805.199	28588
805.341	28675
805.483	28854
805.626	28706
805.768	28626
805.91	28702
806.052	28713
806.194	28653
806.336	28923
806.478	28748
806.62	28729
806.762	28923
806.904	29022
807.046	29242
807.188	29284
807.33	29231
807.472	29292
807.614	29261
807.756	29197
807.898	29094
808.04	28927
808.182	29124
808.324	28927
808.465	29155
808.607	29360
808.749	29570
808.891	29630
809.033	29665
809.174	29543
809.316	29414
809.458	29353
809.6	29429
809.741	29585
809.883	29608
810.025	29866
810.166	29786
810.308	29821
810.45	29874
810.591	29611
810.733	29589
810.875	29551
811.016	29417
811.158	29436
811.299	29638
811.441	29703
811.582	29649
811.724	29512
811.865	29482
812.007	29551
812.148	29482
812.29	29672
812.431	29764
812.573	29771
812.714	30125
812.855	29973
812.997	30239
813.138	30273
813.279	30163
813.421	30083
813.562	30015
813.703	29935
813.845	29615
813.986	29490
814.127	29250
814.268	29318
814.41	29193
814.551	29064
814.692	29353
814.833	29246
814.974	29250
815.115	29258
815.256	29140
815.397	29086
815.539	29166
815.68	28980
815.821	29083
815.962	29124
816.103	28953
816.244	28999
816.385	28949
816.526	28763
816.666	28660
816.807	28512
816.948	28664
817.089	28637
817.23	28580
817.371	28569
817.512	28569
817.653	28451
817.793	28527
817.934	28653
818.075	28508
818.216	28500
818.356	28489
818.497	28550
818.638	28314
818.778	28306
818.919	28440
819.06	28337
819.2	28394
819.341	28634
819.481	28653
819.622	28782
819.762	28908
819.903	28919
820.043	28782
820.184	28706
820.324	28637
820.465	28713
820.605	28702
820.746	28599
820.886	28523
821.026	28694
821.167	28554
821.307	28637
821.447	28733
821.588	28405
821.728	28318
821.868	28131
822.008	28070
822.149	28036
822.289	28120
822.429	27705
822.569	27778
822.709	27644
822.849	27625
822.99	27622
823.13	27667
823.27	27477
823.41	27408
823.55	27370
823.69	27515
823.83	27481
823.97	27336
824.11	27089
824.25	27264
824.389	27184
824.529	27154
824.669	27218
824.809	27264
824.949	27264
825.089	27321
825.228	27154
825.368	26979
825.508	27150
825.648	27039
825.787	27131
825.927	27169
826.067	27085
826.206	27123
826.346	27077
826.485	27195
826.625	27127
826.765	27154
826.904	27165
827.044	26899
827.183	26724
827.323	26720
827.462	26838
827.601	26773
827.741	26750
827.88	26883
828.02	26674
828.159	26857
828.298	26864
828.437	26880
828.577	26781
828.716	26811
828.855	26758
828.994	26518
829.134	26492
829.273	26549
829.412	26655
829.551	26507
829.69	26549
829.829	26556
829.968	26507
830.107	26511
830.246	26533
830.385	26461
830.524	26533
830.663	26286
830.802	26282
830.941	26126
831.08	26172
831.219	26271
831.357	26046
831.496	26347
831.635	26214
831.774	26073
831.913	26073
832.051	25944
832.19	25845
832.329	25906
832.467	25841
832.606	25753
832.744	25674
832.883	25715
833.022	25658
833.16	25799
833.299	25712
833.437	25780
833.576	25917
833.714	25814
833.852	25921
833.991	25906
834.129	26008
834.267	25761
834.406	25841
834.544	25822
834.682	25803
834.821	25807
834.959	25982
835.097	25818
835.235	25909
835.373	25902
835.511	25883
835.65	25761
835.788	25689
835.926	25525
836.064	25514
836.202	25518
836.34	25693
836.478	25761
836.615	25753
836.753	25639
836.891	25746
837.029	25597
837.167	25525
837.305	25609
837.443	25685
837.58	25514
837.718	25628
837.856	25571
837.993	25449
838.131	25457
838.269	25373
838.406	25434
838.544	25407
838.681	25171
838.819	24947
838.956	24947
839.094	24935
839.231	25065
839.369	25019
839.506	25339
839.643	25080
839.781	24932
839.918	24715
840.055	24958
840.193	24840
840.33	24779
840.467	24829
840.604	24970
840.742	25099
840.879	24730
841.016	24688
841.153	24703
841.29	25038
841.427	24791
841.564	24837
841.701	24901
841.838	24707
841.975	24719
842.112	24749
842.249	24681
842.385	24460
842.522	24772
842.659	24700
842.796	24578
842.933	24597
843.069	24597
843.206	24665
843.343	24741
843.479	24574
843.616	24635
843.752	24429
843.889	24418
844.025	24448
844.162	24308
844.298	24407
844.435	24448
844.571	24330
844.708	24464
844.844	24388
844.98	24502
845.117	24456
845.253	24418
845.389	24308
845.525	24319
845.661	24163
845.798	24155
845.934	24155
846.07	24110
846.206	24140
846.342	24232
846.478	24152
846.614	23847
846.75	23707
846.886	23798
847.022	23965
847.158	23775
847.294	23885
847.429	23855
847.565	23874
847.701	24098
847.837	23528
847.972	23531
848.108	23577
848.244	23539
848.379	23421
848.515	23216
848.65	23474
848.786	23425
848.921	23524
849.057	23547
849.192	23455
849.328	23467
849.463	23436
849.598	23410
849.734	23353
849.869	23436
850.004	23246
850.14	23200
850.275	23284
850.41	23124
850.545	23105
850.68	23170
850.815	23174
850.95	23250
851.085	23406
851.22	23311
851.355	23200
851.49	23181
851.625	23170
851.76	23261
851.895	23067
852.03	23132
852.165	23064
852.299	23368
852.434	23284
852.569	23208
852.703	23075
852.838	23315
852.973	23398
853.107	23318
853.242	23143
853.376	23067
853.511	23033
853.645	22991
853.78	23185
853.914	22991
854.048	22961
854.183	22965
854.317	23067
854.451	23208
854.585	22942
854.72	23006
854.854	23162
854.988	23044
855.122	23113
855.256	22968
855.39	23033
855.524	23067
855.658	23136
855.792	23090
855.926	23090
856.06	22991
856.194	23193
856.327	23147
856.461	23003
856.595	22976
856.729	22957
856.862	23086
856.996	22995
857.13	23197
857.263	23083
857.397	23132
857.53	23037
857.664	23132
857.797	23071
857.931	23212
858.064	22949
858.197	23227
858.331	22957
858.464	22968
858.597	22923
858.731	23033
858.864	23010
858.997	22995
859.13	23056
859.263	23128
859.396	23067
859.529	23003
859.662	22831
859.795	22987
859.928	23056
860.061	23155
860.194	23284
860.327	23136
860.46	23128
860.592	23178
860.725	23155
860.858	23242
860.99	23022
861.123	22927
861.256	23102
861.388	23048
861.521	23870
861.653	22930
861.786	22721
861.918	22828
862.05	22911
862.183	22923
862.315	23060
862.447	22972
862.58	22911
862.712	22702
862.844	22759
862.976	22812
863.108	22740
863.24	23075
863.372	22645
863.504	22801
863.636	22752
863.768	22721
863.9	22698
864.032	22645
864.164	22672
864.296	22774
864.428	22759
864.559	22824
864.691	22755
864.823	22721
864.954	22706
865.086	22641
865.217	22531
865.349	22508
865.48	22519
865.612	22615
865.743	22683
865.875	22580
866.006	22630
866.137	22592
866.269	22618
866.4	22611
866.531	22440
866.662	22462
866.793	22561
866.924	22759
867.055	22531
867.186	22599
867.317	22462
867.448	22440
867.579	22607
867.71	22371
867.841	22459
867.972	22512
868.103	22436
868.233	22500
868.364	22573
868.495	22516
868.625	22607
868.756	22809
868.886	22691
869.017	22729
869.147	22908
869.278	23014
869.408	22816
869.539	22736
869.669	22839
869.799	22984
869.929	22892
870.06	22930
870.19	23083
870.32	22961
870.45	23071
870.58	23086
870.71	23200
870.84	23280
870.97	23254
871.1	23204
871.23	23330
871.36	23471
871.489	23360
871.619	23147
871.749	23303
871.879	23360
872.008	23501
872.138	23421
872.267	23356
872.397	23265
872.526	23273
872.656	23147
872.785	23208
872.915	23444
873.044	23554
873.173	23452
873.303	23467
873.432	23505
873.561	23501
873.69	23471
873.819	23345
873.948	23402
874.077	23326
874.206	23379
874.335	23395
874.464	23433
874.593	23516
874.722	23524
874.851	23665
874.979	23562
875.108	23722
875.237	23570
875.365	23543
875.494	23516
875.623	23722
875.751	23478
875.88	23535
876.008	23665
876.136	23646
876.265	23912
876.393	24140
876.521	23988
876.65	23961
876.778	24041
876.906	23950
877.034	23855
877.162	23969
877.29	24064
877.418	23977
877.546	24018
877.674	23946
877.802	23859
877.93	23923
878.058	23771
878.185	23760
878.313	23771
878.441	23847
878.568	23634
878.696	24011
878.824	23946
878.951	23980
879.079	24178
879.206	24155
879.333	24034
879.461	24053
879.588	24049
879.715	24057
879.842	24110
879.97	23946
880.097	23851
880.224	23859
880.351	23786
880.478	23843
880.605	23764
880.732	23627
880.859	23950
880.986	23699
881.112	23832
881.239	23589
881.366	23600
881.493	23345
881.619	23246
881.746	23322
881.872	23273
881.999	23132
882.125	23299
882.252	23246
882.378	23254
882.505	23356
882.631	23239
882.757	22869
882.883	23128
883.01	23003
883.136	22919
883.262	22869
883.388	22835
883.514	22866
883.64	22942
883.766	22946
883.892	22649
884.018	22873
884.143	22915
884.269	22946
884.395	22611
884.52	22557
884.646	22740
884.772	22634
884.897	22516
885.023	22630
885.148	22645
885.274	22656
885.399	22626
885.524	22645
885.65	22478
885.775	22611
885.9	22421
886.025	22584
886.15	22752
886.275	22538
886.4	22599
886.525	22588
886.65	22561
886.775	22516
886.9	22592
887.025	22881
887.149	22527
887.274	22421
887.399	22356
887.523	22421
887.648	22257
887.773	22226
887.897	22352
888.021	22303
888.146	22295
888.27	22341
888.395	22428
888.519	22402
888.643	22284
888.767	22291
888.891	22306
889.015	22147
889.139	22124
889.263	22147
889.387	22192
889.511	22344
889.635	22360
889.759	22063
889.883	22158
890.006	22223
890.13	22230
890.254	22040
890.377	22006
890.501	21953
890.624	21812
890.748	21956
890.871	21709
890.995	21603
891.118	21477
891.241	21701
891.364	21644
891.488	21842
891.611	21542
891.734	21701
891.857	21762
891.98	21709
892.103	21705
892.226	21603
892.349	21618
892.471	21420
892.594	21622
892.717	21625
892.839	21583
892.962	21595
893.085	21690
893.207	21568
893.33	21412
893.452	21492
893.575	21641
893.697	21526
893.819	21743
893.941	21861
894.064	21652
894.186	21576
894.308	21386
894.43	21641
894.552	21637
894.674	21587
894.796	21412
894.918	21534
895.04	21477
895.161	21557
895.283	21580
895.405	21504
895.526	21618
895.648	21428
895.769	21583
895.891	21420
896.012	21538
896.134	21564
896.255	21587
896.376	21492
896.498	21587
896.619	21435
896.74	21458
896.861	21610
896.982	21861
897.103	21774
897.224	21705
897.345	21633
897.466	21542
897.587	21751
897.708	21827
897.828	21663
897.949	21759
898.07	21466
898.19	21595
898.311	21679
898.431	21667
898.552	21717
898.672	21667
898.792	21781
898.913	21785
899.033	21603
899.153	21500
899.273	21344
899.393	21439
899.513	21386
899.633	21523
899.753	21431
899.873	21264
899.993	21454
900.113	21233
900.232	21359
900.352	21336
900.472	21359
900.591	21138
900.711	21325
900.83	21005
900.95	21386
901.069	21218
901.189	21055
901.308	20796
901.427	20636
901.546	20674
901.665	20705
901.784	20750
901.904	20545
902.023	20545
902.141	20294
902.26	20298
902.379	20343
902.498	20271
902.617	20248
902.735	20305
902.854	20248
902.973	20126
903.091	19833
903.21	19822
903.328	19944
903.446	19784
903.565	19674
903.683	19807
903.801	19586
903.919	19662
904.038	19651
904.156	19571
904.274	19567
904.392	19472
904.51	19419
904.627	19460
904.745	19377
904.863	19468
904.981	19331
905.098	19190
905.216	19076
905.334	19221
905.451	19190
905.569	19122
905.686	19065
905.803	18981
905.921	18806
906.038	19023
906.155	18890
906.272	18703
906.389	18840
906.506	18719
906.623	18646
906.74	18578
906.857	18513
906.974	18563
907.091	18631
907.208	18700
907.324	18604
907.441	18593
907.557	18448
907.674	18384
907.79	18228
907.907	18296
908.023	18289
908.139	18342
908.256	18350
908.372	18197
908.488	18197
908.604	18045
908.72	17996
908.836	18159
908.952	17988
909.068	18026
909.184	18098
909.3	18034
909.415	18053
909.531	18106
909.647	17805
909.762	17798
909.878	17710
909.993	17684
910.108	17729
910.224	17668
910.339	17665
910.454	17646
910.57	17623
910.685	17577
910.8	17840
910.915	17661
911.03	17512
911.145	17436
911.259	17307
911.374	17341
911.489	17296
911.604	17254
911.718	17090
911.833	17060
911.947	17056
912.062	16877
912.176	17010
912.291	17113
912.405	17090
912.519	17250
912.633	17220
912.748	17052
912.862	17022
912.976	16793
913.09	16797
913.204	16881
913.318	16946
913.431	16862
913.545	16953
913.659	16934
913.772	16736
913.886	16656
914	16592
914.113	16778
914.226	16706
914.34	16694
914.453	16516
914.566	16702
914.68	16527
914.793	16470
914.906	16360
915.019	16154
915.132	16139
915.245	16200
915.358	16169
915.47	16242
915.583	16226
915.696	16192
915.809	16295
915.921	16413
916.034	16093
916.146	16086
916.259	16166
916.371	16215
916.483	16116
916.595	15903
916.708	16082
916.82	16078
916.932	15975
917.044	15983
917.156	15937
917.268	15861
917.38	15865
917.491	15808
917.603	15861
917.715	15922
917.826	15945
917.938	15709
918.049	15728
918.161	15736
918.272	15819
918.384	15812
918.495	15622
918.606	15622
918.717	15458
918.828	15671
918.939	15576
919.05	15485
919.161	15538
919.272	15287
919.383	15462
919.494	15561
919.604	15770
919.715	15454
919.826	15431
919.936	15355
920.047	15561
920.157	15538
920.267	15701
920.378	15584
920.488	15408
920.598	15705
920.708	15869
920.818	15671
920.928	15667
921.038	15835
921.148	15724
921.258	15439
921.368	15382
921.477	15321
921.587	15157
921.697	15127
921.806	15176
921.916	15085
922.025	14902
922.134	14887
922.244	14834
922.353	14891
922.462	14697
922.571	14708
922.68	14518
922.789	14545
922.898	14434
923.007	14374
923.116	14442
923.224	14374
923.333	14404
923.442	14294
923.55	14377
923.659	14237
923.767	14400
923.876	14271
923.984	14317
924.092	14199
924.201	14244
924.309	14233
924.417	14206
924.525	14134
924.633	14081
924.741	14941
924.849	13875
924.956	14031
925.064	13925
925.172	13795
925.279	13871
925.387	13947
925.494	13879
925.602	13982
925.709	13906
925.816	13704
925.924	13750
926.031	13818
926.138	13746
926.245	13784
926.352	13780
926.459	13780
926.566	13818
926.673	13715
926.779	13567
926.886	13590
926.993	13407
927.099	13384
927.206	13430
927.312	13274
927.419	13362
927.525	13434
927.631	13453
927.737	13259
927.843	13335
927.95	13171
928.056	13050
928.162	13304
928.267	13225
928.373	13772
928.479	13179
928.585	12996
928.69	13133
928.796	13175
928.901	13031
929.007	12935
929.112	12943
929.218	12943
929.323	12966
929.428	12878
929.533	12985
929.638	12867
929.743	12928
929.848	12814
929.953	12825
930.058	12787
930.163	12566
930.267	12669
930.372	12665
930.477	12384
930.581	12734
930.685	12559
930.79	12422
930.894	12380
930.998	12433
931.103	12612
931.207	12125
931.311	12076
931.415	12007
931.519	11779
931.623	11828
