Data from test_V78500241_2668.txt Node
Date: Fri Mar 25 16:00:16 CST 2022
User: usil
Spectrometer: V785-0024
Trigger mode: 0
Integration Time (sec): 4.000000E-1
Scans to average: 1
Nonlinearity correction enabled: false
Boxcar width: 0
Storing dark spectrum: false
XAxis mode: Wavelengths
Number of Pixels in Spectrum: 1024
>>>>>Begin Spectral Data<<<<<
801.071	29094
801.214	28976
801.356	28858
801.499	28816
801.641	28630
801.783	28694
801.926	28656
802.068	28687
802.211	28474
802.353	28554
802.496	28398
802.638	28265
802.78	28280
802.923	28238
803.065	28207
803.208	28246
803.35	28382
803.492	28466
803.635	28489
803.777	28470
803.919	28573
804.061	28869
804.204	28645
804.346	28523
804.488	28493
804.63	28706
804.773	28390
804.915	28733
805.057	28797
805.199	28603
805.341	28698
805.483	28706
805.626	28691
805.768	28679
805.91	28755
806.052	28733
806.194	28645
806.336	28816
806.478	28805
806.62	28869
806.762	28816
806.904	29029
807.046	29178
807.188	29212
807.33	29292
807.472	29341
807.614	29303
807.756	29200
807.898	28972
808.04	29029
808.182	28961
808.324	29079
808.465	29102
808.607	29299
808.749	29436
808.891	29417
809.033	29668
809.174	29566
809.316	29512
809.458	29444
809.6	29318
809.741	29501
809.883	29509
810.025	29703
810.166	29687
810.308	29859
810.45	29783
810.591	29737
810.733	29570
810.875	29383
811.016	29444
811.158	29292
811.299	29619
811.441	29680
811.582	29573
811.724	29558
811.865	29596
812.007	29512
812.148	29497
812.29	29589
812.431	29562
812.573	29847
812.714	29859
812.855	30003
812.997	30064
813.138	30235
813.279	30163
813.421	29950
813.562	29912
813.703	29790
813.845	29832
813.986	29551
814.127	29250
814.268	29273
814.41	29231
814.551	29064
814.692	29254
814.833	29098
814.974	29128
815.115	29124
815.256	29094
815.397	29025
815.539	29128
815.68	29162
815.821	28869
815.962	29147
816.103	28923
816.244	28778
816.385	28801
816.526	28717
816.666	28683
816.807	28508
816.948	28626
817.089	28508
817.23	28451
817.371	28592
817.512	28538
817.653	28565
817.793	28497
817.934	28554
818.075	28489
818.216	28565
818.356	28333
818.497	28363
818.638	28253
818.778	28314
818.919	28265
819.06	28333
819.2	28504
819.341	28363
819.481	28493
819.622	28694
819.762	28828
819.903	28862
820.043	28809
820.184	28664
820.324	28721
820.465	28755
820.605	28805
820.746	28569
820.886	28478
821.026	28694
821.167	28455
821.307	28748
821.447	28478
821.588	28516
821.728	28291
821.868	28086
822.008	28036
822.149	27979
822.289	28021
822.429	27705
822.569	27675
822.709	27717
822.849	27538
822.99	27378
823.13	27515
823.27	27523
823.41	27241
823.55	27028
823.69	27306
823.83	27416
823.97	27374
824.11	27154
824.25	27043
824.389	27150
824.529	27275
824.669	27192
824.809	27218
824.949	27195
825.089	27291
825.228	27214
825.368	26982
825.508	27036
825.648	27028
825.787	27001
825.927	27013
826.067	27081
826.206	27066
826.346	27066
826.485	27066
826.625	27100
826.765	27176
826.904	27108
827.044	26792
827.183	26815
827.323	26735
827.462	26872
827.601	26746
827.741	26693
827.88	26781
828.02	26663
828.159	26678
828.298	26773
828.437	26887
828.577	26579
828.716	26739
828.855	26632
828.994	26396
829.134	26404
829.273	26434
829.412	26301
829.551	26351
829.69	26537
829.829	26549
829.968	26499
830.107	26431
830.246	26461
830.385	26465
830.524	26309
830.663	26195
830.802	26294
830.941	25963
831.08	26065
831.219	26183
831.357	26130
831.496	26317
831.635	25963
831.774	26054
831.913	25970
832.051	25833
832.19	25780
832.329	25841
832.467	25791
832.606	25742
832.744	25677
832.883	25586
833.022	25632
833.16	25677
833.299	25685
833.437	25769
833.576	25761
833.714	25791
833.852	25791
833.991	25894
834.129	25833
834.267	25769
834.406	25776
834.544	25868
834.682	25906
834.821	25750
834.959	25906
835.097	25734
835.235	25811
835.373	25795
835.511	25761
835.65	25624
835.788	25624
835.926	25628
836.064	25544
836.202	25582
836.34	25647
836.478	25769
836.615	25575
836.753	25548
836.891	25677
837.029	25616
837.167	25476
837.305	25571
837.443	25586
837.58	25392
837.718	25556
837.856	25479
837.993	25316
838.131	25518
838.269	25236
838.406	25464
838.544	25373
838.681	25164
838.819	25133
838.956	24939
839.094	25008
839.231	24962
839.369	25084
839.506	25381
839.643	25148
839.781	24947
839.918	24856
840.055	24992
840.193	24890
840.33	24844
840.467	24844
840.604	24840
840.742	25095
840.879	24768
841.016	24749
841.153	24570
841.29	24825
841.427	24852
841.564	24867
841.701	24734
841.838	24760
841.975	24806
842.112	24738
842.249	24574
842.385	24486
842.522	24776
842.659	24593
842.796	24505
842.933	24582
843.069	24464
843.206	24544
843.343	24574
843.479	24502
843.616	24536
843.752	24407
843.889	24391
844.025	24471
844.162	24388
844.298	24490
844.435	24346
844.571	24251
844.708	24182
844.844	24532
844.98	24498
845.117	24380
845.253	24369
845.389	24163
845.525	24201
845.661	24167
845.798	24026
845.934	24087
846.07	24159
846.206	24129
846.342	24110
846.478	23988
846.614	23870
846.75	23779
846.886	23779
847.022	23843
847.158	23604
847.294	23809
847.429	23817
847.565	23764
847.701	23874
847.837	23577
847.972	23474
848.108	23543
848.244	23596
848.379	23364
848.515	23292
848.65	23223
848.786	23429
848.921	23269
849.057	23474
849.192	23474
849.328	23356
849.463	23311
849.598	23360
849.734	23284
849.869	23280
850.004	23128
850.14	23090
850.275	23105
850.41	23147
850.545	22991
850.68	23094
850.815	23067
850.95	23223
851.085	23406
851.22	23254
851.355	23060
851.49	23064
851.625	22987
851.76	23162
851.895	22930
852.03	22991
852.165	23143
852.299	23227
852.434	23151
852.569	23140
852.703	23181
852.838	23258
852.973	23204
853.107	23174
853.242	23075
853.376	23010
853.511	22885
853.645	22911
853.78	23052
853.914	22847
854.048	22904
854.183	22892
854.317	22995
854.451	23193
854.585	22908
854.72	22991
854.854	22972
854.988	22938
855.122	22995
855.256	22843
855.39	22858
855.524	22957
855.658	22862
855.792	22908
855.926	23003
856.06	23075
856.194	23014
856.327	22843
856.461	22774
856.595	22984
856.729	22881
856.862	23003
856.996	22949
857.13	23033
857.263	23159
857.397	23044
857.53	23064
857.664	23041
857.797	23124
857.931	23025
858.064	22968
858.197	23041
858.331	22923
858.464	22949
858.597	22805
858.731	22904
858.864	22824
858.997	22816
859.13	22961
859.263	22995
859.396	22908
859.529	22847
859.662	22831
859.795	22889
859.928	22946
860.061	23132
860.194	23181
860.327	23044
860.46	22908
860.592	22949
860.725	23155
860.858	23044
860.99	22843
861.123	22923
861.256	22858
861.388	23033
861.521	23589
861.653	22786
861.786	22831
861.918	22869
862.05	22805
862.183	22854
862.315	22843
862.447	22972
862.58	22957
862.712	22569
862.844	22653
862.976	22675
863.108	22588
863.24	22968
863.372	22691
863.504	22565
863.636	22592
863.768	22729
863.9	22634
864.032	22512
864.164	22611
864.296	22542
864.428	22710
864.559	22828
864.691	22763
864.823	22596
864.954	22634
865.086	22493
865.217	22584
865.349	22436
865.48	22565
865.612	22485
865.743	22725
865.875	22645
866.006	22394
866.137	22580
866.269	22493
866.4	22523
866.531	22424
866.662	22402
866.793	22443
866.924	22436
867.055	22470
867.186	22455
867.317	22344
867.448	22379
867.579	22360
867.71	22474
867.841	22329
867.972	22481
868.103	22367
868.233	22508
868.364	22531
868.495	22462
868.625	22653
868.756	22664
868.886	22588
869.017	22691
869.147	22656
869.278	22873
869.408	22569
869.539	22550
869.669	22774
869.799	22664
869.929	22839
870.06	22854
870.19	23041
870.32	22957
870.45	23006
870.58	23094
870.71	23094
870.84	23140
870.97	22991
871.1	23189
871.23	23258
871.36	23235
871.489	23197
871.619	23197
871.749	23212
871.879	23246
872.008	23280
872.138	23288
872.267	23231
872.397	23140
872.526	23242
872.656	23143
872.785	23162
872.915	23261
873.044	23299
873.173	23277
873.303	23299
873.432	23395
873.561	23440
873.69	23326
873.819	23372
873.948	23414
874.077	23345
874.206	23353
874.335	23296
874.464	23379
874.593	23581
874.722	23459
874.851	23592
874.979	23535
875.108	23471
875.237	23509
875.365	23471
875.494	23482
875.623	23741
875.751	23414
875.88	23539
876.008	23657
876.136	23680
876.265	23931
876.393	23999
876.521	23973
876.65	24091
876.778	23874
876.906	23897
877.034	23824
877.162	23866
877.29	23836
877.418	23840
877.546	23813
877.674	23817
877.802	23927
877.93	23980
878.058	23813
878.185	23684
878.313	23733
878.441	23752
878.568	23676
878.696	23775
878.824	23771
878.951	23889
879.079	24015
879.206	24125
879.333	24091
879.461	23863
879.588	23980
879.715	23996
879.842	24148
879.97	23874
880.097	23687
880.224	23592
880.351	23642
880.478	23676
880.605	23455
880.732	23501
880.859	23904
880.986	23680
881.112	23703
881.239	23452
881.366	23341
881.493	23349
881.619	23208
881.746	23159
881.872	23220
881.999	23200
882.125	23113
882.252	23105
882.378	23151
882.505	23280
882.631	22961
882.757	22968
882.883	22946
883.01	22869
883.136	22866
883.262	22774
883.388	22649
883.514	22953
883.64	22835
883.766	22847
883.892	22611
884.018	22660
884.143	22805
884.269	22820
884.395	22641
884.52	22474
884.646	22561
884.772	22561
884.897	22367
885.023	22573
885.148	22660
885.274	22596
885.399	22580
885.524	22459
885.65	22489
885.775	22569
885.9	22493
886.025	22508
886.15	22630
886.275	22546
886.4	22455
886.525	22466
886.65	22329
886.775	22398
886.9	22599
887.025	22752
887.149	22447
887.274	22303
887.399	22265
887.523	22333
887.648	22173
887.773	22173
887.897	22310
888.021	22333
888.146	22257
888.27	22367
888.395	22272
888.519	22207
888.643	22253
888.767	22223
888.891	22173
889.015	22112
889.139	22166
889.263	22017
889.387	22059
889.511	22204
889.635	22200
889.759	22109
889.883	21994
890.006	22048
890.13	22192
890.254	22013
890.377	21934
890.501	21720
890.624	21774
890.748	21831
890.871	21728
890.995	21595
891.118	21603
891.241	21641
891.364	21637
891.488	21591
891.611	21629
891.734	21644
891.857	21606
891.98	21694
892.103	21705
892.226	21682
892.349	21587
892.471	21469
892.594	21382
892.717	21447
892.839	21447
892.962	21485
893.085	21576
893.207	21515
893.33	21298
893.452	21351
893.575	21538
893.697	21351
893.819	21481
893.941	21713
894.064	21511
894.186	21416
894.308	21393
894.43	21622
894.552	21629
894.674	21534
894.796	21435
894.918	21435
895.04	21485
895.161	21439
895.283	21447
895.405	21439
895.526	21488
895.648	21534
895.769	21389
895.891	21534
896.012	21431
896.134	21519
896.255	21408
896.376	21397
896.498	21462
896.619	21469
896.74	21336
896.861	21435
896.982	21625
897.103	21994
897.224	21690
897.345	21568
897.466	21580
897.587	21603
897.708	21736
897.828	21739
897.949	21462
898.07	21469
898.19	21576
898.311	21724
898.431	21663
898.552	21572
898.672	21492
898.792	21698
898.913	21633
899.033	21523
899.153	21466
899.273	21150
899.393	21401
899.513	21428
899.633	21431
899.753	21355
899.873	21302
899.993	21340
900.113	21291
900.232	21287
900.352	21310
900.472	21207
900.591	21058
900.711	21093
900.83	21028
900.95	21195
901.069	21192
901.189	20929
901.308	20807
901.427	20640
901.546	20800
901.665	20663
901.784	20678
901.904	20568
902.023	20507
902.141	20202
902.26	20278
902.379	20229
902.498	20157
902.617	20058
902.735	20225
902.854	20161
902.973	20206
903.091	19951
903.21	19788
903.328	19849
903.446	19723
903.565	19693
903.683	19674
903.801	19567
903.919	19506
904.038	19510
904.156	19403
904.274	19426
904.392	19403
904.51	19304
904.627	19206
904.745	19449
904.863	19518
904.981	19114
905.098	19076
905.216	19091
905.334	19148
905.451	19042
905.569	18962
905.686	19145
905.803	18939
905.921	18867
906.038	18916
906.155	18856
906.272	18810
906.389	18719
906.506	18631
906.623	18692
906.74	18521
906.857	18456
906.974	18513
907.091	18620
907.208	18722
907.324	18486
907.441	18547
907.557	18323
907.674	18338
907.79	18380
907.907	18273
908.023	18289
908.139	18258
908.256	18243
908.372	18171
908.488	18174
908.604	18019
908.72	18022
908.836	18110
908.952	18015
909.068	18026
909.184	18129
909.3	17954
909.415	17992
909.531	17992
909.647	17775
909.762	17745
909.878	17665
909.993	17638
910.108	17592
910.224	17699
910.339	17604
910.454	17486
910.57	17478
910.685	17406
910.8	17649
910.915	17585
911.03	17562
911.145	17269
911.259	17235
911.374	17258
911.489	17162
911.604	17105
911.718	16934
911.833	16942
911.947	16953
912.062	16801
912.176	17018
912.291	16896
912.405	16999
912.519	17193
912.633	17162
912.748	17014
912.862	16923
912.976	16850
913.09	16706
913.204	16736
913.318	16786
913.431	16889
913.545	16923
913.659	16873
913.772	16687
913.886	16588
914	16599
914.113	16584
914.226	16752
914.34	16637
914.453	16398
914.566	16596
914.68	16516
914.793	16344
914.906	16173
915.019	16139
915.132	16082
915.245	16109
915.358	16162
915.47	16082
915.583	16162
915.696	16204
915.809	16162
915.921	16154
916.034	16002
916.146	16032
916.259	15983
916.371	16154
916.483	16154
916.595	15922
916.708	15975
916.82	15857
916.932	15998
917.044	15819
917.156	15895
917.268	15797
917.38	15736
917.491	15789
917.603	15739
917.715	15876
917.826	15827
917.938	15736
918.049	15644
918.161	15751
918.272	15819
918.384	15831
918.495	15671
918.606	15599
918.717	15485
918.828	15561
918.939	15523
919.05	15462
919.161	15447
919.272	15279
919.383	15469
919.494	15462
919.604	15675
919.715	15496
919.826	15382
919.936	15450
920.047	15568
920.157	15485
920.267	15682
920.378	15481
920.488	15454
920.598	15667
920.708	15743
920.818	15496
920.928	15614
921.038	15789
921.148	15724
921.258	15344
921.368	15348
921.477	15283
921.587	15222
921.697	15093
921.806	15287
921.916	15009
922.025	14899
922.134	14838
922.244	14762
922.353	14792
922.462	14689
922.571	14488
922.68	14594
922.789	14492
922.898	14514
923.007	14442
923.116	14389
923.224	14450
923.333	14511
923.442	14313
923.55	14248
923.659	14298
923.767	14355
923.876	14199
923.984	14313
924.092	14206
924.201	14202
924.309	14134
924.417	14180
924.525	14161
924.633	14115
924.741	14967
924.849	13917
924.956	14005
925.064	13917
925.172	13833
925.279	13856
925.387	13890
925.494	13849
925.602	13978
925.709	13898
925.816	13655
925.924	13742
926.031	13906
926.138	13757
926.245	13795
926.352	13731
926.459	13742
926.566	13799
926.673	13696
926.779	13529
926.886	13510
926.993	13480
927.099	13373
927.206	13304
927.312	13339
927.419	13327
927.525	13384
927.631	13441
927.737	13259
927.843	13164
927.95	13114
928.056	13141
928.162	13213
928.267	13251
928.373	13780
928.479	13179
928.585	13061
928.69	13160
928.796	13160
928.901	13103
929.007	12909
929.112	13031
929.218	12954
929.323	12981
929.428	12871
929.533	12993
929.638	12852
929.743	12848
929.848	12905
929.953	12787
930.058	12760
930.163	12544
930.267	12578
930.372	12707
930.477	12570
930.581	12757
930.685	12528
930.79	12475
930.894	12403
930.998	12391
931.103	12559
931.207	12167
931.311	12133
931.415	12041
931.519	11866
931.623	11737
