Data from test_V78500241_1353.txt Node
Date: Fri Mar 25 15:51:10 CST 2022
User: usil
Spectrometer: V785-0024
Trigger mode: 0
Integration Time (sec): 4.000000E-1
Scans to average: 1
Nonlinearity correction enabled: false
Boxcar width: 0
Storing dark spectrum: false
XAxis mode: Wavelengths
Number of Pixels in Spectrum: 1024
>>>>>Begin Spectral Data<<<<<
801.071	28017
801.214	27964
801.356	27873
801.499	27747
801.641	27481
801.783	27629
801.926	27701
802.068	27618
802.211	27675
802.353	27412
802.496	27313
802.638	27203
802.78	27226
802.923	27264
803.065	27169
803.208	27127
803.35	27203
803.492	27325
803.635	27431
803.777	27431
803.919	27439
804.061	27850
804.204	27485
804.346	27427
804.488	27264
804.63	27485
804.773	27310
804.915	27405
805.057	27553
805.199	27443
805.341	27515
805.483	27690
805.626	27785
805.768	27576
805.91	27538
806.052	27606
806.194	27576
806.336	27785
806.478	27637
806.62	27610
806.762	27610
806.904	27724
807.046	28116
807.188	27972
807.33	28067
807.472	28162
807.614	28048
807.756	28051
807.898	27972
808.04	27865
808.182	27804
808.324	27854
808.465	28006
808.607	28200
808.749	28272
808.891	28386
809.033	28363
809.174	28382
809.316	28120
809.458	28219
809.6	28223
809.741	28409
809.883	28371
810.025	28523
810.166	28523
810.308	28497
810.45	28622
810.591	28379
810.733	28344
810.875	28166
811.016	28181
811.158	28124
811.299	28181
811.441	28375
811.582	28432
811.724	28318
811.865	28215
812.007	28242
812.148	28234
812.29	28390
812.431	28565
812.573	28641
812.714	28653
812.855	28698
812.997	28831
813.138	29029
813.279	28949
813.421	28668
813.562	28615
813.703	28645
813.845	28436
813.986	28196
814.127	28109
814.268	27880
814.41	28032
814.551	27895
814.692	28029
814.833	27831
814.974	27945
815.115	27945
815.256	27755
815.397	28006
815.539	27911
815.68	27797
815.821	27736
815.962	27895
816.103	27751
816.244	27576
816.385	27488
816.526	27576
816.666	27443
816.807	27245
816.948	27275
817.089	27427
817.23	27431
817.371	27268
817.512	27287
817.653	27233
817.793	27321
817.934	27203
818.075	27195
818.216	27321
818.356	27222
818.497	27150
818.638	27039
818.778	26826
818.919	26963
819.06	27024
819.2	27089
819.341	27180
819.481	27268
819.622	27389
819.762	27637
819.903	27500
820.043	27439
820.184	27447
820.324	27359
820.465	27443
820.605	27332
820.746	27382
820.886	27165
821.026	27359
821.167	27397
821.307	27427
821.447	27272
821.588	27104
821.728	27146
821.868	26944
822.008	26864
822.149	26750
822.289	26621
822.429	26442
822.569	26537
822.709	26488
822.849	26286
822.99	26206
823.13	26320
823.27	26195
823.41	26035
823.55	26092
823.69	26001
823.83	26115
823.97	26069
824.11	25864
824.25	25928
824.389	25769
824.529	25902
824.669	25898
824.809	26050
824.949	25894
825.089	26046
825.228	25906
825.368	25693
825.508	25776
825.648	25670
825.787	25750
825.927	25852
826.067	25757
826.206	25795
826.346	25875
826.485	25807
826.625	25761
826.765	25944
826.904	25871
827.044	25518
827.183	25502
827.323	25396
827.462	25556
827.601	25521
827.741	25468
827.88	25476
828.02	25316
828.159	25373
828.298	25422
828.437	25411
828.577	25343
828.716	25529
828.855	25362
828.994	25171
829.134	25141
829.273	25217
829.412	25148
829.551	25053
829.69	25061
829.829	25107
829.968	25225
830.107	25236
830.246	25168
830.385	25122
830.524	25015
830.663	24932
830.802	24833
830.941	24715
831.08	24665
831.219	24661
831.357	24749
831.496	24890
831.635	24840
831.774	24757
831.913	24620
832.051	24593
832.19	24616
832.329	24475
832.467	24525
832.606	24372
832.744	24380
832.883	24380
833.022	24342
833.16	24505
833.299	24483
833.437	24388
833.576	24547
833.714	24479
833.852	24642
833.991	24509
834.129	24563
834.267	24574
834.406	24486
834.544	24563
834.682	24528
834.821	24544
834.959	24681
835.097	24407
835.235	24460
835.373	24456
835.511	24410
835.65	24304
835.788	24357
835.926	24125
836.064	24140
836.202	24041
836.34	24338
836.478	24304
836.615	24292
836.753	24323
836.891	24338
837.029	24296
837.167	24262
837.305	24163
837.443	24152
837.58	24296
837.718	24281
837.856	24258
837.993	24030
838.131	24018
838.269	23965
838.406	24053
838.544	23965
838.681	23745
838.819	23699
838.956	23630
839.094	23608
839.231	23726
839.369	23889
839.506	24053
839.643	23901
839.781	23657
839.918	23589
840.055	23577
840.193	23581
840.33	23653
840.467	23577
840.604	23627
840.742	23824
840.879	23315
841.016	23478
841.153	23406
841.29	23695
841.427	23501
841.564	23566
841.701	23566
841.838	23444
841.975	23391
842.112	23410
842.249	23364
842.385	23349
842.522	23547
842.659	23318
842.796	23284
842.933	23246
843.069	23231
843.206	23345
843.343	23303
843.479	23242
843.616	23425
843.752	23067
843.889	23037
844.025	23200
844.162	23098
844.298	23143
844.435	23086
844.571	23064
844.708	23064
844.844	23193
844.98	23136
845.117	23029
845.253	23025
845.389	22782
845.525	22961
845.661	22835
845.798	22793
845.934	22930
846.07	22736
846.206	22927
846.342	22934
846.478	22733
846.614	22584
846.75	22459
846.886	22554
847.022	22687
847.158	22538
847.294	22603
847.429	22611
847.565	22493
847.701	22748
847.837	22291
847.972	22371
848.108	22238
848.244	22249
848.379	22188
848.515	22048
848.65	22128
848.786	22150
848.921	22173
849.057	22322
849.192	22169
849.328	22128
849.463	22150
849.598	22070
849.734	21941
849.869	21873
850.004	21789
850.14	22029
850.275	21861
850.41	21774
850.545	21903
850.68	21831
850.815	21918
850.95	21854
851.085	22116
851.22	21964
851.355	21903
851.49	21869
851.625	21755
851.76	21800
851.895	21698
852.03	21892
852.165	21842
852.299	21835
852.434	21991
852.569	21808
852.703	21804
852.838	21918
852.973	22032
853.107	21945
853.242	21880
853.376	21682
853.511	21485
853.645	21679
853.78	21869
853.914	21804
854.048	21637
854.183	21633
854.317	21671
854.451	21861
854.585	21724
854.72	21720
854.854	21850
854.988	21679
855.122	21747
855.256	21557
855.39	21641
855.524	21629
855.658	21641
855.792	21724
855.926	21686
856.06	21766
856.194	21747
856.327	21774
856.461	21633
856.595	21717
856.729	21736
856.862	21888
856.996	21793
857.13	21724
857.263	21793
857.397	21823
857.53	21580
857.664	21629
857.797	21797
857.931	21781
858.064	21759
858.197	21869
858.331	21694
858.464	21770
858.597	21633
858.731	21625
858.864	21675
858.997	21705
859.13	21812
859.263	21736
859.396	21816
859.529	21648
859.662	21736
859.795	21732
859.928	21717
860.061	21759
860.194	21838
860.327	21694
860.46	21694
860.592	21766
860.725	21895
860.858	21835
860.99	21629
861.123	21572
861.256	21644
861.388	21679
861.521	22325
861.653	21580
861.786	21523
861.918	21557
862.05	21469
862.183	21622
862.315	21568
862.447	21679
862.58	21583
862.712	21370
862.844	21408
862.976	21542
863.108	21416
863.24	21717
863.372	21279
863.504	21428
863.636	21401
863.768	21340
863.9	21378
864.032	21344
864.164	21469
864.296	21443
864.428	21435
864.559	21622
864.691	21526
864.823	21469
864.954	21431
865.086	21405
865.217	21382
865.349	21218
865.48	21214
865.612	21382
865.743	21473
865.875	21363
866.006	21260
866.137	21416
866.269	21435
866.4	21310
866.531	21165
866.662	21135
866.793	21230
866.924	21176
867.055	21230
867.186	21214
867.317	21252
867.448	21199
867.579	21108
867.71	21032
867.841	21058
867.972	21256
868.103	21283
868.233	21218
868.364	21272
868.495	21344
868.625	21466
868.756	21454
868.886	21488
869.017	21561
869.147	21576
869.278	21564
869.408	21496
869.539	21443
869.669	21450
869.799	21599
869.929	21610
870.06	21564
870.19	21755
870.32	21778
870.45	21835
870.58	21888
870.71	21926
870.84	21975
870.97	21827
871.1	21846
871.23	22059
871.36	22124
871.489	22021
871.619	21998
871.749	22143
871.879	22093
872.008	22147
872.138	21953
872.267	21983
872.397	22021
872.526	21869
872.656	21880
872.785	21880
872.915	22063
873.044	22086
873.173	22162
873.303	22150
873.432	22139
873.561	22257
873.69	22154
873.819	22074
873.948	22048
874.077	22109
874.206	22086
874.335	22090
874.464	22238
874.593	22284
874.722	22310
874.851	22303
874.979	22291
875.108	22249
875.237	22204
875.365	22181
875.494	22322
875.623	22382
875.751	22314
875.88	22341
876.008	22341
876.136	22451
876.265	22668
876.393	22809
876.521	22850
876.65	22691
876.778	22542
876.906	22664
877.034	22497
877.162	22630
877.29	22561
877.418	22630
877.546	22679
877.674	22717
877.802	22588
877.93	22641
878.058	22599
878.185	22580
878.313	22599
878.441	22622
878.568	22504
878.696	22630
878.824	22862
878.951	22740
879.079	22812
879.206	22957
879.333	22809
879.461	22733
879.588	22752
879.715	22691
879.842	23056
879.97	22736
880.097	22565
880.224	22523
880.351	22599
880.478	22417
880.605	22489
880.732	22538
880.859	22668
880.986	22474
881.112	22565
881.239	22447
881.366	22154
881.493	22162
881.619	21884
881.746	22055
881.872	22025
881.999	22021
882.125	22002
882.252	22040
882.378	22036
882.505	22097
882.631	21918
882.757	21846
882.883	21766
883.01	21667
883.136	21709
883.262	21660
883.388	21538
883.514	21690
883.64	21603
883.766	21682
883.892	21561
884.018	21500
884.143	21675
884.269	21705
884.395	21500
884.52	21348
884.646	21431
884.772	21241
884.897	21245
885.023	21298
885.148	21386
885.274	21439
885.399	21496
885.524	21359
885.65	21340
885.775	21401
885.9	21363
886.025	21466
886.15	21386
886.275	21321
886.4	21241
886.525	21351
886.65	21416
886.775	21230
886.9	21485
887.025	21694
887.149	21355
887.274	21176
887.399	21119
887.523	21184
887.648	21165
887.773	21028
887.897	21207
888.021	21222
888.146	21138
888.27	21230
888.395	21207
888.519	21188
888.643	21089
888.767	21226
888.891	21051
889.015	20948
889.139	21066
889.263	20960
889.387	21116
889.511	21138
889.635	20990
889.759	20910
889.883	20743
890.006	20937
890.13	20998
890.254	20815
890.377	20876
890.501	20735
890.624	20663
890.748	20746
890.871	20598
890.995	20446
891.118	20537
891.241	20427
891.364	20469
891.488	20670
891.611	20518
891.734	20560
891.857	20587
891.98	20537
892.103	20545
892.226	20522
892.349	20377
892.471	20317
892.594	20355
892.717	20518
892.839	20328
892.962	20370
893.085	20415
893.207	20393
893.33	20271
893.452	20313
893.575	20336
893.697	20370
893.819	20434
893.941	20606
894.064	20556
894.186	20358
894.308	20328
894.43	20476
894.552	20469
894.674	20408
894.796	20385
894.918	20324
895.04	20419
895.161	20560
895.283	20412
895.405	20286
895.526	20336
895.648	20362
895.769	20393
895.891	20400
896.012	20583
896.134	20415
896.255	20415
896.376	20366
896.498	20412
896.619	20446
896.74	20351
896.861	20461
896.982	20686
897.103	20868
897.224	20750
897.345	20617
897.466	20549
897.587	20655
897.708	20773
897.828	20636
897.949	20686
898.07	20423
898.19	20511
898.311	20663
898.431	20537
898.552	20708
898.672	20701
898.792	20667
898.913	20613
899.033	20480
899.153	20454
899.273	20294
899.393	20427
899.513	20366
899.633	20309
899.753	20381
899.873	20263
899.993	20473
900.113	20362
900.232	20214
900.352	20366
900.472	20305
900.591	20161
900.711	20138
900.83	20027
900.95	20244
901.069	20317
901.189	20142
901.308	19864
901.427	19647
901.546	19651
901.665	19731
901.784	19788
901.904	19597
902.023	19415
902.141	19278
902.26	19297
902.379	19320
902.498	19156
902.617	19175
902.735	19263
902.854	19217
902.973	19076
903.091	18859
903.21	18951
903.328	18897
903.446	18787
903.565	18566
903.683	18692
903.801	18555
903.919	18692
904.038	18642
904.156	18422
904.274	18517
904.392	18464
904.51	18490
904.627	18483
904.745	18502
904.863	18369
904.981	18232
905.098	18087
905.216	18072
905.334	18182
905.451	18163
905.569	18079
905.686	18224
905.803	18190
905.921	17897
906.038	17969
906.155	18003
906.272	17798
906.389	17859
906.506	17714
906.623	17623
906.74	17570
906.857	17543
906.974	17589
907.091	17676
907.208	17756
907.324	17703
907.441	17452
907.557	17448
907.674	17455
907.79	17326
907.907	17429
908.023	17429
908.139	17307
908.256	17239
908.372	17235
908.488	17242
908.604	17151
908.72	17113
908.836	17079
908.952	17060
909.068	17185
909.184	17185
909.3	17071
909.415	17064
909.531	17056
909.647	16877
909.762	16782
909.878	16729
909.993	16805
910.108	16752
910.224	16729
910.339	16694
910.454	16672
910.57	16584
910.685	16653
910.8	16805
910.915	16744
911.03	16573
911.145	16432
911.259	16352
911.374	16497
911.489	16417
911.604	16249
911.718	16143
911.833	16162
911.947	16040
912.062	16059
912.176	16154
912.291	16154
912.405	16147
912.519	16325
912.633	16226
912.748	16135
912.862	16059
912.976	15911
913.09	15812
913.204	15964
913.318	15934
913.431	16040
913.545	15949
913.659	16059
913.772	15869
913.886	15804
914	15732
914.113	15793
914.226	15884
914.34	15755
914.453	15591
914.566	15797
914.68	15633
914.793	15656
914.906	15344
915.019	15294
915.132	15272
915.245	15302
915.358	15431
915.47	15252
915.583	15389
915.696	15279
915.809	15454
915.921	15443
916.034	15245
916.146	15188
916.259	15173
916.371	15313
916.483	15370
916.595	15237
916.708	15180
916.82	15116
916.932	15154
917.044	15192
917.156	15009
917.268	15005
917.38	15020
917.491	15017
917.603	15066
917.715	15028
917.826	14990
917.938	14887
918.049	14693
918.161	14933
918.272	15066
918.384	15005
918.495	14891
918.606	14773
918.717	14686
918.828	14754
918.939	14735
919.05	14606
919.161	14686
919.272	14571
919.383	14625
919.494	14807
919.604	14914
919.715	14678
919.826	14587
919.936	14674
920.047	14762
920.157	14670
920.267	14864
920.378	14579
920.488	14701
920.598	14868
920.708	14963
920.818	14773
920.928	14815
921.038	15024
921.148	14975
921.258	14682
921.368	14533
921.477	14419
921.587	14434
921.697	14298
921.806	14461
921.916	14233
922.025	14202
922.134	14111
922.244	14046
922.353	14058
922.462	13997
922.571	13921
922.68	13746
922.789	13734
922.898	13750
923.007	13715
923.116	13734
923.224	13685
923.333	13647
923.442	13578
923.55	13506
923.659	13521
923.767	13620
923.876	13487
923.984	13556
924.092	13384
924.201	13495
924.309	13453
924.417	13480
924.525	13388
924.633	13403
924.741	14336
924.849	13129
924.956	13381
925.064	13202
925.172	13126
925.279	13072
925.387	13118
925.494	13164
925.602	13209
925.709	13179
925.816	13088
925.924	13053
926.031	13095
926.138	13118
926.245	13057
926.352	13015
926.459	13137
926.566	13065
926.673	12920
926.779	12848
926.886	12806
926.993	12669
927.099	12776
927.206	12604
927.312	12707
927.419	12745
927.525	12658
927.631	12688
927.737	12593
927.843	12456
927.95	12388
928.056	12513
928.162	12483
928.267	12582
928.373	13160
928.479	12639
928.585	12300
928.69	12448
928.796	12445
928.901	12311
929.007	12155
929.112	12403
929.218	12323
929.323	12228
929.428	12216
929.533	12380
929.638	12129
929.743	12243
929.848	12262
929.953	12228
930.058	12079
930.163	11946
930.267	11923
930.372	11984
930.477	11878
930.581	12026
930.685	12007
930.79	11745
930.894	11897
930.998	11783
931.103	11996
931.207	11524
931.311	11493
931.415	11391
931.519	11193
931.623	11132
