Data from test_V78500241_2758.txt Node
Date: Fri Mar 25 16:00:54 CST 2022
User: usil
Spectrometer: V785-0024
Trigger mode: 0
Integration Time (sec): 4.000000E-1
Scans to average: 1
Nonlinearity correction enabled: false
Boxcar width: 0
Storing dark spectrum: false
XAxis mode: Wavelengths
Number of Pixels in Spectrum: 1024
>>>>>Begin Spectral Data<<<<<
801.071	29010
801.214	28930
801.356	28736
801.499	28660
801.641	28615
801.783	28531
801.926	28588
802.068	28512
802.211	28421
802.353	28424
802.496	28322
802.638	28299
802.78	28215
802.923	28291
803.065	28173
803.208	28234
803.35	28310
803.492	28318
803.635	28538
803.777	28318
803.919	28493
804.061	28831
804.204	28527
804.346	28508
804.488	28363
804.63	28417
804.773	28238
804.915	28474
805.057	28725
805.199	28538
805.341	28679
805.483	28615
805.626	28569
805.768	28565
805.91	28672
806.052	28683
806.194	28580
806.336	28824
806.478	28740
806.62	28481
806.762	28797
806.904	29010
807.046	29208
807.188	29090
807.33	29083
807.472	29200
807.614	29060
807.756	29105
807.898	29025
808.04	28927
808.182	29029
808.324	29033
808.465	29067
808.607	29159
808.749	29379
808.891	29478
809.033	29406
809.174	29391
809.316	29448
809.458	29478
809.6	29360
809.741	29330
809.883	29509
810.025	29570
810.166	29562
810.308	29691
810.45	29813
810.591	29592
810.733	29478
810.875	29440
811.016	29341
811.158	29334
811.299	29501
811.441	29585
811.582	29577
811.724	29501
811.865	29296
812.007	29410
812.148	29608
812.29	29539
812.431	29676
812.573	29676
812.714	29771
812.855	29843
812.997	30060
813.138	30114
813.279	30022
813.421	29859
813.562	29798
813.703	29847
813.845	29638
813.986	29322
814.127	29136
814.268	29140
814.41	29117
814.551	29174
814.692	29162
814.833	28915
814.974	29124
815.115	29140
815.256	28965
815.397	28873
815.539	29121
815.68	28908
815.821	28839
815.962	28919
816.103	28938
816.244	28771
816.385	28778
816.526	28672
816.666	28573
816.807	28394
816.948	28481
817.089	28588
817.23	28352
817.371	28306
817.512	28409
817.653	28417
817.793	28508
817.934	28409
818.075	28367
818.216	28512
818.356	28310
818.497	28253
818.638	28097
818.778	28131
818.919	28257
819.06	28238
819.2	28367
819.341	28538
819.481	28485
819.622	28611
819.762	28828
819.903	28759
820.043	28531
820.184	28531
820.324	28500
820.465	28675
820.605	28580
820.746	28645
820.886	28341
821.026	28504
821.167	28512
821.307	28603
821.447	28341
821.588	28394
821.728	28154
821.868	28078
822.008	27869
822.149	27911
822.289	27842
822.429	27652
822.569	27679
822.709	27690
822.849	27454
822.99	27450
823.13	27378
823.27	27405
823.41	27230
823.55	27062
823.69	27275
823.83	27165
823.97	27161
824.11	27055
824.25	26994
824.389	26986
824.529	27173
824.669	27157
824.809	27157
824.949	27252
825.089	27154
825.228	27089
825.368	26998
825.508	26940
825.648	27100
825.787	26967
825.927	27047
826.067	27070
826.206	26883
826.346	27150
826.485	26990
826.625	26994
826.765	27070
826.904	26979
827.044	26777
827.183	26731
827.323	26743
827.462	26895
827.601	26800
827.741	26724
827.88	26754
828.02	26514
828.159	26640
828.298	26689
828.437	26918
828.577	26640
828.716	26769
828.855	26636
828.994	26446
829.134	26286
829.273	26465
829.412	26294
829.551	26339
829.69	26434
829.829	26438
829.968	26404
830.107	26507
830.246	26442
830.385	26305
830.524	26145
830.663	26358
830.802	25947
830.941	25993
831.08	26012
831.219	26115
831.357	25997
831.496	26164
831.635	26039
831.774	25856
831.913	25795
832.051	25864
832.19	25795
832.329	25696
832.467	25662
832.606	25613
832.744	25655
832.883	25715
833.022	25662
833.16	25666
833.299	25635
833.437	25723
833.576	25727
833.714	25856
833.852	25704
833.991	25674
834.129	25727
834.267	25753
834.406	25753
834.544	25757
834.682	25738
834.821	25818
834.959	25795
835.097	25628
835.235	25734
835.373	25738
835.511	25723
835.65	25518
835.788	25563
835.926	25285
836.064	25400
836.202	25441
836.34	25563
836.478	25639
836.615	25453
836.753	25525
836.891	25499
837.029	25624
837.167	25533
837.305	25533
837.443	25381
837.58	25514
837.718	25426
837.856	25415
837.993	25373
838.131	25320
838.269	25278
838.406	25244
838.544	25247
838.681	25000
838.819	25057
838.956	24749
839.094	24795
839.231	24829
839.369	25038
839.506	25259
839.643	24985
839.781	24745
839.918	24783
840.055	24924
840.193	24764
840.33	24806
840.467	24726
840.604	24814
840.742	24992
840.879	24525
841.016	24696
841.153	24650
841.29	24867
841.427	24730
841.564	24711
841.701	24635
841.838	24684
841.975	24684
842.112	24528
842.249	24601
842.385	24486
842.522	24696
842.659	24601
842.796	24372
842.933	24498
843.069	24403
843.206	24486
843.343	24601
843.479	24642
843.616	24479
843.752	24327
843.889	24262
844.025	24498
844.162	24148
844.298	24304
844.435	24266
844.571	24239
844.708	24407
844.844	24426
844.98	24319
845.117	24388
845.253	24159
845.389	24194
845.525	24171
845.661	24018
845.798	23973
845.934	24068
846.07	24003
846.206	24045
846.342	24034
846.478	24079
846.614	23794
846.75	23745
846.886	23726
847.022	23756
847.158	23729
847.294	23733
847.429	23809
847.565	23726
847.701	23828
847.837	23398
847.972	23379
848.108	23531
848.244	23478
848.379	23322
848.515	23250
848.65	23200
848.786	23273
848.921	23345
849.057	23459
849.192	23501
849.328	23345
849.463	23292
849.598	23280
849.734	23231
849.869	23140
850.004	23022
850.14	23094
850.275	22987
850.41	22938
850.545	23033
850.68	23044
850.815	23124
850.95	23014
851.085	23223
851.22	23227
851.355	23102
851.49	23083
851.625	22957
851.76	23098
851.895	22987
852.03	22873
852.165	22934
852.299	23083
852.434	23121
852.569	23033
852.703	22877
852.838	23041
852.973	23197
853.107	23178
853.242	22908
853.376	22858
853.511	22679
853.645	22873
853.78	22976
853.914	22896
854.048	22812
854.183	22869
854.317	22953
854.451	23090
854.585	22854
854.72	22812
854.854	22930
854.988	22710
855.122	22881
855.256	22778
855.39	22961
855.524	22915
855.658	22991
855.792	22961
855.926	22858
856.06	22820
856.194	22930
856.327	22866
856.461	22790
856.595	22816
856.729	22885
856.862	22946
856.996	22869
857.13	22976
857.263	22946
857.397	22946
857.53	22892
857.664	23033
857.797	23018
857.931	23060
858.064	22957
858.197	22889
858.331	22934
858.464	22824
858.597	22774
858.731	22831
858.864	22930
858.997	22790
859.13	22850
859.263	22938
859.396	22953
859.529	22824
859.662	22877
859.795	22923
859.928	22843
860.061	23048
860.194	23178
860.327	23060
860.46	22889
860.592	23136
860.725	23109
860.858	23033
860.99	22919
861.123	22847
861.256	22782
861.388	22786
861.521	23577
861.653	22618
861.786	22694
861.918	22797
862.05	22790
862.183	22771
862.315	22835
862.447	22881
862.58	22736
862.712	22588
862.844	22630
862.976	22664
863.108	22637
863.24	23121
863.372	22417
863.504	22721
863.636	22557
863.768	22588
863.9	22675
864.032	22569
864.164	22523
864.296	22622
864.428	22607
864.559	22607
864.691	22793
864.823	22508
864.954	22523
865.086	22599
865.217	22557
865.349	22287
865.48	22451
865.612	22333
865.743	22630
865.875	22440
866.006	22356
866.137	22462
866.269	22455
866.4	22489
866.531	22276
866.662	22440
866.793	22424
866.924	22337
867.055	22459
867.186	22432
867.317	22310
867.448	22287
867.579	22287
867.71	22295
867.841	22371
867.972	22371
868.103	22284
868.233	22447
868.364	22329
868.495	22363
868.625	22561
868.756	22740
868.886	22512
869.017	22554
869.147	22641
869.278	22717
869.408	22725
869.539	22622
869.669	22683
869.799	22694
869.929	22752
870.06	22740
870.19	22908
870.32	22938
870.45	23090
870.58	22908
870.71	23220
870.84	23105
870.97	23003
871.1	22976
871.23	23242
871.36	23231
871.489	23166
871.619	23178
871.749	23231
871.879	23189
872.008	23315
872.138	23246
872.267	23181
872.397	23098
872.526	23029
872.656	23200
872.785	23159
872.915	23299
873.044	23239
873.173	23254
873.303	23299
873.432	23181
873.561	23406
873.69	23136
873.819	23265
873.948	23246
874.077	23227
874.206	23113
874.335	23151
874.464	23345
874.593	23509
874.722	23250
874.851	23467
874.979	23330
875.108	23433
875.237	23318
875.365	23356
875.494	23421
875.623	23421
875.751	23410
875.88	23524
876.008	23486
876.136	23509
876.265	23779
876.393	24079
876.521	23954
876.65	23908
876.778	23874
876.906	23745
877.034	23832
877.162	23821
877.29	23741
877.418	23798
877.546	23821
877.674	23718
877.802	23923
877.93	23745
878.058	23794
878.185	23703
878.313	23687
878.441	23714
878.568	23630
878.696	23756
878.824	23798
878.951	23813
879.079	23920
879.206	24022
879.333	23866
879.461	23783
879.588	23843
879.715	24102
879.842	24015
879.97	23859
880.097	23630
880.224	23691
880.351	23604
880.478	23482
880.605	23554
880.732	23699
880.859	23847
880.986	23509
881.112	23665
881.239	23425
881.366	23322
881.493	23216
881.619	23048
881.746	23166
881.872	23178
881.999	23121
882.125	23086
882.252	23178
882.378	23086
882.505	23208
882.631	22976
882.757	22809
882.883	22942
883.01	22752
883.136	22873
883.262	22641
883.388	22725
883.514	22820
883.64	22850
883.766	22733
883.892	22584
884.018	22698
884.143	22675
884.269	22881
884.395	22493
884.52	22481
884.646	22462
884.772	22508
884.897	22333
885.023	22466
885.148	22641
885.274	22645
885.399	22432
885.524	22436
885.65	22466
885.775	22443
885.9	22405
886.025	22577
886.15	22466
886.275	22344
886.4	22272
886.525	22348
886.65	22325
886.775	22257
886.9	22584
887.025	22710
887.149	22451
887.274	22242
887.399	22238
887.523	22166
887.648	22124
887.773	22067
887.897	22322
888.021	22253
888.146	22086
888.27	22188
888.395	22257
888.519	22268
888.643	22257
888.767	22268
888.891	21964
889.015	22025
889.139	22078
889.263	21945
889.387	22131
889.511	22169
889.635	22051
889.759	21960
889.883	21979
890.006	21991
890.13	22055
890.254	21926
890.377	21850
890.501	21823
890.624	21694
890.748	21884
890.871	21660
890.995	21610
891.118	21431
891.241	21553
891.364	21576
891.488	21667
891.611	21374
891.734	21496
891.857	21595
891.98	21542
892.103	21625
892.226	21572
892.349	21561
892.471	21351
892.594	21393
892.717	21526
892.839	21420
892.962	21424
893.085	21504
893.207	21386
893.33	21374
893.452	21363
893.575	21557
893.697	21477
893.819	21671
893.941	21660
894.064	21564
894.186	21420
894.308	21332
894.43	21462
894.552	21580
894.674	21561
894.796	21370
894.918	21401
895.04	21526
895.161	21412
895.283	21500
895.405	21313
895.526	21466
895.648	21401
895.769	21424
895.891	21408
896.012	21397
896.134	21450
896.255	21351
896.376	21348
896.498	21378
896.619	21401
896.74	21363
896.861	21348
896.982	21838
897.103	21812
897.224	21622
897.345	21614
897.466	21660
897.587	21682
897.708	21759
897.828	21701
897.949	21587
898.07	21370
898.19	21564
898.311	21728
898.431	21515
898.552	21660
898.672	21629
898.792	21507
898.913	21583
899.033	21412
899.153	21412
899.273	21173
899.393	21268
899.513	21249
899.633	21321
899.753	21397
899.873	21176
899.993	21359
900.113	21268
900.232	21355
900.352	21230
900.472	21207
900.591	20979
900.711	21066
900.83	21020
900.95	21074
901.069	21146
901.189	20941
901.308	20682
901.427	20632
901.546	20552
901.665	20583
901.784	20594
901.904	20469
902.023	20408
902.141	20195
902.26	20134
902.379	20267
902.498	20164
902.617	20005
902.735	20191
902.854	20168
902.973	20111
903.091	19776
903.21	19791
903.328	19860
903.446	19753
903.565	19628
903.683	19540
903.801	19457
903.919	19419
904.038	19514
904.156	19460
904.274	19468
904.392	19381
904.51	19278
904.627	19289
904.745	19419
904.863	19369
904.981	19160
905.098	18973
905.216	19008
905.334	19247
905.451	19038
905.569	19023
905.686	19042
905.803	19000
905.921	18821
906.038	18856
906.155	18825
906.272	18681
906.389	18616
906.506	18620
906.623	18669
906.74	18532
906.857	18525
906.974	18365
907.091	18631
907.208	18684
907.324	18494
907.441	18410
907.557	18277
907.674	18296
907.79	18243
907.907	18224
908.023	18300
908.139	18319
908.256	18304
908.372	18121
908.488	18041
908.604	18053
908.72	18007
908.836	17969
908.952	17923
909.068	18106
909.184	17992
909.3	17923
909.415	18026
909.531	17882
909.647	17684
909.762	17608
909.878	17707
909.993	17634
910.108	17589
910.224	17509
910.339	17604
910.454	17501
910.57	17512
910.685	17379
910.8	17710
910.915	17524
911.03	17474
911.145	17239
911.259	17227
911.374	17208
911.489	17113
911.604	17079
911.718	16972
911.833	16968
911.947	16934
912.062	16752
912.176	16881
912.291	16980
912.405	17056
912.519	17105
912.633	17147
912.748	16961
912.862	16976
912.976	16748
913.09	16672
913.204	16717
913.318	16805
913.431	16782
913.545	16805
913.659	16862
913.772	16721
913.886	16626
914	16489
914.113	16622
914.226	16752
914.34	16565
914.453	16394
914.566	16485
914.68	16481
914.793	16386
914.906	16196
915.019	16238
915.132	16013
915.245	16006
915.358	16135
915.47	16063
915.583	16158
915.696	16128
915.809	16097
915.921	16177
916.034	16086
916.146	15941
916.259	15960
916.371	16010
916.483	16112
916.595	15983
916.708	15949
916.82	15823
916.932	15880
917.044	15884
917.156	15846
917.268	15724
917.38	15793
917.491	15899
917.603	15759
917.715	15835
917.826	15816
917.938	15690
918.049	15488
918.161	15603
918.272	15785
918.384	15812
918.495	15656
918.606	15515
918.717	15473
918.828	15473
918.939	15530
919.05	15389
919.161	15580
919.272	15237
919.383	15340
919.494	15542
919.604	15538
919.715	15488
919.826	15275
919.936	15393
920.047	15526
920.157	15408
920.267	15633
920.378	15450
920.488	15401
920.598	15618
920.708	15816
920.818	15549
920.928	15572
921.038	15720
921.148	15671
921.258	15351
921.368	15237
921.477	15256
921.587	15146
921.697	15039
921.806	15207
921.916	14982
922.025	14845
922.134	14788
922.244	14674
922.353	14906
922.462	14632
922.571	14571
922.68	14446
922.789	14355
922.898	14412
923.007	14385
923.116	14419
923.224	14408
923.333	14423
923.442	14324
923.55	14126
923.659	14218
923.767	14370
923.876	14202
923.984	14199
924.092	14126
924.201	14176
924.309	14119
924.417	14100
924.525	14100
924.633	14107
924.741	14986
924.849	13803
924.956	13989
925.064	13833
925.172	13769
925.279	13772
925.387	13902
925.494	13818
925.602	13803
925.709	13776
925.816	13628
925.924	13712
926.031	13761
926.138	13658
926.245	13811
926.352	13662
926.459	13799
926.566	13776
926.673	13689
926.779	13529
926.886	13525
926.993	13392
927.099	13297
927.206	13312
927.312	13293
927.419	13312
927.525	13282
927.631	13384
927.737	13240
927.843	13179
927.95	13057
928.056	13183
928.162	13156
928.267	13217
928.373	13681
928.479	13236
928.585	12977
928.69	13149
928.796	13152
928.901	13038
929.007	12791
929.112	12932
929.218	13031
929.323	12894
929.428	12726
929.533	12973
929.638	12806
929.743	12707
929.848	12798
929.953	12757
930.058	12692
930.163	12521
930.267	12517
930.372	12642
930.477	12566
930.581	12753
930.685	12578
930.79	12391
930.894	12475
930.998	12323
931.103	12525
931.207	12140
931.311	11961
931.415	11897
931.519	11836
931.623	11805
