Data from test_V78500241_2307.txt Node
Date: Fri Mar 25 15:57:46 CST 2022
User: usil
Spectrometer: V785-0024
Trigger mode: 0
Integration Time (sec): 4.000000E-1
Scans to average: 1
Nonlinearity correction enabled: false
Boxcar width: 0
Storing dark spectrum: false
XAxis mode: Wavelengths
Number of Pixels in Spectrum: 1024
>>>>>Begin Spectral Data<<<<<
801.071	29067
801.214	28862
801.356	28691
801.499	28618
801.641	28527
801.783	28565
801.926	28634
802.068	28535
802.211	28577
802.353	28447
802.496	28295
802.638	28204
802.78	28280
802.923	28188
803.065	28135
803.208	28204
803.35	28242
803.492	28428
803.635	28451
803.777	28341
803.919	28440
804.061	28767
804.204	28554
804.346	28634
804.488	28519
804.63	28398
804.773	28329
804.915	28603
805.057	28645
805.199	28569
805.341	28687
805.483	28698
805.626	28694
805.768	28550
805.91	28668
806.052	28793
806.194	28660
806.336	28854
806.478	28691
806.62	28717
806.762	28843
806.904	28980
807.046	29212
807.188	29220
807.33	29147
807.472	29223
807.614	29117
807.756	29041
807.898	28987
808.04	28896
808.182	28900
808.324	29014
808.465	29041
808.607	29128
808.749	29353
808.891	29406
809.033	29600
809.174	29452
809.316	29254
809.458	29296
809.6	29364
809.741	29307
809.883	29528
810.025	29707
810.166	29691
810.308	29615
810.45	29581
810.591	29425
810.733	29512
810.875	29459
811.016	29414
811.158	29220
811.299	29387
811.441	29531
811.582	29379
811.724	29410
811.865	29490
812.007	29429
812.148	29520
812.29	29459
812.431	29585
812.573	29737
812.714	29676
812.855	29897
812.997	30091
813.138	30171
813.279	30049
813.421	29840
813.562	29904
813.703	29657
813.845	29585
813.986	29307
814.127	29204
814.268	28965
814.41	29121
814.551	29022
814.692	29242
814.833	29117
814.974	29166
815.115	29235
815.256	28900
815.397	29025
815.539	28961
815.68	28885
815.821	28877
815.962	28999
816.103	28896
816.244	28862
816.385	28729
816.526	28660
816.666	28561
816.807	28451
816.948	28421
817.089	28459
817.23	28459
817.371	28440
817.512	28386
817.653	28497
817.793	28371
817.934	28337
818.075	28428
818.216	28405
818.356	28432
818.497	28421
818.638	28177
818.778	28154
818.919	28356
819.06	28341
819.2	28303
819.341	28500
819.481	28462
819.622	28516
819.762	28839
819.903	28763
820.043	28790
820.184	28630
820.324	28569
820.465	28603
820.605	28451
820.746	28542
820.886	28405
821.026	28565
821.167	28542
821.307	28618
821.447	28421
821.588	28325
821.728	28363
821.868	28048
822.008	27972
822.149	27987
822.289	27911
822.429	27690
822.569	27629
822.709	27458
822.849	27587
822.99	27561
823.13	27447
823.27	27367
823.41	27241
823.55	27245
823.69	27233
823.83	27199
823.97	27214
824.11	27043
824.25	27013
824.389	27043
824.529	27123
824.669	26929
824.809	27150
824.949	27058
825.089	27176
825.228	27127
825.368	26998
825.508	26899
825.648	27070
825.787	27013
825.927	27024
826.067	26998
826.206	26960
826.346	26998
826.485	27001
826.625	27062
826.765	26918
826.904	26986
827.044	26750
827.183	26659
827.323	26648
827.462	26686
827.601	26792
827.741	26682
827.88	26830
828.02	26670
828.159	26667
828.298	26644
828.437	26815
828.577	26708
828.716	26765
828.855	26533
828.994	26465
829.134	26313
829.273	26469
829.412	26453
829.551	26309
829.69	26393
829.829	26389
829.968	26423
830.107	26396
830.246	26347
830.385	26328
830.524	26358
830.663	26073
830.802	26134
830.941	25993
831.08	25917
831.219	26012
831.357	26050
831.496	26233
831.635	25932
831.774	25852
831.913	25708
832.051	25734
832.19	25750
832.329	25761
832.467	25613
832.606	25495
832.744	25499
832.883	25643
833.022	25563
833.16	25613
833.299	25655
833.437	25635
833.576	25708
833.714	25693
833.852	25742
833.991	25750
834.129	25742
834.267	25723
834.406	25639
834.544	25780
834.682	25689
834.821	25765
834.959	25894
835.097	25655
835.235	25696
835.373	25632
835.511	25704
835.65	25499
835.788	25521
835.926	25445
836.064	25365
836.202	25358
836.34	25445
836.478	25586
836.615	25586
836.753	25495
836.891	25559
837.029	25559
837.167	25327
837.305	25388
837.443	25419
837.58	25324
837.718	25430
837.856	25403
837.993	25270
838.131	25244
838.269	25126
838.406	25236
838.544	25050
838.681	25008
838.819	24985
838.956	24863
839.094	24844
839.231	24901
839.369	25042
839.506	25240
839.643	25015
839.781	24787
839.918	24840
840.055	24795
840.193	24844
840.33	24635
840.467	24639
840.604	24715
840.742	24989
840.879	24612
841.016	24661
841.153	24604
841.29	24821
841.427	24616
841.564	24677
841.701	24734
841.838	24635
841.975	24574
842.112	24574
842.249	24479
842.385	24547
842.522	24684
842.659	24528
842.796	24365
842.933	24422
843.069	24422
843.206	24437
843.343	24483
843.479	24582
843.616	24399
843.752	24205
843.889	24209
844.025	24384
844.162	24076
844.298	24395
844.435	24262
844.571	24182
844.708	24194
844.844	24429
844.98	24471
845.117	24266
845.253	24216
845.389	24083
845.525	24140
845.661	24026
845.798	24022
845.934	24144
846.07	23908
846.206	23889
846.342	24007
846.478	23939
846.614	23634
846.75	23604
846.886	23638
847.022	23821
847.158	23703
847.294	23718
847.429	23703
847.565	23608
847.701	23980
847.837	23421
847.972	23349
848.108	23444
848.244	23535
848.379	23280
848.515	23235
848.65	23220
848.786	23288
848.921	23337
849.057	23349
849.192	23345
849.328	23356
849.463	23269
849.598	23174
849.734	23166
849.869	23109
850.004	22953
850.14	22999
850.275	22980
850.41	22965
850.545	22839
850.68	22755
850.815	23079
850.95	23098
851.085	23200
851.22	23151
851.355	22934
851.49	22995
851.625	22942
851.76	22919
851.895	22915
852.03	22927
852.165	23029
852.299	23052
852.434	23056
852.569	23044
852.703	22984
852.838	23117
852.973	23140
853.107	23151
853.242	22904
853.376	22820
853.511	22664
853.645	22790
853.78	23003
853.914	22831
854.048	22702
854.183	22759
854.317	22919
854.451	23056
854.585	22881
854.72	22839
854.854	22904
854.988	22869
855.122	22774
855.256	22694
855.39	22793
855.524	22858
855.658	22835
855.792	22774
855.926	22797
856.06	22873
856.194	23018
856.327	22854
856.461	22900
856.595	22782
856.729	22786
856.862	22946
856.996	22953
857.13	22889
857.263	23025
857.397	22927
857.53	22831
857.664	22835
857.797	22946
857.931	23003
858.064	22694
858.197	22900
858.331	22831
858.464	22748
858.597	22706
858.731	22691
858.864	22793
858.997	22782
859.13	22752
859.263	22755
859.396	22949
859.529	22809
859.662	22938
859.795	22706
859.928	22748
860.061	22976
860.194	23121
860.327	22987
860.46	22843
860.592	22957
860.725	23006
860.858	22934
860.99	22816
861.123	22805
861.256	22755
861.388	22862
861.521	23493
861.653	22805
861.786	22474
861.918	22710
862.05	22710
862.183	22717
862.315	22755
862.447	22748
862.58	22771
862.712	22504
862.844	22478
862.976	22656
863.108	22622
863.24	23018
863.372	22417
863.504	22569
863.636	22531
863.768	22561
863.9	22546
864.032	22413
864.164	22504
864.296	22512
864.428	22664
864.559	22512
864.691	22668
864.823	22592
864.954	22424
865.086	22455
865.217	22428
865.349	22371
865.48	22538
865.612	22447
865.743	22447
865.875	22481
866.006	22295
866.137	22455
866.269	22295
866.4	22344
866.531	22386
866.662	22379
866.793	22436
866.924	22318
867.055	22428
867.186	22322
867.317	22306
867.448	22242
867.579	22382
867.71	22188
867.841	22242
867.972	22333
868.103	22352
868.233	22371
868.364	22371
868.495	22516
868.625	22523
868.756	22649
868.886	22459
869.017	22512
869.147	22588
869.278	22755
869.408	22592
869.539	22573
869.669	22626
869.799	22736
869.929	22786
870.06	22664
870.19	22904
870.32	22862
870.45	22957
870.58	22927
870.71	23044
870.84	22987
870.97	23048
871.1	23044
871.23	23079
871.36	23018
871.489	23044
871.619	23117
871.749	23208
871.879	23193
872.008	23273
872.138	23147
872.267	23136
872.397	23079
872.526	22946
872.656	23006
872.785	23060
872.915	23181
873.044	23280
873.173	23193
873.303	23296
873.432	23193
873.561	23448
873.69	23246
873.819	23220
873.948	23311
874.077	23181
874.206	23166
874.335	23178
874.464	23497
874.593	23463
874.722	23444
874.851	23471
874.979	23486
875.108	23581
875.237	23471
875.365	23284
875.494	23379
875.623	23383
875.751	23356
875.88	23509
876.008	23436
876.136	23471
876.265	23790
876.393	23912
876.521	23901
876.65	23904
876.778	23882
876.906	23764
877.034	23805
877.162	23684
877.29	23665
877.418	23756
877.546	23714
877.674	23840
877.802	23733
877.93	23748
878.058	23748
878.185	23611
878.313	23646
878.441	23649
878.568	23512
878.696	23703
878.824	23771
878.951	23836
879.079	23897
879.206	24003
879.333	23840
879.461	23741
879.588	23912
879.715	23920
879.842	23969
879.97	23813
880.097	23600
880.224	23436
880.351	23745
880.478	23619
880.605	23531
880.732	23619
880.859	23707
880.986	23600
881.112	23623
881.239	23433
881.366	23360
881.493	23193
881.619	23105
881.746	23147
881.872	23223
881.999	23094
882.125	23162
882.252	23155
882.378	23193
882.505	23200
882.631	23003
882.757	22611
882.883	22911
883.01	22778
883.136	22843
883.262	22733
883.388	22653
883.514	22759
883.64	22858
883.766	22660
883.892	22607
884.018	22481
884.143	22733
884.269	22793
884.395	22535
884.52	22337
884.646	22432
884.772	22409
884.897	22333
885.023	22310
885.148	22538
885.274	22580
885.399	22519
885.524	22375
885.65	22455
885.775	22459
885.9	22348
886.025	22527
886.15	22584
886.275	22303
886.4	22287
886.525	22333
886.65	22329
886.775	22272
886.9	22386
887.025	22573
887.149	22352
887.274	22196
887.399	22272
887.523	22249
887.648	22128
887.773	22090
887.897	22124
888.021	22234
888.146	22097
888.27	22382
888.395	22219
888.519	22181
888.643	22177
888.767	22173
888.891	22128
889.015	21998
889.139	22025
889.263	22025
889.387	22051
889.511	22181
889.635	22116
889.759	21937
889.883	22013
890.006	21949
890.13	22086
890.254	21842
890.377	21934
890.501	21686
890.624	21709
890.748	21682
890.871	21561
890.995	21481
891.118	21416
891.241	21591
891.364	21462
891.488	21656
891.611	21511
891.734	21576
891.857	21564
891.98	21648
892.103	21545
892.226	21443
892.349	21454
892.471	21359
892.594	21542
892.717	21500
892.839	21428
892.962	21496
893.085	21481
893.207	21443
893.33	21146
893.452	21256
893.575	21420
893.697	21378
893.819	21538
893.941	21523
894.064	21610
894.186	21245
894.308	21374
894.43	21568
894.552	21606
894.674	21386
894.796	21249
894.918	21393
895.04	21321
895.161	21439
895.283	21431
895.405	21325
895.526	21321
895.648	21306
895.769	21443
895.891	21370
896.012	21386
896.134	21332
896.255	21355
896.376	21317
896.498	21447
896.619	21420
896.74	21291
896.861	21386
896.982	21629
897.103	21747
897.224	21622
897.345	21595
897.466	21576
897.587	21572
897.708	21641
897.828	21728
897.949	21603
898.07	21454
898.19	21469
898.311	21603
898.431	21618
898.552	21641
898.672	21610
898.792	21526
898.913	21618
899.033	21439
899.153	21420
899.273	21260
899.393	21306
899.513	21359
899.633	21188
899.753	21332
899.873	21355
899.993	21298
900.113	21230
900.232	21310
900.352	21214
900.472	21127
900.591	21135
900.711	21055
900.83	20944
900.95	21096
901.069	21199
901.189	20910
901.308	20682
901.427	20556
901.546	20670
901.665	20571
901.784	20606
901.904	20408
902.023	20347
902.141	20145
902.26	20096
902.379	20134
902.498	20183
902.617	20100
902.735	20240
902.854	19974
902.973	20050
903.091	19795
903.21	19651
903.328	19769
903.446	19734
903.565	19628
903.683	19476
903.801	19434
903.919	19571
904.038	19495
904.156	19411
904.274	19392
904.392	19266
904.51	19388
904.627	19304
904.745	19373
904.863	19491
904.981	19187
905.098	18958
905.216	18977
905.334	19027
905.451	18882
905.569	19000
905.686	19050
905.803	19031
905.921	18840
906.038	18852
906.155	18757
906.272	18661
906.389	18692
906.506	18479
906.623	18654
906.74	18547
906.857	18330
906.974	18490
907.091	18620
907.208	18692
907.324	18486
907.441	18327
907.557	18357
907.674	18148
907.79	18068
907.907	18136
908.023	18171
908.139	18133
908.256	18125
908.372	18171
908.488	18152
908.604	17977
908.72	17904
908.836	17908
908.952	17950
909.068	17969
909.184	18076
909.3	17912
909.415	17988
909.531	17973
909.647	17714
909.762	17627
909.878	17577
909.993	17581
910.108	17570
910.224	17547
910.339	17501
910.454	17398
910.57	17376
910.685	17349
910.8	17676
910.915	17471
911.03	17372
911.145	17242
911.259	17204
911.374	17086
911.489	17181
911.604	16987
911.718	16923
911.833	16987
911.947	16816
912.062	16801
912.176	16797
912.291	16839
912.405	16942
912.519	16991
912.633	17060
912.748	16869
912.862	16797
912.976	16767
913.09	16637
913.204	16618
913.318	16729
913.431	16869
913.545	16816
913.659	16908
913.772	16744
913.886	16554
914	16497
914.113	16645
914.226	16637
914.34	16717
914.453	16356
914.566	16554
914.68	16242
914.793	16329
914.906	16169
915.019	16055
915.132	15941
915.245	16006
915.358	16112
915.47	16040
915.583	16048
915.696	16013
915.809	16181
915.921	16276
916.034	16044
916.146	15937
916.259	16082
916.371	16105
916.483	15968
916.595	15972
916.708	15892
916.82	15895
916.932	15922
917.044	15888
917.156	15831
917.268	15747
917.38	15724
917.491	15610
917.603	15694
917.715	15793
917.826	15800
917.938	15660
918.049	15568
918.161	15576
918.272	15739
918.384	15785
918.495	15629
918.606	15519
918.717	15420
918.828	15519
918.939	15473
919.05	15344
919.161	15393
919.272	15283
919.383	15405
919.494	15454
919.604	15724
919.715	15462
919.826	15382
919.936	15424
920.047	15507
920.157	15435
920.267	15576
920.378	15485
920.488	15313
920.598	15614
920.708	15568
920.818	15603
920.928	15469
921.038	15492
921.148	15694
921.258	15283
921.368	15283
921.477	15146
921.587	15077
921.697	14925
921.806	15097
921.916	14948
922.025	14777
922.134	14739
922.244	14617
922.353	14743
922.462	14571
922.571	14488
922.68	14427
922.789	14336
922.898	14446
923.007	14343
923.116	14412
923.224	14324
923.333	14374
923.442	14282
923.55	14119
923.659	14237
923.767	14256
923.876	14233
923.984	14240
924.092	14058
924.201	14176
924.309	14058
924.417	14180
924.525	14126
924.633	13997
924.741	14899
924.849	13852
924.956	13978
925.064	13811
925.172	13704
925.279	13727
925.387	13814
925.494	13677
925.602	13928
925.709	13841
925.816	13586
925.924	13719
926.031	13761
926.138	13666
926.245	13685
926.352	13586
926.459	13681
926.566	13685
926.673	13499
926.779	13480
926.886	13426
926.993	13324
927.099	13400
927.206	13244
927.312	13198
927.419	13301
927.525	13324
927.631	13308
927.737	13149
927.843	13126
927.95	13095
928.056	13015
928.162	13088
928.267	13129
928.373	13803
928.479	13118
928.585	12935
928.69	13031
928.796	13072
928.901	12939
929.007	12715
929.112	12951
929.218	12875
929.323	12856
929.428	12692
929.533	12935
929.638	12768
929.743	12798
929.848	12726
929.953	12726
930.058	12597
930.163	12433
930.267	12479
930.372	12608
930.477	12486
930.581	12677
930.685	12426
930.79	12380
930.894	12315
930.998	12277
931.103	12448
931.207	12079
931.311	12015
931.415	11912
931.519	11722
931.623	11695
