Data from test_V78500241_779.txt Node
Date: Fri Mar 25 15:47:11 CST 2022
User: usil
Spectrometer: V785-0024
Trigger mode: 0
Integration Time (sec): 4.000000E-1
Scans to average: 1
Nonlinearity correction enabled: false
Boxcar width: 0
Storing dark spectrum: false
XAxis mode: Wavelengths
Number of Pixels in Spectrum: 1024
>>>>>Begin Spectral Data<<<<<
801.071	28044
801.214	27968
801.356	27728
801.499	27614
801.641	27447
801.783	27500
801.926	27762
802.068	27561
802.211	27477
802.353	27386
802.496	27214
802.638	27226
802.78	27233
802.923	27108
803.065	27062
803.208	27233
803.35	27207
803.492	27344
803.635	27287
803.777	27287
803.919	27454
804.061	27759
804.204	27439
804.346	27477
804.488	27249
804.63	27298
804.773	27245
804.915	27283
805.057	27591
805.199	27382
805.341	27412
805.483	27397
805.626	27622
805.768	27504
805.91	27427
806.052	27378
806.194	27416
806.336	27603
806.478	27557
806.62	27652
806.762	27652
806.904	27759
807.046	27991
807.188	27994
807.33	28074
807.472	27941
807.614	27869
807.756	27850
807.898	27838
808.04	27823
808.182	27812
808.324	27899
808.465	27827
808.607	28059
808.749	28219
808.891	28333
809.033	28314
809.174	28211
809.316	28253
809.458	28215
809.6	28055
809.741	28371
809.883	28230
810.025	28447
810.166	28310
810.308	28413
810.45	28489
810.591	28204
810.733	28116
810.875	28029
811.016	28143
811.158	27911
811.299	28356
811.441	28329
811.582	28284
811.724	28215
811.865	28097
812.007	28147
812.148	28048
812.29	28295
812.431	28409
812.573	28466
812.714	28706
812.855	28672
812.997	28809
813.138	28892
813.279	28866
813.421	28790
813.562	28603
813.703	28588
813.845	28379
813.986	28097
814.127	28067
814.268	27941
814.41	27838
814.551	27804
814.692	27972
814.833	27747
814.974	27785
815.115	27983
815.256	27770
815.397	27739
815.539	27762
815.68	27713
815.821	27641
815.962	27732
816.103	27587
816.244	27496
816.385	27538
816.526	27420
816.666	27222
816.807	27127
816.948	27325
817.089	27264
817.23	27233
817.371	27260
817.512	27157
817.653	27119
817.793	27032
817.934	27131
818.075	27230
818.216	27123
818.356	27017
818.497	27020
818.638	26902
818.778	26933
818.919	26902
819.06	26880
819.2	27169
819.341	27108
819.481	27211
819.622	27344
819.762	27526
819.903	27427
820.043	27325
820.184	27199
820.324	27241
820.465	27336
820.605	27157
820.746	27176
820.886	27169
821.026	27279
821.167	27283
821.307	27355
821.447	27230
821.588	27051
821.728	26933
821.868	26800
822.008	26762
822.149	26663
822.289	26533
822.429	26298
822.569	26301
822.709	26256
822.849	26153
822.99	26058
823.13	26092
823.27	26054
823.41	25875
823.55	25750
823.69	25921
823.83	26016
823.97	25814
824.11	25833
824.25	25769
824.389	25902
824.529	25936
824.669	25814
824.809	25951
824.949	25830
825.089	25849
825.228	25837
825.368	25613
825.508	25537
825.648	25750
825.787	25655
825.927	25784
826.067	25476
826.206	25586
826.346	25651
826.485	25655
826.625	25734
826.765	25734
826.904	25689
827.044	25419
827.183	25358
827.323	25324
827.462	25430
827.601	25293
827.741	25137
827.88	25304
828.02	25396
828.159	25285
828.298	25343
828.437	25377
828.577	25221
828.716	25350
828.855	25270
828.994	25198
829.134	25084
829.273	25065
829.412	25050
829.551	24996
829.69	25076
829.829	25107
829.968	25099
830.107	25145
830.246	25129
830.385	25019
830.524	24924
830.663	24935
830.802	24821
830.941	24677
831.08	24559
831.219	24753
831.357	24703
831.496	24886
831.635	24734
831.774	24608
831.913	24612
832.051	24452
832.19	24471
832.329	24608
832.467	24247
832.606	24308
832.744	24323
832.883	24209
833.022	24437
833.16	24281
833.299	24498
833.437	24296
833.576	24384
833.714	24388
833.852	24433
833.991	24551
834.129	24429
834.267	24475
834.406	24505
834.544	24407
834.682	24426
834.821	24372
834.959	24490
835.097	24292
835.235	24334
835.373	24319
835.511	24456
835.65	24342
835.788	24235
835.926	24098
836.064	24098
836.202	24133
836.34	24121
836.478	24247
836.615	24235
836.753	24308
836.891	24209
837.029	24216
837.167	24182
837.305	24117
837.443	24015
837.58	23980
837.718	24152
837.856	24079
837.993	23824
838.131	24057
838.269	23897
838.406	23980
838.544	23920
838.681	23767
838.819	23718
838.956	23516
839.094	23592
839.231	23566
839.369	23691
839.506	23824
839.643	23714
839.781	23467
839.918	23482
840.055	23611
840.193	23474
840.33	23551
840.467	23490
840.604	23630
840.742	23828
840.879	23406
841.016	23318
841.153	23356
841.29	23497
841.427	23376
841.564	23478
841.701	23364
841.838	23360
841.975	23337
842.112	23341
842.249	23235
842.385	23254
842.522	23444
842.659	23299
842.796	23208
842.933	23155
843.069	23193
843.206	23109
843.343	23220
843.479	23117
843.616	23220
843.752	22984
843.889	22889
844.025	23117
844.162	22904
844.298	23003
844.435	22972
844.571	22942
844.708	22987
844.844	23124
844.98	23052
845.117	23029
845.253	23014
845.389	22759
845.525	22824
845.661	22805
845.798	22698
845.934	22664
846.07	22615
846.206	22801
846.342	22812
846.478	22569
846.614	22474
846.75	22352
846.886	22344
847.022	22538
847.158	22295
847.294	22451
847.429	22443
847.565	22371
847.701	22641
847.837	22082
847.972	22101
848.108	22226
848.244	22211
848.379	22105
848.515	21991
848.65	21972
848.786	22021
848.921	22010
849.057	22109
849.192	22067
849.328	22063
849.463	21949
849.598	21991
849.734	21876
849.869	21812
850.004	21823
850.14	21854
850.275	21797
850.41	21789
850.545	21713
850.68	21800
850.815	21869
850.95	21797
851.085	21907
851.22	21876
851.355	21732
851.49	21785
851.625	21679
851.76	21835
851.895	21618
852.03	21614
852.165	21698
852.299	21812
852.434	21865
852.569	21713
852.703	21915
852.838	21823
852.973	21903
853.107	21838
853.242	21603
853.376	21698
853.511	21477
853.645	21610
853.78	21667
853.914	21545
854.048	21458
854.183	21614
854.317	21667
854.451	21808
854.585	21603
854.72	21519
854.854	21705
854.988	21412
855.122	21576
855.256	21469
855.39	21606
855.524	21595
855.658	21625
855.792	21564
855.926	21591
856.06	21599
856.194	21720
856.327	21557
856.461	21587
856.595	21557
856.729	21496
856.862	21663
856.996	21603
857.13	21553
857.263	21656
857.397	21641
857.53	21599
857.664	21561
857.797	21603
857.931	21720
858.064	21591
858.197	21606
858.331	21545
858.464	21561
858.597	21466
858.731	21466
858.864	21500
858.997	21401
859.13	21580
859.263	21660
859.396	21698
859.529	21682
859.662	21580
859.795	21504
859.928	21599
860.061	21603
860.194	21675
860.327	21618
860.46	21641
860.592	21720
860.725	21762
860.858	21854
860.99	21591
861.123	21500
861.256	21561
861.388	21507
861.521	22261
861.653	21389
861.786	21348
861.918	21370
862.05	21439
862.183	21447
862.315	21534
862.447	21583
862.58	21462
862.712	21256
862.844	21336
862.976	21416
863.108	21245
863.24	21876
863.372	21256
863.504	21287
863.636	21283
863.768	21291
863.9	21260
864.032	21268
864.164	21203
864.296	21310
864.428	21382
864.559	21294
864.691	21321
864.823	21298
864.954	21218
865.086	21264
865.217	21291
865.349	21070
865.48	21180
865.612	21241
865.743	21367
865.875	21203
866.006	21203
866.137	21268
866.269	21161
866.4	21150
866.531	21119
866.662	21154
866.793	21252
866.924	21112
867.055	21104
867.186	20990
867.317	21047
867.448	21028
867.579	21104
867.71	21127
867.841	21089
867.972	21070
868.103	21001
868.233	21062
868.364	21146
868.495	21264
868.625	21477
868.756	21431
868.886	21355
869.017	21275
869.147	21481
869.278	21428
869.408	21462
869.539	21450
869.669	21363
869.799	21348
869.929	21523
870.06	21587
870.19	21644
870.32	21641
870.45	21698
870.58	21812
870.71	21804
870.84	21838
870.97	21747
871.1	21717
871.23	21926
871.36	21915
871.489	21770
871.619	21972
871.749	21968
871.879	21812
872.008	22097
872.138	21941
872.267	21945
872.397	21827
872.526	21804
872.656	21785
872.785	21652
872.915	21915
873.044	22109
873.173	22032
873.303	22025
873.432	21964
873.561	21915
873.69	21991
873.819	21842
873.948	21991
874.077	21903
874.206	21979
874.335	21979
874.464	22078
874.593	22196
874.722	22086
874.851	22238
874.979	22299
875.108	22207
875.237	22272
875.365	22131
875.494	22173
875.623	22341
875.751	22112
875.88	22204
876.008	22257
876.136	22394
876.265	22588
876.393	22634
876.521	22634
876.65	22531
876.778	22611
876.906	22550
877.034	22455
877.162	22493
877.29	22493
877.418	22497
877.546	22561
877.674	22592
877.802	22580
877.93	22535
878.058	22527
878.185	22500
878.313	22428
878.441	22459
878.568	22333
878.696	22538
878.824	22561
878.951	22607
879.079	22668
879.206	22850
879.333	22713
879.461	22622
879.588	22748
879.715	22771
879.842	22740
879.97	22607
880.097	22367
880.224	22268
880.351	22424
880.478	22215
880.605	22291
880.732	22352
880.859	22634
880.986	22466
881.112	22329
881.239	22219
881.366	22219
881.493	22006
881.619	22002
881.746	21975
881.872	21926
881.999	21755
882.125	21869
882.252	22032
882.378	21899
882.505	22017
882.631	21789
882.757	21629
882.883	21747
883.01	21736
883.136	21648
883.262	21473
883.388	21488
883.514	21679
883.64	21603
883.766	21553
883.892	21473
884.018	21340
884.143	21671
884.269	21622
884.395	21306
884.52	21161
884.646	21214
884.772	21268
884.897	21081
885.023	21245
885.148	21340
885.274	21473
885.399	21389
885.524	21230
885.65	21310
885.775	21336
885.9	21233
886.025	21344
886.15	21302
886.275	21264
886.4	21237
886.525	21264
886.65	21211
886.775	21127
886.9	21249
887.025	21412
887.149	21230
887.274	20979
887.399	20941
887.523	21085
887.648	20952
887.773	21017
887.897	21131
888.021	21127
888.146	20979
888.27	21070
888.395	21176
888.519	20960
888.643	21070
888.767	21062
888.891	20906
889.015	20781
889.139	20902
889.263	20864
889.387	20910
889.511	21005
889.635	20857
889.759	20861
889.883	20743
890.006	20861
890.13	20899
890.254	20910
890.377	20781
890.501	20598
890.624	20503
890.748	20762
890.871	20587
890.995	20434
891.118	20336
891.241	20396
891.364	20552
891.488	20514
891.611	20313
891.734	20431
891.857	20495
891.98	20374
892.103	20313
892.226	20404
892.349	20263
892.471	20263
892.594	20385
892.717	20309
892.839	20206
892.962	20381
893.085	20355
893.207	20202
893.33	20271
893.452	20138
893.575	20446
893.697	20313
893.819	20431
893.941	20598
894.064	20412
894.186	20233
894.308	20400
894.43	20499
894.552	20530
894.674	20381
894.796	20210
894.918	20374
895.04	20278
895.161	20419
895.283	20278
895.405	20237
895.526	20256
895.648	20309
895.769	20336
895.891	20419
896.012	20309
896.134	20355
896.255	20252
896.376	20298
896.498	20244
896.619	20385
896.74	20358
896.861	20438
896.982	20556
897.103	20655
897.224	20617
897.345	20484
897.466	20442
897.587	20556
897.708	20674
897.828	20511
897.949	20499
898.07	20328
898.19	20423
898.311	20689
898.431	20488
898.552	20480
898.672	20465
898.792	20549
898.913	20438
899.033	20385
899.153	20404
899.273	20294
899.393	20149
899.513	20278
899.633	20278
899.753	20210
899.873	20218
899.993	20271
900.113	20195
900.232	20183
900.352	20172
900.472	20020
900.591	20046
900.711	20103
900.83	19989
900.95	20138
901.069	20111
901.189	19936
901.308	19624
901.427	19681
901.546	19578
901.665	19628
901.784	19571
901.904	19605
902.023	19453
902.141	19225
902.26	19137
902.379	19247
902.498	19069
902.617	19160
902.735	19194
902.854	19145
902.973	18966
903.091	18867
903.21	18844
903.328	18795
903.446	18719
903.565	18627
903.683	18711
903.801	18460
903.919	18654
904.038	18547
904.156	18407
904.274	18395
904.392	18281
904.51	18327
904.627	18289
904.745	18342
904.863	18437
904.981	18091
905.098	18053
905.216	17999
905.334	18129
905.451	18049
905.569	18015
905.686	18079
905.803	18095
905.921	17745
906.038	18019
906.155	17832
906.272	17794
906.389	17718
906.506	17528
906.623	17615
906.74	17532
906.857	17566
906.974	17478
907.091	17703
907.208	17802
907.324	17642
907.441	17471
907.557	17292
907.674	17292
907.79	17075
907.907	17280
908.023	17250
908.139	17288
908.256	17307
908.372	17235
908.488	17060
908.604	16949
908.72	16946
908.836	17025
908.952	16976
909.068	17022
909.184	17094
909.3	17041
909.415	17006
909.531	17048
909.647	16702
909.762	16717
909.878	16660
909.993	16744
910.108	16630
910.224	16622
910.339	16755
910.454	16603
910.57	16489
910.685	16405
910.8	16694
910.915	16740
911.03	16455
911.145	16341
911.259	16242
911.374	16306
911.489	16211
911.604	16257
911.718	16006
911.833	16029
911.947	15918
912.062	15869
912.176	16120
912.291	16078
912.405	16112
912.519	16344
912.633	16204
912.748	16078
912.862	15968
912.976	15850
913.09	15743
913.204	15880
913.318	15838
913.431	15937
913.545	15945
913.659	15842
913.772	15812
913.886	15682
914	15633
914.113	15720
914.226	15679
914.34	15709
914.453	15610
914.566	15720
914.68	15469
914.793	15561
914.906	15355
915.019	15279
915.132	15287
915.245	15272
915.358	15214
915.47	15226
915.583	15169
915.696	15230
915.809	15359
915.921	15408
916.034	15157
916.146	15184
916.259	15085
916.371	15313
916.483	15218
916.595	15131
916.708	15081
916.82	15123
916.932	15036
917.044	15066
917.156	15020
917.268	14834
917.38	14975
917.491	14891
917.603	14853
917.715	14971
917.826	14998
917.938	14826
918.049	14632
918.161	14857
918.272	14952
918.384	14941
918.495	14838
918.606	14788
918.717	14549
918.828	14762
918.939	14739
919.05	14682
919.161	14625
919.272	14400
919.383	14461
919.494	14678
919.604	14785
919.715	14617
919.826	14526
919.936	14613
920.047	14621
920.157	14625
920.267	14891
920.378	14629
920.488	14617
920.598	14902
920.708	14880
920.818	14674
920.928	14724
921.038	14937
921.148	14826
921.258	14674
921.368	14427
921.477	14415
921.587	14450
921.697	14225
921.806	14400
921.916	14214
922.025	13989
922.134	13947
922.244	13925
922.353	14084
922.462	13925
922.571	13780
922.68	13723
922.789	13731
922.898	13704
923.007	13616
923.116	13594
923.224	13563
923.333	13609
923.442	13499
923.55	13441
923.659	13533
923.767	13556
923.876	13445
923.984	13369
924.092	13407
924.201	13422
924.309	13426
924.417	13430
924.525	13320
924.633	13266
924.741	14126
924.849	13095
924.956	13236
925.064	13107
925.172	12958
925.279	13015
925.387	13076
925.494	13053
925.602	13114
925.709	13053
925.816	12970
925.924	12970
926.031	12996
926.138	12985
926.245	12996
926.352	12840
926.459	13057
926.566	13076
926.673	12852
926.779	12867
926.886	12814
926.993	12700
927.099	12528
927.206	12620
927.312	12597
927.419	12810
927.525	12547
927.631	12627
927.737	12494
927.843	12467
927.95	12319
928.056	12357
928.162	12399
928.267	12429
928.373	13091
928.479	12517
928.585	12292
928.69	12471
928.796	12380
928.901	12327
929.007	12186
929.112	12361
929.218	12243
929.323	12167
929.428	12159
929.533	12262
929.638	12136
929.743	12197
929.848	12167
929.953	12136
930.058	12133
930.163	11828
930.267	11878
930.372	12060
930.477	11805
930.581	11927
930.685	11859
930.79	11790
930.894	11771
930.998	11726
931.103	11828
931.207	11467
931.311	11379
931.415	11387
931.519	11113
931.623	11121
