Data from test_V78500241_2820.txt Node
Date: Fri Mar 25 16:01:20 CST 2022
User: usil
Spectrometer: V785-0024
Trigger mode: 0
Integration Time (sec): 4.000000E-1
Scans to average: 1
Nonlinearity correction enabled: false
Boxcar width: 0
Storing dark spectrum: false
XAxis mode: Wavelengths
Number of Pixels in Spectrum: 1024
>>>>>Begin Spectral Data<<<<<
801.071	29121
801.214	29006
801.356	28919
801.499	28881
801.641	28740
801.783	28812
801.926	28649
802.068	28744
802.211	28763
802.353	28759
802.496	28546
802.638	28459
802.78	28405
802.923	28337
803.065	28428
803.208	28295
803.35	28489
803.492	28786
803.635	28763
803.777	28637
803.919	28843
804.061	29117
804.204	28824
804.346	28573
804.488	28721
804.63	28630
804.773	28668
804.915	28744
805.057	28873
805.199	28748
805.341	28847
805.483	28801
805.626	28767
805.768	28885
805.91	28881
806.052	29033
806.194	28862
806.336	29121
806.478	28968
806.62	28908
806.762	29151
806.904	29155
807.046	29551
807.188	29535
807.33	29307
807.472	29368
807.614	29429
807.756	29433
807.898	29208
808.04	29143
808.182	29216
808.324	29296
808.465	29322
808.607	29349
808.749	29608
808.891	29760
809.033	29783
809.174	29733
809.316	29577
809.458	29695
809.6	29512
809.741	29672
809.883	29684
810.025	30030
810.166	29942
810.308	30057
810.45	29836
810.591	29874
810.733	29741
810.875	29623
811.016	29372
811.158	29573
811.299	29813
811.441	29843
811.582	29840
811.724	29608
811.865	29592
812.007	29653
812.148	29551
812.29	29707
812.431	29760
812.573	29992
812.714	30125
812.855	30136
812.997	30209
813.138	30494
813.279	30266
813.421	30057
813.562	30224
813.703	29996
813.845	29840
813.986	29581
814.127	29547
814.268	29375
814.41	29387
814.551	29311
814.692	29509
814.833	29326
814.974	29303
815.115	29429
815.256	29391
815.397	29258
815.539	29258
815.68	29258
815.821	29128
815.962	29345
816.103	29067
816.244	29033
816.385	28999
816.526	28911
816.666	28752
816.807	28523
816.948	28717
817.089	28755
817.23	28729
817.371	28763
817.512	28778
817.653	28531
817.793	28584
817.934	28630
818.075	28733
818.216	28675
818.356	28668
818.497	28618
818.638	28390
818.778	28500
818.919	28523
819.06	28607
819.2	28615
819.341	28687
819.481	28721
819.622	28801
819.762	28946
819.903	29044
820.043	28892
820.184	28900
820.324	28911
820.465	28862
820.605	28812
820.746	28790
820.886	28736
821.026	28755
821.167	28755
821.307	28862
821.447	28771
821.588	28565
821.728	28493
821.868	28409
822.008	28215
822.149	28246
822.289	28166
822.429	27949
822.569	27926
822.709	27819
822.849	27679
822.99	27663
823.13	27625
823.27	27717
823.41	27439
823.55	27462
823.69	27473
823.83	27473
823.97	27427
824.11	27355
824.25	27306
824.389	27313
824.529	27348
824.669	27469
824.809	27504
824.949	27397
825.089	27401
825.228	27420
825.368	27165
825.508	27264
825.648	27222
825.787	27199
825.927	27351
826.067	27241
826.206	27272
826.346	27199
826.485	27233
826.625	27241
826.765	27226
826.904	27256
827.044	26956
827.183	27066
827.323	26975
827.462	26921
827.601	27039
827.741	26998
827.88	26982
828.02	26925
828.159	26861
828.298	26883
828.437	27009
828.577	26895
828.716	26944
828.855	26975
828.994	26686
829.134	26556
829.273	26804
829.412	26678
829.551	26602
829.69	26617
829.829	26754
829.968	26758
830.107	26720
830.246	26537
830.385	26648
830.524	26495
830.663	26571
830.802	26282
830.941	26180
831.08	26142
831.219	26347
831.357	26317
831.496	26465
831.635	26161
831.774	26069
831.913	25993
832.051	26111
832.19	25970
832.329	26054
832.467	25845
832.606	25955
832.744	25811
832.883	25936
833.022	25887
833.16	25883
833.299	26050
833.437	26088
833.576	25936
833.714	26035
833.852	25906
833.991	25883
834.129	26027
834.267	25982
834.406	26050
834.544	26035
834.682	25879
834.821	25913
834.959	26172
835.097	26001
835.235	25978
835.373	25917
835.511	25928
835.65	25807
835.788	25841
835.926	25658
836.064	25677
836.202	25632
836.34	25719
836.478	25883
836.615	25860
836.753	25807
836.891	25841
837.029	25890
837.167	25670
837.305	25696
837.443	25556
837.58	25685
837.718	25750
837.856	25605
837.993	25552
838.131	25616
838.269	25472
838.406	25472
838.544	25479
838.681	25362
838.819	25266
838.956	24992
839.094	25015
839.231	25190
839.369	25122
839.506	25430
839.643	25194
839.781	25198
839.918	24943
840.055	25103
840.193	25061
840.33	24901
840.467	25008
840.604	25198
840.742	25270
840.879	24787
841.016	24837
841.153	24692
841.29	24932
841.427	24920
841.564	25000
841.701	25050
841.838	25031
841.975	24741
842.112	24787
842.249	24943
842.385	24783
842.522	24928
842.659	24692
842.796	24639
842.933	24768
843.069	24726
843.206	24631
843.343	24913
843.479	24715
843.616	24669
843.752	24540
843.889	24410
844.025	24684
844.162	24532
844.298	24551
844.435	24395
844.571	24384
844.708	24490
844.844	24658
844.98	24570
845.117	24601
845.253	24384
845.389	24327
845.525	24247
845.661	24262
845.798	24197
845.934	24380
846.07	24186
846.206	24205
846.342	24346
846.478	24239
846.614	24125
846.75	23961
846.886	23878
847.022	23999
847.158	24022
847.294	24007
847.429	24011
847.565	23939
847.701	24201
847.837	23809
847.972	23623
848.108	23718
848.244	23707
848.379	23581
848.515	23478
848.65	23478
848.786	23387
848.921	23558
849.057	23695
849.192	23653
849.328	23623
849.463	23505
849.598	23490
849.734	23440
849.869	23505
850.004	23303
850.14	23284
850.275	23356
850.41	23189
850.545	23250
850.68	23185
850.815	23429
850.95	23349
851.085	23493
851.22	23436
851.355	23299
851.49	23330
851.625	23288
851.76	23242
851.895	23128
852.03	23223
852.165	23360
852.299	23372
852.434	23303
852.569	23296
852.703	23284
852.838	23341
852.973	23463
853.107	23387
853.242	23208
853.376	23220
853.511	23060
853.645	23140
853.78	23109
853.914	23079
854.048	23048
854.183	23124
854.317	23102
854.451	23280
854.585	23113
854.72	23102
854.854	23155
854.988	23071
855.122	23079
855.256	23006
855.39	23067
855.524	23128
855.658	23185
855.792	23223
855.926	23102
856.06	23166
856.194	23197
856.327	23033
856.461	23044
856.595	23041
856.729	23102
856.862	23178
856.996	23193
857.13	23140
857.263	23193
857.397	23212
857.53	23235
857.664	23162
857.797	23242
857.931	23250
858.064	23105
858.197	23231
858.331	23086
858.464	23071
858.597	23022
858.731	23098
858.864	22915
858.997	23044
859.13	23124
859.263	23132
859.396	23083
859.529	23067
859.662	23242
859.795	23044
859.928	23124
860.061	23277
860.194	23318
860.327	23132
860.46	23242
860.592	23307
860.725	23376
860.858	23288
860.99	23162
861.123	23033
861.256	23109
861.388	23181
861.521	23980
861.653	23033
861.786	22915
861.918	22949
862.05	23075
862.183	22980
862.315	23056
862.447	23143
862.58	23037
862.712	22900
862.844	22862
862.976	22927
863.108	22953
863.24	23216
863.372	22755
863.504	22968
863.636	22809
863.768	22896
863.9	22877
864.032	22847
864.164	22801
864.296	22850
864.428	22900
864.559	22866
864.691	22904
864.823	22786
864.954	22873
865.086	22771
865.217	22725
865.349	22725
865.48	22752
865.612	22755
865.743	22774
865.875	22736
866.006	22660
866.137	22767
866.269	22702
866.4	22694
866.531	22554
866.662	22607
866.793	22550
866.924	22691
867.055	22645
867.186	22733
867.317	22596
867.448	22615
867.579	22611
867.71	22573
867.841	22557
867.972	22531
868.103	22664
868.233	22634
868.364	22679
868.495	22630
868.625	22873
868.756	22972
868.886	22805
869.017	22915
869.147	22949
869.278	23041
869.408	22923
869.539	22790
869.669	22919
869.799	22881
869.929	22968
870.06	22911
870.19	23124
870.32	23143
870.45	23067
870.58	23235
870.71	23349
870.84	23360
870.97	23254
871.1	23189
871.23	23406
871.36	23482
871.489	23444
871.619	23433
871.749	23463
871.879	23493
872.008	23589
872.138	23444
872.267	23417
872.397	23398
872.526	23345
872.656	23326
872.785	23296
872.915	23516
873.044	23562
873.173	23581
873.303	23429
873.432	23619
873.561	23558
873.69	23547
873.819	23482
873.948	23531
874.077	23444
874.206	23410
874.335	23490
874.464	23619
874.593	23707
874.722	23642
874.851	23737
874.979	23687
875.108	23672
875.237	23570
875.365	23509
875.494	23775
875.623	23703
875.751	23619
875.88	23783
876.008	23805
876.136	23821
876.265	24121
876.393	24235
876.521	24125
876.65	24140
876.778	24163
876.906	23946
877.034	24057
877.162	23988
877.29	23878
877.418	23980
877.546	24053
877.674	23961
877.802	24057
877.93	24045
878.058	23935
878.185	23965
878.313	23992
878.441	23992
878.568	23897
878.696	23965
878.824	23969
878.951	24194
879.079	24228
879.206	24319
879.333	24292
879.461	23973
879.588	24235
879.715	24228
879.842	24418
879.97	24251
880.097	23870
880.224	23863
880.351	23893
880.478	23809
880.605	23786
880.732	23927
880.859	24038
880.986	23859
881.112	23737
881.239	23649
881.366	23676
881.493	23516
881.619	23455
881.746	23425
881.872	23425
881.999	23444
882.125	23490
882.252	23417
882.378	23436
882.505	23398
882.631	23292
882.757	23174
882.883	23223
883.01	23121
883.136	23090
883.262	22942
883.388	22908
883.514	23159
883.64	22999
883.766	23132
883.892	22843
884.018	22847
884.143	22850
884.269	23094
884.395	22740
884.52	22653
884.646	22774
884.772	22584
884.897	22523
885.023	22717
885.148	22752
885.274	22843
885.399	22820
885.524	22645
885.65	22698
885.775	22725
885.9	22668
886.025	22736
886.15	22767
886.275	22535
886.4	22481
886.525	22706
886.65	22569
886.775	22687
886.9	22767
887.025	22771
887.149	22713
887.274	22523
887.399	22451
887.523	22455
887.648	22405
887.773	22295
887.897	22466
888.021	22493
888.146	22344
888.27	22481
888.395	22470
888.519	22352
888.643	22417
888.767	22428
888.891	22314
889.015	22177
889.139	22287
889.263	22101
889.387	22367
889.511	22428
889.635	22382
889.759	22120
889.883	22101
890.006	22261
890.13	22367
890.254	22158
890.377	22150
890.501	22048
890.624	21964
890.748	22013
890.871	21797
890.995	21755
891.118	21675
891.241	21800
891.364	21732
891.488	21884
891.611	21732
891.734	21667
891.857	21819
891.98	21675
892.103	21930
892.226	21728
892.349	21816
892.471	21568
892.594	21614
892.717	21713
892.839	21682
892.962	21717
893.085	21686
893.207	21500
893.33	21561
893.452	21583
893.575	21698
893.697	21629
893.819	21759
893.941	21857
894.064	21778
894.186	21648
894.308	21526
894.43	21713
894.552	21637
894.674	21717
894.796	21633
894.918	21587
895.04	21473
895.161	21633
895.283	21587
895.405	21690
895.526	21671
895.648	21572
895.769	21583
895.891	21622
896.012	21644
896.134	21618
896.255	21629
896.376	21481
896.498	21667
896.619	21648
896.74	21500
896.861	21667
896.982	21983
897.103	22063
897.224	21850
897.345	21789
897.466	21713
897.587	21842
897.708	21949
897.828	21861
897.949	21625
898.07	21648
898.19	21667
898.311	21781
898.431	21667
898.552	21857
898.672	21846
898.792	21766
898.913	21690
899.033	21717
899.153	21549
899.273	21443
899.393	21595
899.513	21526
899.633	21485
899.753	21614
899.873	21515
899.993	21587
900.113	21382
900.232	21507
900.352	21515
900.472	21222
900.591	21287
900.711	21329
900.83	21218
900.95	21294
901.069	21317
901.189	21142
901.308	20895
901.427	20876
901.546	20853
901.665	20887
901.784	20724
901.904	20727
902.023	20602
902.141	20347
902.26	20434
902.379	20374
902.498	20290
902.617	20358
902.735	20286
902.854	20271
902.973	20225
903.091	20035
903.21	19940
903.328	20016
903.446	19864
903.565	19807
903.683	19765
903.801	19605
903.919	19723
904.038	19575
904.156	19544
904.274	19651
904.392	19613
904.51	19559
904.627	19407
904.745	19651
904.863	19624
904.981	19293
905.098	19171
905.216	19175
905.334	19381
905.451	19247
905.569	19069
905.686	19145
905.803	19118
905.921	18954
906.038	19072
906.155	18996
906.272	18821
906.389	18852
906.506	18802
906.623	18700
906.74	18768
906.857	18570
906.974	18730
907.091	18852
907.208	18745
907.324	18749
907.441	18547
907.557	18414
907.674	18399
907.79	18441
907.907	18403
908.023	18471
908.139	18452
908.256	18338
908.372	18346
908.488	18350
908.604	18220
908.72	18079
908.836	18110
908.952	18038
909.068	18114
909.184	18251
909.3	18098
909.415	18125
909.531	18106
909.647	17821
909.762	17843
909.878	17802
909.993	17779
910.108	17745
910.224	17764
910.339	17840
910.454	17627
910.57	17608
910.685	17505
910.8	17824
910.915	17581
911.03	17672
911.145	17368
911.259	17417
911.374	17330
911.489	17303
911.604	17364
911.718	17200
911.833	17155
911.947	17128
912.062	17025
912.176	17109
912.291	17117
912.405	17060
912.519	17242
912.633	17337
912.748	17151
912.862	17136
912.976	16972
913.09	16885
913.204	16866
913.318	16927
913.431	17033
913.545	16965
913.659	17029
913.772	16885
913.886	16767
914	16774
914.113	16797
914.226	16759
914.34	16812
914.453	16675
914.566	16774
914.68	16607
914.793	16497
914.906	16516
915.019	16394
915.132	16322
915.245	16097
915.358	16284
915.47	16322
915.583	16226
915.696	16276
915.809	16360
915.921	16329
916.034	16158
916.146	16169
916.259	16139
916.371	16177
916.483	16211
916.595	16120
916.708	16078
916.82	16105
916.932	15945
917.044	15968
917.156	15987
917.268	15960
917.38	15895
917.491	15949
917.603	15880
917.715	15892
917.826	15964
917.938	15797
918.049	15648
918.161	15778
918.272	15968
918.384	15907
918.495	15774
918.606	15633
918.717	15584
918.828	15682
918.939	15652
919.05	15542
919.161	15530
919.272	15370
919.383	15481
919.494	15660
919.604	15793
919.715	15610
919.826	15435
919.936	15572
920.047	15633
920.157	15591
920.267	15793
920.378	15603
920.488	15610
920.598	15660
920.708	15915
920.818	15656
920.928	15656
921.038	15823
921.148	15739
921.258	15557
921.368	15401
921.477	15317
921.587	15310
921.697	15051
921.806	15336
921.916	15017
922.025	14963
922.134	14979
922.244	14887
922.353	15116
922.462	14735
922.571	14754
922.68	14625
922.789	14522
922.898	14564
923.007	14514
923.116	14613
923.224	14541
923.333	14469
923.442	14442
923.55	14336
923.659	14358
923.767	14351
923.876	14301
923.984	14423
924.092	14164
924.201	14336
924.309	14366
924.417	14278
924.525	14225
924.633	14176
924.741	15176
924.849	13963
924.956	14130
925.064	14024
925.172	13875
925.279	13970
925.387	14069
925.494	13947
925.602	14111
925.709	13963
925.816	13845
925.924	13902
926.031	13963
926.138	13837
926.245	13833
926.352	13753
926.459	13852
926.566	13902
926.673	13830
926.779	13666
926.886	13529
926.993	13605
927.099	13468
927.206	13411
927.312	13316
927.419	13495
927.525	13335
927.631	13487
927.737	13316
927.843	13301
927.95	13202
928.056	13251
928.162	13297
928.267	13312
928.373	13811
928.479	13339
928.585	13152
928.69	13206
928.796	13225
928.901	13175
929.007	13031
929.112	13122
929.218	13027
929.323	13072
929.428	12947
929.533	13126
929.638	12837
929.743	12768
929.848	12913
929.953	12829
930.058	12749
930.163	12681
930.267	12654
930.372	12688
930.477	12616
930.581	12779
930.685	12642
930.79	12574
930.894	12517
930.998	12460
931.103	12601
931.207	12201
931.311	12228
931.415	12083
931.519	11901
931.623	11897
