Data from test_V78500241_3367.txt Node
Date: Fri Mar 25 16:05:07 CST 2022
User: usil
Spectrometer: V785-0024
Trigger mode: 0
Integration Time (sec): 4.000000E-1
Scans to average: 1
Nonlinearity correction enabled: false
Boxcar width: 0
Storing dark spectrum: false
XAxis mode: Wavelengths
Number of Pixels in Spectrum: 1024
>>>>>Begin Spectral Data<<<<<
801.071	28675
801.214	28485
801.356	28474
801.499	28265
801.641	28284
801.783	28169
801.926	28306
802.068	28124
802.211	28128
802.353	27983
802.496	27895
802.638	27884
802.78	27865
802.923	27713
803.065	27713
803.208	27850
803.35	27903
803.492	27998
803.635	28131
803.777	27998
803.919	28238
804.061	28371
804.204	28135
804.346	28128
804.488	27968
804.63	27972
804.773	28067
804.915	28169
805.057	28272
805.199	28051
805.341	28249
805.483	28200
805.626	28367
805.768	28173
805.91	28318
806.052	28306
806.194	28055
806.336	28538
806.478	28299
806.62	28405
806.762	28478
806.904	28500
807.046	28683
807.188	28675
807.33	28679
807.472	28725
807.614	28504
807.756	28763
807.898	28443
808.04	28523
808.182	28573
808.324	28656
808.465	28672
808.607	28843
808.749	28980
808.891	29025
809.033	29014
809.174	29022
809.316	29056
809.458	28991
809.6	28877
809.741	28999
809.883	29117
810.025	29212
810.166	29391
810.308	29273
810.45	29147
810.591	29151
810.733	28949
810.875	29010
811.016	28949
811.158	28938
811.299	29086
811.441	29189
811.582	29124
811.724	29022
811.865	29033
812.007	28885
812.148	28953
812.29	29022
812.431	29223
812.573	29208
812.714	29474
812.855	29509
812.997	29543
813.138	29767
813.279	29589
813.421	29486
813.562	29406
813.703	29356
813.845	29193
813.986	28930
814.127	28790
814.268	28694
814.41	28656
814.551	28535
814.692	28596
814.833	28653
814.974	28721
815.115	28557
815.256	28634
815.397	28489
815.539	28675
815.68	28531
815.821	28367
815.962	28542
816.103	28394
816.244	28360
816.385	28352
816.526	28314
816.666	27987
816.807	27945
816.948	28013
817.089	27949
817.23	28032
817.371	27854
817.512	27968
817.653	27873
817.793	27892
817.934	27956
818.075	28002
818.216	28048
818.356	27998
818.497	27922
818.638	27591
818.778	27778
818.919	27701
819.06	27789
819.2	27819
819.341	28010
819.481	28036
819.622	28226
819.762	28333
819.903	28344
820.043	28093
820.184	28166
820.324	28006
820.465	28120
820.605	28173
820.746	28211
820.886	27941
821.026	28006
821.167	27922
821.307	28082
821.447	27964
821.588	27964
821.728	27785
821.868	27743
822.008	27580
822.149	27538
822.289	27420
822.429	27249
822.569	27169
822.709	27077
822.849	26971
822.99	27104
823.13	26906
823.27	26918
823.41	26785
823.55	26701
823.69	26758
823.83	26819
823.97	26697
824.11	26419
824.25	26731
824.389	26648
824.529	26750
824.669	26598
824.809	26785
824.949	26762
825.089	26804
825.228	26667
825.368	26290
825.508	26343
825.648	26495
825.787	26495
825.927	26545
826.067	26522
826.206	26457
826.346	26613
826.485	26541
826.625	26480
826.765	26632
826.904	26480
827.044	26313
827.183	26263
827.323	26301
827.462	26225
827.601	26294
827.741	26229
827.88	26214
828.02	26199
828.159	26115
828.298	26332
828.437	26267
828.577	26202
828.716	26275
828.855	26149
828.994	25883
829.134	25932
829.273	25936
829.412	25826
829.551	25894
829.69	25890
829.829	25951
829.968	25963
830.107	26092
830.246	25982
830.385	25811
830.524	25826
830.663	25628
830.802	25571
830.941	25453
831.08	25453
831.219	25521
831.357	25468
831.496	25738
831.635	25491
831.774	25464
831.913	25255
832.051	25350
832.19	25365
832.329	25297
832.467	25187
832.606	25175
832.744	25194
832.883	25274
833.022	25194
833.16	25141
833.299	25339
833.437	25377
833.576	25126
833.714	25354
833.852	25266
833.991	25430
834.129	25499
834.267	25297
834.406	25202
834.544	25278
834.682	25430
834.821	25316
834.959	25487
835.097	25209
835.235	25278
835.373	25213
835.511	25129
835.65	25137
835.788	25145
835.926	25008
836.064	25053
836.202	24894
836.34	25110
836.478	25202
836.615	25183
836.753	25122
836.891	25179
837.029	25175
837.167	24973
837.305	24973
837.443	25034
837.58	24932
837.718	25008
837.856	24886
837.993	24825
838.131	24954
838.269	24719
838.406	24829
838.544	24772
838.681	24623
838.819	24665
838.956	24330
839.094	24509
839.231	24452
839.369	24513
839.506	24738
839.643	24684
839.781	24604
839.918	24334
840.055	24395
840.193	24289
840.33	24338
840.467	24266
840.604	24235
840.742	24555
840.879	24091
841.016	24117
841.153	24152
841.29	24308
841.427	24330
841.564	24300
841.701	24311
841.838	24243
841.975	24239
842.112	24201
842.249	24095
842.385	24098
842.522	24399
842.659	24148
842.796	24167
842.933	24129
843.069	24106
843.206	24030
843.343	24171
843.479	23996
843.616	24049
843.752	23847
843.889	23832
844.025	23996
844.162	23802
844.298	24015
844.435	23931
844.571	23764
844.708	23916
844.844	24030
844.98	23916
845.117	23927
845.253	23718
845.389	23653
845.525	23687
845.661	23771
845.798	23512
845.934	23589
846.07	23501
846.206	23558
846.342	23570
846.478	23551
846.614	23444
846.75	23197
846.886	23303
847.022	23391
847.158	23288
847.294	23311
847.429	23292
847.565	23200
847.701	23516
847.837	23003
847.972	22991
848.108	23204
848.244	23037
848.379	22961
848.515	22873
848.65	22858
848.786	22771
848.921	22904
849.057	22972
849.192	22923
849.328	22889
849.463	22892
849.598	22866
849.734	22702
849.869	22710
850.004	22630
850.14	22752
850.275	22740
850.41	22607
850.545	22607
850.68	22656
850.815	22672
850.95	22599
851.085	22858
851.22	22740
851.355	22763
851.49	22641
851.625	22596
851.76	22649
851.895	22447
852.03	22527
852.165	22660
852.299	22660
852.434	22790
852.569	22497
852.703	22550
852.838	22736
852.973	22683
853.107	22771
853.242	22577
853.376	22424
853.511	22443
853.645	22500
853.78	22500
853.914	22443
854.048	22371
854.183	22371
854.317	22481
854.451	22672
854.585	22531
854.72	22394
854.854	22611
854.988	22436
855.122	22462
855.256	22325
855.39	22535
855.524	22455
855.658	22557
855.792	22394
855.926	22493
856.06	22478
856.194	22687
856.327	22451
856.461	22432
856.595	22542
856.729	22424
856.862	22603
856.996	22561
857.13	22630
857.263	22687
857.397	22550
857.53	22398
857.664	22451
857.797	22561
857.931	22592
858.064	22474
858.197	22493
858.331	22421
858.464	22421
858.597	22226
858.731	22409
858.864	22382
858.997	22417
859.13	22512
859.263	22550
859.396	22508
859.529	22459
859.662	22443
859.795	22516
859.928	22443
860.061	22607
860.194	22664
860.327	22535
860.46	22485
860.592	22508
860.725	22611
860.858	22668
860.99	22447
861.123	22348
861.256	22322
861.388	22413
861.521	23235
861.653	22352
861.786	22242
861.918	22253
862.05	22322
862.183	22341
862.315	22432
862.447	22409
862.58	22280
862.712	22291
862.844	22086
862.976	22394
863.108	22211
863.24	22679
863.372	22154
863.504	22272
863.636	22135
863.768	22276
863.9	22143
864.032	22078
864.164	22086
864.296	22223
864.428	22265
864.559	22188
864.691	22070
864.823	22188
864.954	22154
865.086	22150
865.217	22177
865.349	22002
865.48	22082
865.612	22082
865.743	22219
865.875	22078
866.006	22055
866.137	22017
866.269	21975
866.4	21998
866.531	22010
866.662	21892
866.793	21895
866.924	21960
867.055	22021
867.186	21972
867.317	21884
867.448	21983
867.579	21941
867.71	22048
867.841	21968
867.972	21979
868.103	22032
868.233	22032
868.364	21953
868.495	22055
868.625	22124
868.756	22344
868.886	22097
869.017	22223
869.147	22284
869.278	22379
869.408	22204
869.539	22078
869.669	22299
869.799	22284
869.929	22310
870.06	22284
870.19	22519
870.32	22455
870.45	22508
870.58	22493
870.71	22782
870.84	22733
870.97	22561
871.1	22607
871.23	22733
871.36	22710
871.489	22778
871.619	22809
871.749	22801
871.879	22771
872.008	22919
872.138	22889
872.267	22736
872.397	22763
872.526	22672
872.656	22672
872.785	22649
872.915	22759
873.044	22896
873.173	22698
873.303	22869
873.432	22839
873.561	22919
873.69	22919
873.819	22961
873.948	22927
874.077	22850
874.206	22831
874.335	22729
874.464	22949
874.593	23079
874.722	23121
874.851	23025
874.979	23079
875.108	23071
875.237	23109
875.365	23014
875.494	23071
875.623	23037
875.751	23128
875.88	22995
876.008	23162
876.136	23212
876.265	23448
876.393	23573
876.521	23520
876.65	23676
876.778	23482
876.906	23391
877.034	23235
877.162	23478
877.29	23326
877.418	23284
877.546	23421
877.674	23391
877.802	23368
877.93	23501
878.058	23265
878.185	23288
878.313	23265
878.441	23410
878.568	23284
878.696	23250
878.824	23326
878.951	23512
879.079	23471
879.206	23699
879.333	23558
879.461	23478
879.588	23581
879.715	23646
879.842	23600
879.97	23562
880.097	23318
880.224	23258
880.351	23326
880.478	23269
880.605	23098
880.732	23117
880.859	23493
880.986	23322
881.112	23197
881.239	23056
881.366	23022
881.493	22824
881.619	22706
881.746	22759
881.872	22866
881.999	22713
882.125	22634
882.252	22801
882.378	22672
882.505	22786
882.631	22645
882.757	22382
882.883	22577
883.01	22497
883.136	22478
883.262	22287
883.388	22329
883.514	22413
883.64	22497
883.766	22291
883.892	22204
884.018	22204
884.143	22310
884.269	22451
884.395	22185
884.52	22135
884.646	22097
884.772	22150
884.897	21941
885.023	22185
885.148	22124
885.274	22276
885.399	22090
885.524	22063
885.65	22093
885.775	22070
885.9	22120
886.025	22257
886.15	22112
886.275	22010
886.4	21968
886.525	21983
886.65	21960
886.775	22017
886.9	22067
887.025	22169
887.149	22021
887.274	21922
887.399	21850
887.523	21816
887.648	21812
887.773	21675
887.897	21850
888.021	21892
888.146	21846
888.27	21819
888.395	21831
888.519	21827
888.643	21899
888.767	21857
888.891	21701
889.015	21614
889.139	21759
889.263	21568
889.387	21766
889.511	21888
889.635	21797
889.759	21591
889.883	21671
890.006	21671
890.13	21701
890.254	21686
890.377	21428
890.501	21408
890.624	21245
890.748	21344
890.871	21329
890.995	21192
891.118	21096
891.241	21237
891.364	21142
891.488	21256
891.611	21203
891.734	21104
891.857	21157
891.98	21218
892.103	21176
892.226	21116
892.349	21089
892.471	21077
892.594	21112
892.717	21085
892.839	21055
892.962	21169
893.085	21176
893.207	20975
893.33	21005
893.452	20933
893.575	21150
893.697	20994
893.819	21135
893.941	21165
894.064	21119
894.186	20902
894.308	20971
894.43	21169
894.552	21138
894.674	21138
894.796	20925
894.918	21013
895.04	20899
895.161	21154
895.283	21066
895.405	21020
895.526	21036
895.648	21062
895.769	21005
895.891	21131
896.012	21138
896.134	21055
896.255	21112
896.376	21028
896.498	21081
896.619	21096
896.74	21055
896.861	21024
896.982	21408
897.103	21538
897.224	21306
897.345	21279
897.466	21252
897.587	21249
897.708	21325
897.828	21272
897.949	21180
898.07	21055
898.19	21119
898.311	21275
898.431	21184
898.552	21241
898.672	21260
898.792	21336
898.913	21260
899.033	21081
899.153	21051
899.273	20868
899.393	21013
899.513	21036
899.633	21112
899.753	20994
899.873	20880
899.993	20979
900.113	20857
900.232	20899
900.352	20857
900.472	20826
900.591	20750
900.711	20800
900.83	20686
900.95	20880
901.069	20663
901.189	20629
901.308	20419
901.427	20351
901.546	20366
901.665	20290
901.784	20244
901.904	20195
902.023	20016
902.141	19993
902.26	19864
902.379	19894
902.498	19883
902.617	19776
902.735	19974
902.854	19712
902.973	19712
903.091	19556
903.21	19499
903.328	19540
903.446	19343
903.565	19282
903.683	19225
903.801	19183
903.919	19289
904.038	19156
904.156	19091
904.274	19122
904.392	18958
904.51	18909
904.627	19042
904.745	19141
904.863	18985
904.981	18886
905.098	18646
905.216	18711
905.334	18817
905.451	18650
905.569	18639
905.686	18665
905.803	18806
905.921	18528
906.038	18559
906.155	18551
906.272	18350
906.389	18437
906.506	18251
906.623	18247
906.74	18251
906.857	18091
906.974	18155
907.091	18205
907.208	18281
907.324	18262
907.441	18281
907.557	17984
907.674	17908
907.79	17771
907.907	17897
908.023	17920
908.139	17927
908.256	17878
908.372	17863
908.488	17786
908.604	17767
908.72	17547
908.836	17680
908.952	17661
909.068	17707
909.184	17726
909.3	17547
909.415	17687
909.531	17665
909.647	17387
909.762	17353
909.878	17292
909.993	17425
910.108	17307
910.224	17311
910.339	17189
910.454	17094
910.57	17200
910.685	17132
910.8	17280
910.915	17284
911.03	17212
911.145	17029
911.259	16885
911.374	17022
911.489	16744
911.604	16809
911.718	16668
911.833	16721
911.947	16565
912.062	16622
912.176	16664
912.291	16702
912.405	16622
912.519	16839
912.633	16828
912.748	16790
912.862	16649
912.976	16405
913.09	16421
913.204	16379
913.318	16611
913.431	16508
913.545	16493
913.659	16546
913.772	16493
913.886	16360
914	16268
914.113	16322
914.226	16356
914.34	16306
914.453	16211
914.566	16207
914.68	16128
914.793	16090
914.906	15998
915.019	15907
915.132	15827
915.245	15857
915.358	15797
915.47	15880
915.583	15808
915.696	15838
915.809	15941
915.921	15899
916.034	15835
916.146	15816
916.259	15732
916.371	15755
916.483	15770
916.595	15603
916.708	15641
916.82	15679
916.932	15660
917.044	15614
917.156	15587
917.268	15439
917.38	15424
917.491	15458
917.603	15507
917.715	15553
917.826	15591
917.938	15492
918.049	15363
918.161	15389
918.272	15526
918.384	15595
918.495	15443
918.606	15283
918.717	15176
918.828	15169
918.939	15176
919.05	15100
919.161	15066
919.272	15089
919.383	15055
919.494	15245
919.604	15374
919.715	15264
919.826	15036
919.936	15195
920.047	15222
920.157	15085
920.267	15336
920.378	15116
920.488	15169
920.598	15310
920.708	15507
920.818	15367
920.928	15351
921.038	15370
921.148	15351
921.258	15142
921.368	15017
921.477	14944
921.587	14960
921.697	14785
921.806	14921
921.916	14811
922.025	14621
922.134	14575
922.244	14415
922.353	14541
922.462	14408
922.571	14332
922.68	14191
922.789	14191
922.898	14123
923.007	14149
923.116	14221
923.224	14172
923.333	14111
923.442	14027
923.55	14020
923.659	14031
923.767	14043
923.876	13932
923.984	13955
924.092	13913
924.201	14024
924.309	13913
924.417	13826
924.525	13860
924.633	13791
924.741	14796
924.849	13616
924.956	13753
925.064	13586
925.172	13518
925.279	13499
925.387	13632
925.494	13556
925.602	13681
925.709	13670
925.816	13438
925.924	13480
926.031	13518
926.138	13476
926.245	13506
926.352	13331
926.459	13548
926.566	13540
926.673	13369
926.779	13339
926.886	13183
926.993	13080
927.099	13156
927.206	13031
927.312	13034
927.419	13046
927.525	13114
927.631	13137
927.737	12996
927.843	12905
927.95	12715
928.056	12996
928.162	12878
928.267	12973
928.373	13415
928.479	12958
928.585	12783
928.69	12856
928.796	12886
928.901	12734
929.007	12623
929.112	12772
929.218	12745
929.323	12650
929.428	12608
929.533	12734
929.638	12540
929.743	12578
929.848	12631
929.953	12574
930.058	12528
930.163	12243
930.267	12311
930.372	12467
930.477	12220
930.581	12460
930.685	12369
930.79	12186
930.894	12175
930.998	12182
931.103	12266
931.207	11859
931.311	11836
931.415	11676
931.519	11524
931.623	11528
