Data from test_V78500241_1091.txt Node
Date: Fri Mar 25 15:49:21 CST 2022
User: usil
Spectrometer: V785-0024
Trigger mode: 0
Integration Time (sec): 4.000000E-1
Scans to average: 1
Nonlinearity correction enabled: false
Boxcar width: 0
Storing dark spectrum: false
XAxis mode: Wavelengths
Number of Pixels in Spectrum: 1024
>>>>>Begin Spectral Data<<<<<
801.071	28554
801.214	28356
801.356	28265
801.499	28287
801.641	28131
801.783	28109
801.926	28013
802.068	28158
802.211	28109
802.353	27808
802.496	27747
802.638	27770
802.78	27823
802.923	27781
803.065	27625
803.208	27504
803.35	27823
803.492	27861
803.635	27975
803.777	27854
803.919	28067
804.061	28276
804.204	28105
804.346	28017
804.488	28002
804.63	27975
804.773	27937
804.915	27979
805.057	28280
805.199	27979
805.341	28207
805.483	27949
805.626	28154
805.768	28143
805.91	28150
806.052	28322
806.194	28036
806.336	28394
806.478	28367
806.62	28234
806.762	28299
806.904	28436
807.046	28649
807.188	28649
807.33	28637
807.472	28694
807.614	28455
807.756	28801
807.898	28478
808.04	28428
808.182	28470
808.324	28615
808.465	28516
808.607	28675
808.749	28831
808.891	29052
809.033	28869
809.174	28923
809.316	28881
809.458	28710
809.6	28763
809.741	29006
809.883	28965
810.025	29147
810.166	29136
810.308	29124
810.45	29033
810.591	29121
810.733	28965
810.875	28801
811.016	28759
811.158	28759
811.299	29052
811.441	29056
811.582	28987
811.724	28942
811.865	28706
812.007	29044
812.148	28778
812.29	28984
812.431	28976
812.573	29151
812.714	29273
812.855	29539
812.997	29436
813.138	29653
813.279	29528
813.421	29402
813.562	29254
813.703	29197
813.845	29102
813.986	28835
814.127	28687
814.268	28577
814.41	28668
814.551	28512
814.692	28630
814.833	28630
814.974	28443
815.115	28706
815.256	28519
815.397	28436
815.539	28485
815.68	28341
815.821	28246
815.962	28329
816.103	28531
816.244	28325
816.385	28287
816.526	28147
816.666	27918
816.807	27835
816.948	27869
817.089	27975
817.23	27914
817.371	27922
817.512	27884
817.653	27945
817.793	27873
817.934	27846
818.075	27823
818.216	27854
818.356	27892
818.497	27739
818.638	27519
818.778	27778
818.919	27720
819.06	27766
819.2	27789
819.341	27930
819.481	27926
819.622	27873
819.762	28249
819.903	28204
820.043	27994
820.184	28048
820.324	27945
820.465	28082
820.605	27960
820.746	27998
820.886	27804
821.026	28116
821.167	27953
821.307	27941
821.447	27945
821.588	27895
821.728	27660
821.868	27469
822.008	27405
822.149	27332
822.289	27359
822.429	27260
822.569	26994
822.709	27028
822.849	26910
822.99	26914
823.13	26842
823.27	26724
823.41	26758
823.55	26579
823.69	26655
823.83	26746
823.97	26667
824.11	26537
824.25	26404
824.389	26526
824.529	26609
824.669	26431
824.809	26594
824.949	26708
825.089	26537
825.228	26556
825.368	26419
825.508	26320
825.648	26377
825.787	26427
825.927	26473
826.067	26419
826.206	26385
826.346	26526
826.485	26480
826.625	26259
826.765	26495
826.904	26564
827.044	26161
827.183	26225
827.323	26195
827.462	26282
827.601	26142
827.741	26161
827.88	26149
828.02	25955
828.159	26084
828.298	26142
828.437	26092
828.577	25966
828.716	26145
828.855	26084
828.994	25845
829.134	25826
829.273	25822
829.412	25723
829.551	25833
829.69	25757
829.829	25928
829.968	25959
830.107	25845
830.246	25742
830.385	25757
830.524	25662
830.663	25556
830.802	25521
830.941	25381
831.08	25457
831.219	25369
831.357	25548
831.496	25670
831.635	25396
831.774	25316
831.913	25312
832.051	25343
832.19	25327
832.329	25289
832.467	25080
832.606	25034
832.744	25152
832.883	25004
833.022	24890
833.16	25129
833.299	25270
833.437	25057
833.576	25057
833.714	25244
833.852	25164
833.991	25236
834.129	25221
834.267	25031
834.406	25263
834.544	25038
834.682	25099
834.821	25187
834.959	25232
835.097	24939
835.235	25187
835.373	25190
835.511	24954
835.65	24932
835.788	24928
835.926	24700
836.064	24661
836.202	24848
836.34	24920
836.478	25046
836.615	24973
836.753	24871
836.891	25019
837.029	24947
837.167	24863
837.305	24939
837.443	24825
837.58	24875
837.718	24890
837.856	24947
837.993	24882
838.131	24833
838.269	24738
838.406	24658
838.544	24574
838.681	24528
838.819	24346
838.956	24273
839.094	24251
839.231	24266
839.369	24422
839.506	24612
839.643	24471
839.781	24213
839.918	24163
840.055	24243
840.193	24163
840.33	24159
840.467	24213
840.604	24254
840.742	24517
840.879	23973
841.016	23984
841.153	24030
841.29	24289
841.427	24110
841.564	24178
841.701	24197
841.838	23999
841.975	24117
842.112	24167
842.249	24022
842.385	24003
842.522	24159
842.659	24072
842.796	23779
842.933	23939
843.069	23958
843.206	23988
843.343	23920
843.479	23878
843.616	23965
843.752	23653
843.889	23866
844.025	23889
844.162	23562
844.298	23805
844.435	23634
844.571	23566
844.708	23726
844.844	23809
844.98	23798
845.117	23843
845.253	23665
845.389	23547
845.525	23627
845.661	23528
845.798	23543
845.934	23535
846.07	23417
846.206	23581
846.342	23493
846.478	23436
846.614	23128
846.75	23090
846.886	23121
847.022	23208
847.158	23121
847.294	23170
847.429	23200
847.565	23143
847.701	23421
847.837	22847
847.972	22877
848.108	22942
848.244	22949
848.379	22790
848.515	22660
848.65	22824
848.786	22733
848.921	22744
849.057	22995
849.192	22790
849.328	22934
849.463	22729
849.598	22603
849.734	22683
849.869	22622
850.004	22523
850.14	22561
850.275	22500
850.41	22428
850.545	22466
850.68	22596
850.815	22462
850.95	22428
851.085	22668
851.22	22649
851.355	22512
851.49	22489
851.625	22413
851.76	22402
851.895	22440
852.03	22413
852.165	22679
852.299	22569
852.434	22599
852.569	22599
852.703	22630
852.838	22512
852.973	22672
853.107	22599
853.242	22466
853.376	22344
853.511	22280
853.645	22238
853.78	22485
853.914	22436
854.048	22337
854.183	22177
854.317	22295
854.451	22386
854.585	22242
854.72	22295
854.854	22379
854.988	22223
855.122	22268
855.256	22162
855.39	22226
855.524	22428
855.658	22295
855.792	22299
855.926	22447
856.06	22253
856.194	22360
856.327	22299
856.461	22261
856.595	22276
856.729	22253
856.862	22504
856.996	22310
857.13	22390
857.263	22428
857.397	22398
857.53	22268
857.664	22360
857.797	22440
857.931	22386
858.064	22314
858.197	22363
858.331	22287
858.464	22379
858.597	22215
858.731	22219
858.864	22268
858.997	22242
859.13	22322
859.263	22318
859.396	22325
859.529	22272
859.662	22261
859.795	22257
859.928	22230
860.061	22626
860.194	22459
860.327	22253
860.46	22265
860.592	22398
860.725	22443
860.858	22386
860.99	22352
861.123	22181
861.256	22375
861.388	22360
861.521	23064
861.653	22200
861.786	22128
861.918	22207
862.05	22215
862.183	22158
862.315	22287
862.447	22257
862.58	22200
862.712	22090
862.844	22029
862.976	22185
863.108	22078
863.24	22440
863.372	21930
863.504	21987
863.636	21922
863.768	22124
863.9	22070
864.032	21937
864.164	21941
864.296	21987
864.428	22017
864.559	22112
864.691	21987
864.823	21926
864.954	22025
865.086	22002
865.217	22021
865.349	21778
865.48	21930
865.612	21941
865.743	22032
865.875	21922
866.006	21899
866.137	21812
866.269	21911
866.4	21876
866.531	21873
866.662	21800
866.793	21808
866.924	21892
867.055	21675
867.186	21922
867.317	21861
867.448	21663
867.579	21675
867.71	21778
867.841	21644
867.972	21785
868.103	21778
868.233	21857
868.364	21831
868.495	21755
868.625	22101
868.756	22101
868.886	21968
869.017	22040
869.147	22261
869.278	22147
869.408	22070
869.539	22051
869.669	22192
869.799	22192
869.929	22299
870.06	22192
870.19	22295
870.32	22314
870.45	22394
870.58	22409
870.71	22546
870.84	22417
870.97	22440
871.1	22470
871.23	22645
871.36	22660
871.489	22603
871.619	22599
871.749	22740
871.879	22717
872.008	22748
872.138	22710
872.267	22698
872.397	22630
872.526	22440
872.656	22527
872.785	22493
872.915	22615
873.044	22919
873.173	22797
873.303	22771
873.432	22774
873.561	22835
873.69	22679
873.819	22611
873.948	22767
874.077	22679
874.206	22542
874.335	22679
874.464	22839
874.593	22987
874.722	22786
874.851	22961
874.979	22961
875.108	23060
875.237	22869
875.365	22797
875.494	22828
875.623	22892
875.751	22824
875.88	22805
876.008	22976
876.136	22953
876.265	23174
876.393	23425
876.521	23391
876.65	23364
876.778	23178
876.906	23185
877.034	23220
877.162	23235
877.29	23284
877.418	23258
877.546	23303
877.674	23208
877.802	23197
877.93	23269
878.058	23239
878.185	23162
878.313	23189
878.441	23204
878.568	23079
878.696	23254
878.824	23303
878.951	23288
879.079	23402
879.206	23551
879.333	23379
879.461	23235
879.588	23269
879.715	23334
879.842	23425
879.97	23242
880.097	23083
880.224	23033
880.351	23086
880.478	23044
880.605	22866
880.732	23014
880.859	23181
880.986	22984
881.112	23067
881.239	22900
881.366	22797
881.493	22603
881.619	22660
881.746	22531
881.872	22634
881.999	22546
882.125	22497
882.252	22565
882.378	22512
882.505	22664
882.631	22466
882.757	22371
882.883	22405
883.01	22306
883.136	22303
883.262	22188
883.388	22185
883.514	22188
883.64	22204
883.766	22234
883.892	22002
884.018	22036
884.143	22207
884.269	22234
884.395	22002
884.52	22017
884.646	21888
884.772	21945
884.897	21816
885.023	21918
885.148	22040
885.274	22044
885.399	22067
885.524	21975
885.65	22036
885.775	21953
885.9	21895
886.025	22147
886.15	22040
886.275	21838
886.4	21759
886.525	21808
886.65	21930
886.775	21865
886.9	22025
887.025	22036
887.149	21819
887.274	21717
887.399	21709
887.523	21816
887.648	21568
887.773	21580
887.897	21694
888.021	21751
888.146	21618
888.27	21835
888.395	21739
888.519	21690
888.643	21679
888.767	21743
888.891	21595
889.015	21568
889.139	21534
889.263	21321
889.387	21648
889.511	21641
889.635	21599
889.759	21294
889.883	21538
890.006	21454
890.13	21553
890.254	21408
890.377	21405
890.501	21336
890.624	21199
890.748	21306
890.871	21123
890.995	21036
891.118	20979
891.241	21112
891.364	21062
891.488	21039
891.611	21100
891.734	21005
891.857	21093
891.98	21043
892.103	20944
892.226	21009
892.349	20963
892.471	20861
892.594	20876
892.717	21070
892.839	20952
892.962	20971
893.085	20998
893.207	20880
893.33	20826
893.452	20716
893.575	20906
893.697	20880
893.819	20994
893.941	21051
894.064	21055
894.186	20975
894.308	20811
894.43	20986
894.552	20994
894.674	20979
894.796	20868
894.918	20838
895.04	20891
895.161	21039
895.283	20944
895.405	20872
895.526	20967
895.648	20941
895.769	20944
895.891	21005
896.012	20986
896.134	20918
896.255	20948
896.376	20819
896.498	21028
896.619	20994
896.74	20963
896.861	20963
896.982	21306
897.103	21287
897.224	21241
897.345	21169
897.466	21074
897.587	21142
897.708	21256
897.828	21123
897.949	20956
898.07	20887
898.19	21058
898.311	21237
898.431	20941
898.552	21089
898.672	21150
898.792	21161
898.913	21051
899.033	20956
899.153	20883
899.273	20819
899.393	20754
899.513	20849
899.633	20868
899.753	20857
899.873	20750
899.993	20910
900.113	20830
900.232	20788
900.352	20727
900.472	20655
900.591	20621
900.711	20667
900.83	20541
900.95	20796
901.069	20773
901.189	20434
901.308	20370
901.427	20183
901.546	20294
901.665	20233
901.784	20275
901.904	20016
902.023	19978
902.141	19841
902.26	19715
902.379	19830
902.498	19647
902.617	19658
902.735	19632
902.854	19693
902.973	19586
903.091	19377
903.21	19312
903.328	19270
903.446	19126
903.565	19179
903.683	19118
903.801	18977
903.919	19103
904.038	19110
904.156	18935
904.274	18958
904.392	18954
904.51	18817
904.627	18909
904.745	18996
904.863	19031
904.981	18795
905.098	18536
905.216	18582
905.334	18532
905.451	18616
905.569	18574
905.686	18578
905.803	18479
905.921	18391
906.038	18479
906.155	18418
906.272	18281
906.389	18346
906.506	18136
906.623	18121
906.74	18106
906.857	17996
906.974	18030
907.091	18068
907.208	18239
907.324	18114
907.441	17946
907.557	17866
907.674	17843
907.79	17798
907.907	17809
908.023	17832
908.139	17821
908.256	17630
908.372	17714
908.488	17661
908.604	17585
908.72	17532
908.836	17649
908.952	17379
909.068	17535
909.184	17691
909.3	17417
909.415	17608
909.531	17493
909.647	17345
909.762	17223
909.878	17178
909.993	17067
910.108	17212
910.224	17189
910.339	17159
910.454	17143
910.57	17105
910.685	16904
910.8	17265
910.915	17086
911.03	17098
911.145	16869
911.259	16835
911.374	16824
911.489	16774
911.604	16713
911.718	16519
911.833	16588
911.947	16417
912.062	16489
912.176	16573
912.291	16577
912.405	16603
912.519	16774
912.633	16767
912.748	16497
912.862	16519
912.976	16352
913.09	16242
913.204	16261
913.318	16363
913.431	16421
913.545	16432
913.659	16466
913.772	16363
913.886	16204
914	16192
914.113	16192
914.226	16284
914.34	16116
914.453	16017
914.566	16147
914.68	16101
914.793	16002
914.906	15842
915.019	15679
915.132	15690
915.245	15762
915.358	15759
915.47	15842
915.583	15720
915.696	15831
915.809	15759
915.921	15846
916.034	15618
916.146	15705
916.259	15618
916.371	15762
916.483	15671
916.595	15545
916.708	15538
916.82	15488
916.932	15454
917.044	15477
917.156	15485
917.268	15386
917.38	15408
917.491	15268
917.603	15420
917.715	15348
917.826	15485
917.938	15359
918.049	15180
918.161	15226
918.272	15374
918.384	15359
918.495	15313
918.606	15116
918.717	15039
918.828	15192
918.939	15112
919.05	14971
919.161	15131
919.272	14925
919.383	14899
919.494	15074
919.604	15256
919.715	15104
919.826	15005
919.936	15157
920.047	15146
920.157	15112
920.267	15230
920.378	15085
920.488	15089
920.598	15214
920.708	15332
920.818	15195
920.928	15085
921.038	15275
921.148	15317
921.258	14971
921.368	14956
921.477	14796
921.587	14762
921.697	14689
921.806	14777
921.916	14701
922.025	14480
922.134	14431
922.244	14347
922.353	14446
922.462	14214
922.571	14119
922.68	14107
922.789	13970
922.898	14130
923.007	14039
923.116	14100
923.224	14065
923.333	13963
923.442	13875
923.55	13826
923.659	13837
923.767	13890
923.876	13860
923.984	13944
924.092	13719
924.201	13833
924.309	13807
924.417	13807
924.525	13636
924.633	13765
924.741	14499
924.849	13449
924.956	13613
925.064	13472
925.172	13400
925.279	13453
925.387	13594
925.494	13430
925.602	13525
925.709	13419
925.816	13331
925.924	13392
926.031	13449
926.138	13377
926.245	13480
926.352	13236
926.459	13495
926.566	13434
926.673	13327
926.779	13133
926.886	13179
926.993	13027
927.099	12973
927.206	12897
927.312	12954
927.419	12947
927.525	12996
927.631	13038
927.737	12916
927.843	12875
927.95	12608
928.056	12791
928.162	12783
928.267	12829
928.373	13411
928.479	12901
928.585	12536
928.69	12757
928.796	12886
928.901	12620
929.007	12559
929.112	12722
929.218	12623
929.323	12536
929.428	12551
929.533	12662
929.638	12506
929.743	12475
929.848	12452
929.953	12460
930.058	12445
930.163	12224
930.267	12270
930.372	12388
930.477	12106
930.581	12391
930.685	12197
930.79	12114
930.894	12091
930.998	12064
931.103	12171
931.207	11840
931.311	11779
931.415	11623
931.519	11482
931.623	11471
