Data from test_V78500241_3059.txt Node
Date: Fri Mar 25 16:02:59 CST 2022
User: usil
Spectrometer: V785-0024
Trigger mode: 0
Integration Time (sec): 4.000000E-1
Scans to average: 1
Nonlinearity correction enabled: false
Boxcar width: 0
Storing dark spectrum: false
XAxis mode: Wavelengths
Number of Pixels in Spectrum: 1024
>>>>>Begin Spectral Data<<<<<
801.071	28725
801.214	28748
801.356	28508
801.499	28569
801.641	28424
801.783	28246
801.926	28360
802.068	28401
802.211	28284
802.353	28322
802.496	28128
802.638	27998
802.78	28109
802.923	28025
803.065	27934
803.208	27914
803.35	28025
803.492	28135
803.635	28215
803.777	28360
803.919	28352
804.061	28557
804.204	28390
804.346	28158
804.488	28215
804.63	28276
804.773	28261
804.915	28474
805.057	28360
805.199	28367
805.341	28386
805.483	28409
805.626	28363
805.768	28432
805.91	28394
806.052	28554
806.194	28348
806.336	28573
806.478	28542
806.62	28428
806.762	28561
806.904	28786
807.046	29079
807.188	28930
807.33	28892
807.472	29014
807.614	28793
807.756	28892
807.898	28793
808.04	28729
808.182	28596
808.324	28843
808.465	28862
808.607	29018
808.749	29109
808.891	29239
809.033	29246
809.174	29216
809.316	29090
809.458	29075
809.6	29025
809.741	29166
809.883	29353
810.025	29414
810.166	29459
810.308	29387
810.45	29471
810.591	29364
810.733	29208
810.875	29170
811.016	29006
811.158	28984
811.299	29140
811.441	29231
811.582	29452
811.724	29235
811.865	29239
812.007	29200
812.148	29155
812.29	29200
812.431	29448
812.573	29551
812.714	29630
812.855	29691
812.997	29729
813.138	29988
813.279	29729
813.421	29615
813.562	29566
813.703	29349
813.845	29345
813.986	29227
814.127	28934
814.268	29003
814.41	28816
814.551	28649
814.692	28843
814.833	28733
814.974	28835
815.115	28869
815.256	28767
815.397	28831
815.539	28725
815.68	28706
815.821	28618
815.962	28672
816.103	28668
816.244	28535
816.385	28497
816.526	28390
816.666	28200
816.807	28158
816.948	28257
817.089	28215
817.23	28211
817.371	28162
817.512	28139
817.653	28219
817.793	28162
817.934	28185
818.075	28344
818.216	28192
818.356	28166
818.497	28078
818.638	27850
818.778	28021
818.919	27979
819.06	28139
819.2	28086
819.341	28154
819.481	28177
819.622	28443
819.762	28603
819.903	28497
820.043	28379
820.184	28428
820.324	28265
820.465	28386
820.605	28284
820.746	28356
820.886	28131
821.026	28299
821.167	28268
821.307	28382
821.447	28253
821.588	28063
821.728	28032
821.868	27846
822.008	27739
822.149	27656
822.289	27614
822.429	27416
822.569	27477
822.709	27401
822.849	27192
822.99	27188
823.13	27127
823.27	27146
823.41	26937
823.55	26792
823.69	27043
823.83	27165
823.97	26842
824.11	26743
824.25	26807
824.389	26842
824.529	26891
824.669	27017
824.809	26925
824.949	26952
825.089	26785
825.228	26902
825.368	26701
825.508	26670
825.648	26842
825.787	26777
825.927	26739
826.067	26739
826.206	26663
826.346	26724
826.485	26861
826.625	26735
826.765	26895
826.904	26792
827.044	26568
827.183	26453
827.323	26393
827.462	26450
827.601	26537
827.741	26526
827.88	26476
828.02	26522
828.159	26347
828.298	26450
828.437	26484
828.577	26434
828.716	26427
828.855	26377
828.994	26119
829.134	26240
829.273	26343
829.412	25887
829.551	26043
829.69	26161
829.829	26016
829.968	26256
830.107	26221
830.246	26218
830.385	26195
830.524	26024
830.663	25898
830.802	25917
830.941	25727
831.08	25670
831.219	25849
831.357	25715
831.496	25833
831.635	25830
831.774	25514
831.913	25616
832.051	25556
832.19	25479
832.329	25438
832.467	25464
832.606	25400
832.744	25335
832.883	25320
833.022	25415
833.16	25270
833.299	25464
833.437	25434
833.576	25540
833.714	25403
833.852	25495
833.991	25559
834.129	25540
834.267	25537
834.406	25449
834.544	25537
834.682	25472
834.821	25396
834.959	25559
835.097	25430
835.235	25426
835.373	25400
835.511	25476
835.65	25297
835.788	25339
835.926	25221
836.064	25061
836.202	25179
836.34	25232
836.478	25377
836.615	25263
836.753	25320
836.891	25411
837.029	25278
837.167	25274
837.305	25107
837.443	25217
837.58	25240
837.718	25072
837.856	25145
837.993	25034
838.131	25091
838.269	24992
838.406	25027
838.544	24985
838.681	24852
838.819	24817
838.956	24589
839.094	24570
839.231	24612
839.369	24810
839.506	24871
839.643	24951
839.781	24631
839.918	24448
840.055	24566
840.193	24540
840.33	24555
840.467	24593
840.604	24593
840.742	24810
840.879	24323
841.016	24372
841.153	24296
841.29	24521
841.427	24475
841.564	24601
841.701	24376
841.838	24540
841.975	24323
842.112	24330
842.249	24296
842.385	24289
842.522	24429
842.659	24395
842.796	24220
842.933	24190
843.069	24178
843.206	24254
843.343	24353
843.479	24167
843.616	24311
843.752	24011
843.889	24026
844.025	24159
844.162	24011
844.298	23946
844.435	24007
844.571	24003
844.708	24038
844.844	24194
844.98	24011
845.117	24068
845.253	24083
845.389	23973
845.525	23885
845.661	23828
845.798	23794
845.934	23802
846.07	23752
846.206	23790
846.342	23805
846.478	23665
846.614	23547
846.75	23444
846.886	23501
847.022	23497
847.158	23497
847.294	23478
847.429	23505
847.565	23440
847.701	23680
847.837	23239
847.972	23204
848.108	23307
848.244	23284
848.379	23151
848.515	23098
848.65	23162
848.786	22980
848.921	23128
849.057	23254
849.192	23071
849.328	23113
849.463	23041
849.598	23117
849.734	22987
849.869	22850
850.004	22767
850.14	22904
850.275	22847
850.41	22877
850.545	22778
850.68	22683
850.815	22942
850.95	22831
851.085	23048
851.22	22999
851.355	22812
851.49	22801
851.625	22828
851.76	22786
851.895	22691
852.03	22835
852.165	22866
852.299	22862
852.434	22900
852.569	22953
852.703	22717
852.838	22953
852.973	22892
853.107	22934
853.242	22706
853.376	22565
853.511	22554
853.645	22573
853.78	22831
853.914	22637
854.048	22618
854.183	22660
854.317	22736
854.451	22843
854.585	22721
854.72	22607
854.854	22835
854.988	22588
855.122	22592
855.256	22599
855.39	22615
855.524	22767
855.658	22713
855.792	22615
855.926	22691
856.06	22713
856.194	22687
856.327	22546
856.461	22557
856.595	22542
856.729	22698
856.862	22786
856.996	22656
857.13	22790
857.263	22771
857.397	22729
857.53	22485
857.664	22725
857.797	22622
857.931	22752
858.064	22736
858.197	22831
858.331	22634
858.464	22592
858.597	22508
858.731	22660
858.864	22607
858.997	22649
859.13	22565
859.263	22649
859.396	22622
859.529	22710
859.662	22599
859.795	22599
859.928	22592
860.061	22740
860.194	22820
860.327	22740
860.46	22637
860.592	22675
860.725	22839
860.858	22816
860.99	22729
861.123	22538
861.256	22561
861.388	22561
861.521	23398
861.653	22603
861.786	22375
861.918	22459
862.05	22474
862.183	22466
862.315	22531
862.447	22702
862.58	22542
862.712	22436
862.844	22329
862.976	22478
863.108	22421
863.24	22885
863.372	22299
863.504	22394
863.636	22257
863.768	22299
863.9	22299
864.032	22230
864.164	22272
864.296	22284
864.428	22398
864.559	22341
864.691	22455
864.823	22405
864.954	22322
865.086	22287
865.217	22211
865.349	22234
865.48	22169
865.612	22219
865.743	22303
865.875	22166
866.006	22173
866.137	22154
866.269	22325
866.4	22169
866.531	22109
866.662	22105
866.793	22166
866.924	22139
867.055	22101
867.186	22128
867.317	22021
867.448	22112
867.579	22204
867.71	22029
867.841	21975
867.972	22242
868.103	22120
868.233	22143
868.364	22093
868.495	22226
868.625	22421
868.756	22405
868.886	22310
869.017	22432
869.147	22504
869.278	22557
869.408	22443
869.539	22379
869.669	22440
869.799	22493
869.929	22485
870.06	22402
870.19	22752
870.32	22653
870.45	22622
870.58	22847
870.71	22824
870.84	22987
870.97	22675
871.1	22759
871.23	23056
871.36	23105
871.489	22854
871.619	22843
871.749	22991
871.879	23025
872.008	23121
872.138	22881
872.267	23044
872.397	22911
872.526	22858
872.656	22824
872.785	22771
872.915	23064
873.044	22972
873.173	22976
873.303	23064
873.432	23075
873.561	23083
873.69	22991
873.819	22987
873.948	22972
874.077	22995
874.206	22999
874.335	22965
874.464	23117
874.593	23208
874.722	23258
874.851	23227
874.979	23216
875.108	23140
875.237	23307
875.365	23022
875.494	23193
875.623	23174
875.751	23181
875.88	23299
876.008	23307
876.136	23364
876.265	23486
876.393	23733
876.521	23630
876.65	23627
876.778	23737
876.906	23611
877.034	23615
877.162	23668
877.29	23486
877.418	23577
877.546	23577
877.674	23459
877.802	23429
877.93	23581
878.058	23478
878.185	23410
878.313	23478
878.441	23505
878.568	23353
878.696	23524
878.824	23623
878.951	23722
879.079	23623
879.206	23817
879.333	23699
879.461	23551
879.588	23604
879.715	23764
879.842	23802
879.97	23608
880.097	23372
880.224	23391
880.351	23425
880.478	23356
880.605	23345
880.732	23326
880.859	23642
880.986	23322
881.112	23398
881.239	23220
881.366	23200
881.493	22999
881.619	22946
881.746	22984
881.872	22968
881.999	22938
882.125	22877
882.252	22915
882.378	22839
882.505	23029
882.631	22771
882.757	22679
882.883	22835
883.01	22611
883.136	22489
883.262	22561
883.388	22436
883.514	22535
883.64	22660
883.766	22504
883.892	22405
884.018	22382
884.143	22398
884.269	22603
884.395	22367
884.52	22257
884.646	22310
884.772	22226
884.897	22086
885.023	22223
885.148	22215
885.274	22356
885.399	22314
885.524	22230
885.65	22356
885.775	22242
885.9	22131
886.025	22306
886.15	22257
886.275	22147
886.4	22109
886.525	22246
886.65	22158
886.775	22158
886.9	22386
887.025	22344
887.149	22261
887.274	22017
887.399	21998
887.523	22090
887.648	22032
887.773	21861
887.897	22002
888.021	22059
888.146	21945
888.27	22169
888.395	22078
888.519	22074
888.643	22063
888.767	21998
888.891	21983
889.015	21747
889.139	21876
889.263	21686
889.387	21899
889.511	22036
889.635	21922
889.759	21751
889.883	21701
890.006	21720
890.13	21797
890.254	21698
890.377	21698
890.501	21564
890.624	21412
890.748	21656
890.871	21416
890.995	21325
891.118	21378
891.241	21283
891.364	21428
891.488	21542
891.611	21450
891.734	21203
891.857	21450
891.98	21416
892.103	21370
892.226	21294
892.349	21275
892.471	21116
892.594	21279
892.717	21233
892.839	21112
892.962	21176
893.085	21272
893.207	21146
893.33	21214
893.452	21066
893.575	21287
893.697	21241
893.819	21389
893.941	21401
894.064	21329
894.186	21154
894.308	21085
894.43	21226
894.552	21420
894.674	21287
894.796	21230
894.918	21195
895.04	21131
895.161	21279
895.283	21211
895.405	21036
895.526	21275
895.648	21176
895.769	21203
895.891	21180
896.012	21336
896.134	21230
896.255	21233
896.376	21195
896.498	21195
896.619	21256
896.74	21264
896.861	21116
896.982	21622
897.103	21614
897.224	21291
897.345	21458
897.466	21294
897.587	21389
897.708	21568
897.828	21420
897.949	21302
898.07	21264
898.19	21378
898.311	21500
898.431	21405
898.552	21313
898.672	21481
898.792	21389
898.913	21336
899.033	21249
899.153	21123
899.273	21131
899.393	21108
899.513	21112
899.633	21070
899.753	21207
899.873	21055
899.993	21150
900.113	20979
900.232	21119
900.352	20990
900.472	20990
900.591	20838
900.711	20880
900.83	20811
900.95	20963
901.069	21032
901.189	20857
901.308	20533
901.427	20507
901.546	20431
901.665	20476
901.784	20454
901.904	20210
902.023	20210
902.141	20020
902.26	19944
902.379	19986
902.498	20012
902.617	19940
902.735	19909
902.854	19993
902.973	19898
903.091	19635
903.21	19628
903.328	19613
903.446	19495
903.565	19411
903.683	19411
903.801	19240
903.919	19407
904.038	19346
904.156	19217
904.274	19099
904.392	19164
904.51	19156
904.627	19137
904.745	19301
904.863	19194
904.981	19000
905.098	18806
905.216	18825
905.334	18882
905.451	18886
905.569	18798
905.686	18867
905.803	18814
905.921	18654
906.038	18787
906.155	18700
906.272	18471
906.389	18460
906.506	18315
906.623	18399
906.74	18277
906.857	18251
906.974	18232
907.091	18391
907.208	18555
907.324	18304
907.441	18304
907.557	18178
907.674	18072
907.79	18015
907.907	18060
908.023	18133
908.139	18045
908.256	17965
908.372	17855
908.488	17897
908.604	17828
908.72	17714
908.836	17703
908.952	17752
909.068	17832
909.184	17912
909.3	17676
909.415	17855
909.531	17821
909.647	17516
909.762	17501
909.878	17360
909.993	17551
910.108	17383
910.224	17410
910.339	17471
910.454	17246
910.57	17216
910.685	17193
910.8	17467
910.915	17486
911.03	17220
911.145	17086
911.259	17010
911.374	17102
911.489	17010
911.604	16965
911.718	16763
911.833	16850
911.947	16733
912.062	16618
912.176	16790
912.291	16805
912.405	16831
912.519	16930
912.633	16957
912.748	16831
912.862	16706
912.976	16542
913.09	16489
913.204	16470
913.318	16611
913.431	16550
913.545	16653
913.659	16710
913.772	16523
913.886	16535
914	16314
914.113	16352
914.226	16519
914.34	16405
914.453	16139
914.566	16432
914.68	16257
914.793	16223
914.906	16071
915.019	15983
915.132	15975
915.245	16044
915.358	15991
915.47	16002
915.583	15892
915.696	15918
915.809	16048
915.921	16124
916.034	15895
916.146	15880
916.259	15838
916.371	15899
916.483	15934
916.595	15770
916.708	15732
916.82	15781
916.932	15595
917.044	15690
917.156	15747
917.268	15591
917.38	15629
917.491	15549
917.603	15549
917.715	15732
917.826	15663
917.938	15496
918.049	15382
918.161	15568
918.272	15694
918.384	15644
918.495	15538
918.606	15302
918.717	15336
918.828	15241
918.939	15355
919.05	15226
919.161	15317
919.272	15123
919.383	15169
919.494	15321
919.604	15500
919.715	15321
919.826	15150
919.936	15302
920.047	15302
920.157	15283
920.267	15481
920.378	15218
920.488	15195
920.598	15370
920.708	15606
920.818	15256
920.928	15447
921.038	15599
921.148	15466
921.258	15192
921.368	15089
921.477	14914
921.587	15051
921.697	14891
921.806	15001
921.916	14849
922.025	14792
922.134	14644
922.244	14537
922.353	14765
922.462	14522
922.571	14412
922.68	14313
922.789	14267
922.898	14278
923.007	14199
923.116	14351
923.224	14221
923.333	14263
923.442	14123
923.55	14054
923.659	14107
923.767	14153
923.876	14058
923.984	14119
924.092	13982
924.201	14073
924.309	13997
924.417	14027
924.525	13928
924.633	13986
924.741	14636
924.849	13750
924.956	13784
925.064	13727
925.172	13624
925.279	13620
925.387	13696
925.494	13578
925.602	13655
925.709	13643
925.816	13502
925.924	13575
926.031	13670
926.138	13529
926.245	13651
926.352	13506
926.459	13601
926.566	13597
926.673	13453
926.779	13365
926.886	13274
926.993	13293
927.099	13141
927.206	13160
927.312	13152
927.419	13236
927.525	13217
927.631	13145
927.737	13053
927.843	13000
927.95	12977
928.056	13023
928.162	12947
928.267	12993
928.373	13518
928.479	13095
928.585	12692
928.69	12939
928.796	12951
928.901	12798
929.007	12741
929.112	12939
929.218	12787
929.323	12703
929.428	12833
929.533	12783
929.638	12635
929.743	12646
929.848	12711
929.953	12700
930.058	12597
930.163	12376
930.267	12391
930.372	12517
930.477	12304
930.581	12563
930.685	12448
930.79	12247
930.894	12262
930.998	12243
931.103	12323
931.207	11942
931.311	11897
931.415	11843
931.519	11668
931.623	11615
