Data from test_V78500241_3358.txt Node
Date: Fri Mar 25 16:05:03 CST 2022
User: usil
Spectrometer: V785-0024
Trigger mode: 0
Integration Time (sec): 4.000000E-1
Scans to average: 1
Nonlinearity correction enabled: false
Boxcar width: 0
Storing dark spectrum: false
XAxis mode: Wavelengths
Number of Pixels in Spectrum: 1024
>>>>>Begin Spectral Data<<<<<
801.071	28934
801.214	29128
801.356	28828
801.499	28725
801.641	28599
801.783	28596
801.926	28725
802.068	28641
802.211	28527
802.353	28618
802.496	28504
802.638	28401
802.78	28314
802.923	28379
803.065	28246
803.208	28371
803.35	28337
803.492	28516
803.635	28554
803.777	28455
803.919	28710
804.061	29006
804.204	28778
804.346	28607
804.488	28569
804.63	28569
804.773	28618
804.915	28679
805.057	28710
805.199	28550
805.341	28759
805.483	28904
805.626	28767
805.768	28828
805.91	28774
806.052	28767
806.194	28664
806.336	28892
806.478	28824
806.62	28755
806.762	28908
806.904	29170
807.046	29421
807.188	29337
807.33	29189
807.472	29303
807.614	29303
807.756	29143
807.898	29067
808.04	28957
808.182	29071
808.324	29140
808.465	29292
808.607	29341
808.749	29516
808.891	29619
809.033	29684
809.174	29570
809.316	29531
809.458	29566
809.6	29482
809.741	29524
809.883	29623
810.025	29843
810.166	29999
810.308	29897
810.45	29699
810.591	29615
810.733	29490
810.875	29585
811.016	29490
811.158	29448
811.299	29653
811.441	29665
811.582	29687
811.724	29349
811.865	29505
812.007	29623
812.148	29570
812.29	29554
812.431	29676
812.573	30003
812.714	29897
812.855	30110
812.997	30144
813.138	30311
813.279	30262
813.421	29965
813.562	29908
813.703	29840
813.845	29977
813.986	29539
814.127	29337
814.268	29379
814.41	29292
814.551	29220
814.692	29372
814.833	29315
814.974	29067
815.115	29379
815.256	29033
815.397	29265
815.539	29018
815.68	29029
815.821	29003
815.962	29136
816.103	29140
816.244	29014
816.385	28892
816.526	28927
816.666	28763
816.807	28694
816.948	28618
817.089	28801
817.23	28615
817.371	28801
817.512	28675
817.653	28523
817.793	28599
817.934	28542
818.075	28596
818.216	28588
818.356	28641
818.497	28626
818.638	28367
818.778	28234
818.919	28474
819.06	28432
819.2	28459
819.341	28569
819.481	28554
819.622	28733
819.762	29033
819.903	28850
820.043	28755
820.184	28888
820.324	28892
820.465	28752
820.605	28577
820.746	28691
820.886	28538
821.026	28782
821.167	28660
821.307	28748
821.447	28763
821.588	28462
821.728	28451
821.868	28238
822.008	27934
822.149	28150
822.289	28242
822.429	27812
822.569	27728
822.709	27682
822.849	27595
822.99	27637
823.13	27382
823.27	27561
823.41	27447
823.55	27249
823.69	27386
823.83	27367
823.97	27431
824.11	27374
824.25	27256
824.389	27173
824.529	27306
824.669	27275
824.809	27519
824.949	27454
825.089	27287
825.228	27291
825.368	27077
825.508	27096
825.648	27142
825.787	27298
825.927	27245
826.067	27142
826.206	27096
826.346	27279
826.485	27169
826.625	27051
826.765	27325
826.904	27222
827.044	26956
827.183	26975
827.323	26842
827.462	27001
827.601	26868
827.741	26739
827.88	26979
828.02	26921
828.159	26815
828.298	26872
828.437	26944
828.577	26727
828.716	27055
828.855	26609
828.994	26667
829.134	26606
829.273	26526
829.412	26461
829.551	26549
829.69	26583
829.829	26511
829.968	26632
830.107	26636
830.246	26571
830.385	26461
830.524	26568
830.663	26396
830.802	26366
830.941	26103
831.08	26183
831.219	26233
831.357	26191
831.496	26404
831.635	26134
831.774	26180
831.913	26088
832.051	25841
832.19	25989
832.329	25974
832.467	25791
832.606	25628
832.744	25769
832.883	25955
833.022	25769
833.16	25944
833.299	25883
833.437	25746
833.576	25902
833.714	25997
833.852	25890
833.991	25944
834.129	26134
834.267	26016
834.406	25978
834.544	25921
834.682	25921
834.821	25784
834.959	26012
835.097	25811
835.235	25944
835.373	25849
835.511	25894
835.65	25666
835.788	25803
835.926	25575
836.064	25445
836.202	25700
836.34	25643
836.478	25776
836.615	25700
836.753	25738
836.891	25605
837.029	25677
837.167	25696
837.305	25571
837.443	25670
837.58	25472
837.718	25689
837.856	25457
837.993	25472
838.131	25518
838.269	25426
838.406	25479
838.544	25251
838.681	25206
838.819	25076
838.956	25072
839.094	25050
839.231	25114
839.369	25168
839.506	25514
839.643	25327
839.781	25034
839.918	24928
840.055	25019
840.193	24939
840.33	24905
840.467	24795
840.604	24916
840.742	25053
840.879	24894
841.016	24916
841.153	24833
841.29	25076
841.427	24764
841.564	24886
841.701	24886
841.838	24856
841.975	24863
842.112	24840
842.249	24726
842.385	24707
842.522	24924
842.659	24726
842.796	24623
842.933	24601
843.069	24570
843.206	24707
843.343	24722
843.479	24601
843.616	24681
843.752	24433
843.889	24467
844.025	24608
844.162	24395
844.298	24525
844.435	24315
844.571	24311
844.708	24483
844.844	24661
844.98	24608
845.117	24574
845.253	24334
845.389	24308
845.525	24399
845.661	24235
845.798	24110
845.934	24292
846.07	24186
846.206	24273
846.342	24300
846.478	24213
846.614	23912
846.75	23813
846.886	23965
847.022	23874
847.158	24015
847.294	23805
847.429	23946
847.565	23866
847.701	24292
847.837	23528
847.972	23627
848.108	23672
848.244	23638
848.379	23478
848.515	23452
848.65	23474
848.786	23505
848.921	23528
849.057	23585
849.192	23573
849.328	23486
849.463	23360
849.598	23512
849.734	23387
849.869	23341
850.004	23155
850.14	23204
850.275	23147
850.41	23220
850.545	23155
850.68	23239
850.815	23197
850.95	23246
851.085	23417
851.22	23372
851.355	23284
851.49	23216
851.625	23204
851.76	23178
851.895	23204
852.03	23181
852.165	23189
852.299	23341
852.434	23311
852.569	23288
852.703	23277
852.838	23391
852.973	23444
853.107	23288
853.242	23041
853.376	23098
853.511	22987
853.645	22976
853.78	23170
853.914	23067
854.048	23098
854.183	22965
854.317	23132
854.451	23307
854.585	23098
854.72	23022
854.854	23064
854.988	23105
855.122	23189
855.256	22923
855.39	23117
855.524	22976
855.658	23014
855.792	22953
855.926	23052
856.06	23124
856.194	23041
856.327	22892
856.461	22957
856.595	22946
856.729	23075
856.862	23212
856.996	23132
857.13	23128
857.263	23155
857.397	23060
857.53	23003
857.664	23090
857.797	23083
857.931	23197
858.064	23121
858.197	23136
858.331	22991
858.464	22968
858.597	22999
858.731	22968
858.864	22961
858.997	22877
859.13	22896
859.263	23159
859.396	23155
859.529	23029
859.662	23033
859.795	23041
859.928	23121
860.061	23181
860.194	23356
860.327	23098
860.46	23052
860.592	23128
860.725	23170
860.858	23246
860.99	23037
861.123	22938
861.256	22984
861.388	23079
861.521	23714
861.653	22908
861.786	22930
861.918	22854
862.05	22953
862.183	22919
862.315	23037
862.447	22911
862.58	22862
862.712	22809
862.844	22793
862.976	22991
863.108	22930
863.24	23269
863.372	22729
863.504	22607
863.636	22771
863.768	22767
863.9	22843
864.032	22725
864.164	22725
864.296	22858
864.428	22904
864.559	22831
864.691	22828
864.823	22759
864.954	22740
865.086	22687
865.217	22626
865.349	22394
865.48	22554
865.612	22603
865.743	22801
865.875	22622
866.006	22622
866.137	22744
866.269	22622
866.4	22630
866.531	22493
866.662	22577
866.793	22634
866.924	22603
867.055	22561
867.186	22615
867.317	22474
867.448	22382
867.579	22535
867.71	22489
867.841	22478
867.972	22455
868.103	22588
868.233	22538
868.364	22580
868.495	22717
868.625	22767
868.756	22900
868.886	22771
869.017	22748
869.147	22892
869.278	22866
869.408	22759
869.539	22854
869.669	22797
869.799	22873
869.929	23067
870.06	22850
870.19	23136
870.32	23067
870.45	23303
870.58	23193
870.71	23341
870.84	23265
870.97	23250
871.1	23246
871.23	23307
871.36	23455
871.489	23349
871.619	23318
871.749	23353
871.879	23273
872.008	23402
872.138	23486
872.267	23356
872.397	23277
872.526	23265
872.656	23242
872.785	23124
872.915	23471
873.044	23512
873.173	23501
873.303	23566
873.432	23337
873.561	23604
873.69	23528
873.819	23402
873.948	23531
874.077	23482
874.206	23410
874.335	23455
874.464	23436
874.593	23649
874.722	23512
874.851	23687
874.979	23630
875.108	23585
875.237	23581
875.365	23474
875.494	23543
875.623	23695
875.751	23448
875.88	23634
876.008	23699
876.136	23764
876.265	24098
876.393	24174
876.521	24083
876.65	24076
876.778	23977
876.906	24015
877.034	23954
877.162	23866
877.29	23870
877.418	23859
877.546	24072
877.674	23980
877.802	24076
877.93	23805
878.058	23843
878.185	23893
878.313	23828
878.441	23843
878.568	23817
878.696	23939
878.824	23798
878.951	24079
879.079	24144
879.206	24342
879.333	24182
879.461	24079
879.588	24205
879.715	24007
879.842	24125
879.97	23992
880.097	23798
880.224	23718
880.351	23729
880.478	23676
880.605	23638
880.732	23786
880.859	23939
880.986	23790
881.112	23817
881.239	23672
881.366	23486
881.493	23353
881.619	23345
881.746	23334
881.872	23482
881.999	23315
882.125	23170
882.252	23277
882.378	23303
882.505	23467
882.631	23143
882.757	23121
882.883	23166
883.01	22984
883.136	22946
883.262	22961
883.388	22953
883.514	22972
883.64	23022
883.766	22927
883.892	22713
884.018	22656
884.143	22965
884.269	23056
884.395	22649
884.52	22542
884.646	22637
884.772	22653
884.897	22500
885.023	22611
885.148	22755
885.274	22778
885.399	22694
885.524	22637
885.65	22683
885.775	22702
885.9	22508
886.025	22733
886.15	22542
886.275	22599
886.4	22500
886.525	22691
886.65	22546
886.775	22584
886.9	22786
887.025	22805
887.149	22535
887.274	22428
887.399	22322
887.523	22363
887.648	22322
887.773	22280
887.897	22390
888.021	22424
888.146	22253
888.27	22398
888.395	22557
888.519	22329
888.643	22333
888.767	22379
888.891	22314
889.015	22150
889.139	22158
889.263	22219
889.387	22325
889.511	22337
889.635	22291
889.759	22166
889.883	22109
890.006	22207
890.13	22192
890.254	22181
890.377	22097
890.501	21918
890.624	21937
890.748	21785
890.871	21728
890.995	21698
891.118	21732
891.241	21797
891.364	21717
891.488	21953
891.611	21663
891.734	21728
891.857	21762
891.98	21759
892.103	21797
892.226	21774
892.349	21759
892.471	21564
892.594	21519
892.717	21641
892.839	21572
892.962	21644
893.085	21690
893.207	21629
893.33	21454
893.452	21515
893.575	21709
893.697	21504
893.819	21709
893.941	21842
894.064	21728
894.186	21428
894.308	21466
894.43	21587
894.552	21831
894.674	21739
894.796	21496
894.918	21557
895.04	21412
895.161	21648
895.283	21595
895.405	21405
895.526	21523
895.648	21507
895.769	21481
895.891	21595
896.012	21523
896.134	21564
896.255	21739
896.376	21557
896.498	21675
896.619	21553
896.74	21538
896.861	21549
896.982	21876
897.103	21945
897.224	21842
897.345	21781
897.466	21625
897.587	21705
897.708	21774
897.828	21816
897.949	21770
898.07	21580
898.19	21648
898.311	21819
898.431	21755
898.552	21850
898.672	21762
898.792	21835
898.913	21694
899.033	21667
899.153	21473
899.273	21370
899.393	21530
899.513	21382
899.633	21473
899.753	21401
899.873	21389
899.993	21545
900.113	21332
900.232	21545
900.352	21359
900.472	21218
900.591	21127
900.711	21279
900.83	21233
900.95	21351
901.069	21291
901.189	21062
901.308	20853
901.427	20697
901.546	20750
901.665	20880
901.784	20765
901.904	20705
902.023	20507
902.141	20282
902.26	20400
902.379	20461
902.498	20309
902.617	20168
902.735	20362
902.854	20240
902.973	20278
903.091	20088
903.21	19940
903.328	19909
903.446	19795
903.565	19769
903.683	19784
903.801	19681
903.919	19651
904.038	19677
904.156	19521
904.274	19556
904.392	19422
904.51	19350
904.627	19381
904.745	19495
904.863	19529
904.981	19236
905.098	19148
905.216	19209
905.334	19171
905.451	19187
905.569	19190
905.686	19141
905.803	19278
905.921	19046
906.038	19099
906.155	19099
906.272	18886
906.389	18882
906.506	18745
906.623	18707
906.74	18665
906.857	18597
906.974	18673
907.091	18692
907.208	18814
907.324	18745
907.441	18627
907.557	18353
907.674	18486
907.79	18346
907.907	18391
908.023	18547
908.139	18311
908.256	18433
908.372	18300
908.488	18357
908.604	18155
908.72	18098
908.836	18159
908.952	18030
909.068	18095
909.184	18235
909.3	18076
909.415	18209
909.531	18011
909.647	17783
909.762	17771
909.878	17764
909.993	17836
910.108	17802
910.224	17676
910.339	17828
910.454	17741
910.57	17756
910.685	17474
910.8	17821
910.915	17790
911.03	17672
911.145	17341
911.259	17368
911.374	17452
911.489	17376
911.604	17246
911.718	17121
911.833	17166
911.947	17075
912.062	16984
912.176	17189
912.291	17140
912.405	17181
912.519	17311
912.633	17318
912.748	17098
912.862	17124
912.976	16866
913.09	16839
913.204	16957
913.318	16930
913.431	17052
913.545	17048
913.659	16976
913.772	16847
913.886	16824
914	16710
914.113	16843
914.226	16763
914.34	16790
914.453	16558
914.566	16626
914.68	16599
914.793	16527
914.906	16504
915.019	16299
915.132	16192
915.245	16173
915.358	16310
915.47	16268
915.583	16200
915.696	16363
915.809	16379
915.921	16394
916.034	16181
916.146	16135
916.259	16128
916.371	16162
916.483	16192
916.595	16150
916.708	16063
916.82	16074
916.932	16090
917.044	16051
917.156	16029
917.268	15835
917.38	15918
917.491	15816
917.603	15941
917.715	15975
917.826	15873
917.938	15865
918.049	15736
918.161	15857
918.272	15915
918.384	15983
918.495	15888
918.606	15652
918.717	15622
918.828	15751
918.939	15679
919.05	15477
919.161	15629
919.272	15359
919.383	15538
919.494	15610
919.604	15713
919.715	15641
919.826	15526
919.936	15564
920.047	15568
920.157	15568
920.267	15660
920.378	15564
920.488	15542
920.598	15789
920.708	15953
920.818	15679
920.928	15614
921.038	16010
921.148	15694
921.258	15538
921.368	15523
921.477	15367
921.587	15329
921.697	15138
921.806	15233
921.916	15135
922.025	14849
922.134	14914
922.244	14883
922.353	14872
922.462	14762
922.571	14701
922.68	14499
922.789	14526
922.898	14446
923.007	14393
923.116	14556
923.224	14522
923.333	14461
923.442	14461
923.55	14259
923.659	14317
923.767	14431
923.876	14278
923.984	14381
924.092	14278
924.201	14278
924.309	14301
924.417	14252
924.525	14206
924.633	14206
924.741	15138
924.849	13993
924.956	14050
925.064	13845
925.172	13776
925.279	13970
925.387	14035
925.494	13856
925.602	14092
925.709	13947
925.816	13788
925.924	13799
926.031	13890
926.138	13837
926.245	13879
926.352	13731
926.459	13864
926.566	13921
926.673	13704
926.779	13643
926.886	13636
926.993	13464
927.099	13396
927.206	13400
927.312	13324
927.419	13426
927.525	13426
927.631	13430
927.737	13308
927.843	13278
927.95	13129
928.056	13206
928.162	13289
928.267	13202
928.373	13833
928.479	13304
928.585	13019
928.69	13179
928.796	13198
928.901	13061
929.007	12897
929.112	13019
929.218	13004
929.323	12905
929.428	12954
929.533	13069
929.638	12954
929.743	12863
929.848	12951
929.953	12837
930.058	12745
930.163	12604
930.267	12604
930.372	12741
930.477	12521
930.581	12779
930.685	12654
930.79	12517
930.894	12555
930.998	12498
931.103	12578
931.207	12178
931.311	12175
931.415	12060
931.519	11897
931.623	11817
