Data from test_V78500241_470.txt Node
Date: Fri Mar 25 15:45:03 CST 2022
User: usil
Spectrometer: V785-0024
Trigger mode: 0
Integration Time (sec): 4.000000E-1
Scans to average: 1
Nonlinearity correction enabled: false
Boxcar width: 0
Storing dark spectrum: false
XAxis mode: Wavelengths
Number of Pixels in Spectrum: 1024
>>>>>Begin Spectral Data<<<<<
801.071	27728
801.214	27622
801.356	27393
801.499	27268
801.641	27165
801.783	27226
801.926	27332
802.068	27233
802.211	27165
802.353	27074
802.496	27032
802.638	26918
802.78	26994
802.923	26979
803.065	26925
803.208	26944
803.35	26762
803.492	26902
803.635	27047
803.777	26826
803.919	27036
804.061	27424
804.204	27001
804.346	27058
804.488	26853
804.63	26979
804.773	26906
804.915	26990
805.057	27245
805.199	27051
805.341	27066
805.483	27028
805.626	27135
805.768	26990
805.91	27135
806.052	27207
806.194	27173
806.336	27336
806.478	27321
806.62	27055
806.762	27279
806.904	27351
807.046	27538
807.188	27705
807.33	27599
807.472	27515
807.614	27473
807.756	27633
807.898	27431
808.04	27469
808.182	27336
808.324	27306
808.465	27488
808.607	27622
808.749	27785
808.891	27865
809.033	27911
809.174	27835
809.316	27755
809.458	27728
809.6	27770
809.741	27941
809.883	27998
810.025	27964
810.166	28059
810.308	28013
810.45	27998
810.591	28013
810.733	27895
810.875	27907
811.016	27709
811.158	27682
811.299	27827
811.441	28112
811.582	27979
811.724	27892
811.865	27736
812.007	27648
812.148	27633
812.29	27736
812.431	27949
812.573	28097
812.714	28219
812.855	28360
812.997	28379
813.138	28542
813.279	28436
813.421	28508
813.562	28265
813.703	28200
813.845	27979
813.986	27751
814.127	27481
814.268	27477
814.41	27557
814.551	27389
814.692	27348
814.833	27462
814.974	27439
815.115	27393
815.256	27207
815.397	27386
815.539	27351
815.68	27355
815.821	27233
815.962	27272
816.103	27214
816.244	27226
816.385	27074
816.526	26929
816.666	26975
816.807	26830
816.948	26750
817.089	26807
817.23	26697
817.371	26705
817.512	26697
817.653	26750
817.793	26701
817.934	26701
818.075	26815
818.216	26796
818.356	26735
818.497	26640
818.638	26309
818.778	26579
818.919	26522
819.06	26465
819.2	26708
819.341	26708
819.481	26663
819.622	26819
819.762	27043
819.903	26918
820.043	26876
820.184	26845
820.324	26826
820.465	26845
820.605	26845
820.746	26796
820.886	26640
821.026	26788
821.167	26826
821.307	26918
821.447	26689
821.588	26609
821.728	26590
821.868	26385
822.008	26172
822.149	26237
822.289	26149
822.429	25932
822.569	25757
822.709	25849
822.849	25738
822.99	25677
823.13	25529
823.27	25567
823.41	25544
823.55	25419
823.69	25529
823.83	25601
823.97	25430
824.11	25312
824.25	25339
824.389	25316
824.529	25483
824.669	25400
824.809	25449
824.949	25438
825.089	25415
825.228	25388
825.368	25099
825.508	25217
825.648	25126
825.787	25202
825.927	25228
826.067	25129
826.206	25175
826.346	25137
826.485	25118
826.625	25209
826.765	25209
826.904	25148
827.044	24954
827.183	24966
827.323	24844
827.462	24878
827.601	24913
827.741	24829
827.88	24992
828.02	24661
828.159	24856
828.298	24875
828.437	24829
828.577	24787
828.716	25012
828.855	24825
828.994	24486
829.134	24547
829.273	24563
829.412	24551
829.551	24479
829.69	24559
829.829	24452
829.968	24570
830.107	24631
830.246	24532
830.385	24410
830.524	24532
830.663	24323
830.802	24239
830.941	24163
831.08	24121
831.219	24258
831.357	24266
831.496	24350
831.635	24098
831.774	24110
831.913	24003
832.051	24057
832.19	23870
832.329	23996
832.467	23916
832.606	23707
832.744	23859
832.883	23832
833.022	23798
833.16	23832
833.299	23866
833.437	23965
833.576	23878
833.714	23882
833.852	23927
833.991	23882
834.129	23950
834.267	23961
834.406	23942
834.544	23969
834.682	23885
834.821	23836
834.959	24148
835.097	23901
835.235	23790
835.373	23874
835.511	23821
835.65	23726
835.788	23653
835.926	23687
836.064	23543
836.202	23459
836.34	23684
836.478	23832
836.615	23733
836.753	23653
836.891	23847
837.029	23805
837.167	23737
837.305	23497
837.443	23668
837.58	23535
837.718	23661
837.856	23512
837.993	23452
838.131	23425
838.269	23414
838.406	23421
838.544	23421
838.681	23231
838.819	23239
838.956	22911
839.094	22953
839.231	23056
839.369	23083
839.506	23334
839.643	23258
839.781	23048
839.918	22862
840.055	23003
840.193	22881
840.33	22919
840.467	23022
840.604	22991
840.742	23235
840.879	22850
841.016	22889
841.153	22816
841.29	22972
841.427	22809
841.564	23037
841.701	22873
841.838	22797
841.975	22877
842.112	22850
842.249	22778
842.385	22740
842.522	22942
842.659	22881
842.796	22748
842.933	22573
843.069	22580
843.206	22725
843.343	22923
843.479	22554
843.616	22565
843.752	22466
843.889	22443
844.025	22588
844.162	22417
844.298	22577
844.435	22421
844.571	22394
844.708	22318
844.844	22611
844.98	22542
845.117	22459
845.253	22356
845.389	22500
845.525	22379
845.661	22211
845.798	22253
845.934	22382
846.07	22196
846.206	22207
846.342	22314
846.478	22116
846.614	22032
846.75	21892
846.886	21838
847.022	21899
847.158	21907
847.294	21838
847.429	21762
847.565	21915
847.701	22150
847.837	21641
847.972	21675
848.108	21724
848.244	21747
848.379	21534
848.515	21492
848.65	21549
848.786	21435
848.921	21462
849.057	21599
849.192	21511
849.328	21538
849.463	21511
849.598	21389
849.734	21401
849.869	21393
850.004	21233
850.14	21325
850.275	21294
850.41	21154
850.545	21180
850.68	21180
850.815	21439
850.95	21298
851.085	21435
851.22	21370
851.355	21192
851.49	21230
851.625	21188
851.76	21313
851.895	21336
852.03	21214
852.165	21287
852.299	21294
852.434	21359
852.569	21389
852.703	21138
852.838	21203
852.973	21424
853.107	21416
853.242	21199
853.376	21123
853.511	21032
853.645	21108
853.78	21138
853.914	21089
854.048	20998
854.183	21100
854.317	21131
854.451	21428
854.585	21211
854.72	21051
854.854	21184
854.988	21028
855.122	21218
855.256	20971
855.39	21192
855.524	21173
855.658	21131
855.792	21180
855.926	21173
856.06	21180
856.194	21283
856.327	21005
856.461	20967
856.595	21127
856.729	20975
856.862	21138
856.996	21226
857.13	21127
857.263	21188
857.397	21096
857.53	21062
857.664	21043
857.797	21127
857.931	21268
858.064	21096
858.197	21188
858.331	21081
858.464	20967
858.597	21013
858.731	21135
858.864	21081
858.997	21077
859.13	21119
859.263	21013
859.396	21214
859.529	21116
859.662	21001
859.795	21100
859.928	21131
860.061	21241
860.194	21214
860.327	21112
860.46	21188
860.592	21150
860.725	21214
860.858	21218
860.99	20986
861.123	21013
861.256	20982
861.388	21017
861.521	21736
861.653	20952
861.786	20826
861.918	20914
862.05	20994
862.183	21013
862.315	21089
862.447	21146
862.58	21020
862.712	20857
862.844	20746
862.976	20872
863.108	20750
863.24	21260
863.372	20663
863.504	20743
863.636	20811
863.768	20861
863.9	20849
864.032	20815
864.164	20785
864.296	20746
864.428	20883
864.559	20830
864.691	20914
864.823	20826
864.954	20868
865.086	20830
865.217	20712
865.349	20640
865.48	20667
865.612	20636
865.743	21020
865.875	20659
866.006	20708
866.137	20686
866.269	20663
866.4	20705
866.531	20682
866.662	20583
866.793	20617
866.924	20724
867.055	20727
867.186	20587
867.317	20648
867.448	20549
867.579	20663
867.71	20522
867.841	20571
867.972	20689
868.103	20579
868.233	20598
868.364	20587
868.495	20640
868.625	20857
868.756	20956
868.886	20731
869.017	20830
869.147	20975
869.278	21024
869.408	21074
869.539	20918
869.669	20956
869.799	20963
869.929	20864
870.06	20994
870.19	21112
870.32	21066
870.45	21199
870.58	21416
870.71	21370
870.84	21370
870.97	21287
871.1	21351
871.23	21420
871.36	21431
871.489	21351
871.619	21496
871.749	21496
871.879	21431
872.008	21538
872.138	21439
872.267	21477
872.397	21329
872.526	21146
872.656	21378
872.785	21348
872.915	21447
873.044	21625
873.173	21526
873.303	21564
873.432	21625
873.561	21648
873.69	21564
873.819	21439
873.948	21675
874.077	21450
874.206	21500
874.335	21591
874.464	21644
874.593	21743
874.722	21679
874.851	21667
874.979	21728
875.108	21899
875.237	21705
875.365	21656
875.494	21778
875.623	21789
875.751	21736
875.88	21747
876.008	21823
876.136	21880
876.265	22150
876.393	22314
876.521	22204
876.65	22268
876.778	22021
876.906	22090
877.034	22067
877.162	21991
877.29	22070
877.418	22169
877.546	22093
877.674	22032
877.802	22070
877.93	22093
878.058	21968
878.185	21949
878.313	22006
878.441	21998
878.568	21869
878.696	22021
878.824	22025
878.951	22143
879.079	22234
879.206	22432
879.333	22215
879.461	22177
879.588	22112
879.715	22238
879.842	22382
879.97	22116
880.097	21968
880.224	21888
880.351	21975
880.478	21892
880.605	21819
880.732	21831
880.859	22124
880.986	21930
881.112	21987
881.239	21827
881.366	21679
881.493	21538
881.619	21439
881.746	21504
881.872	21568
881.999	21462
882.125	21359
882.252	21469
882.378	21545
882.505	21523
882.631	21329
882.757	21176
882.883	21279
883.01	21157
883.136	21199
883.262	21146
883.388	21024
883.514	21237
883.64	21135
883.766	21085
883.892	20979
884.018	21043
884.143	21108
884.269	21192
884.395	20899
884.52	20762
884.646	20914
884.772	20796
884.897	20682
885.023	20773
885.148	20937
885.274	21009
885.399	20830
885.524	20815
885.65	20796
885.775	20864
885.9	20792
886.025	20914
886.15	20891
886.275	20727
886.4	20716
886.525	20792
886.65	20708
886.775	20758
886.9	20929
887.025	20933
887.149	20746
887.274	20632
887.399	20606
887.523	20533
887.648	20495
887.773	20629
887.897	20659
888.021	20469
888.146	20594
888.27	20678
888.395	20705
888.519	20606
888.643	20621
888.767	20625
888.891	20495
889.015	20461
889.139	20492
889.263	20278
889.387	20522
889.511	20594
889.635	20503
889.759	20381
889.883	20377
890.006	20400
890.13	20522
890.254	20324
890.377	20267
890.501	20187
890.624	20187
890.748	20259
890.871	20100
890.995	20039
891.118	19932
891.241	19967
891.364	19925
891.488	20115
891.611	19967
891.734	19845
891.857	20024
891.98	19974
892.103	19906
892.226	19902
892.349	20035
892.471	19776
892.594	19871
892.717	19967
892.839	19909
892.962	19887
893.085	19997
893.207	19868
893.33	19761
893.452	19765
893.575	19852
893.697	19955
893.819	20054
893.941	19974
894.064	20012
894.186	19746
894.308	19902
894.43	19967
894.552	19970
894.674	20046
894.796	19700
894.918	19879
895.04	19906
895.161	19955
895.283	19951
895.405	19765
895.526	19845
895.648	19830
895.769	20016
895.891	19982
896.012	20012
896.134	19940
896.255	19974
896.376	19807
896.498	19879
896.619	19982
896.74	19947
896.861	20001
896.982	20191
897.103	20336
897.224	20214
897.345	20145
897.466	20088
897.587	20046
897.708	20275
897.828	20065
897.949	20031
898.07	19936
898.19	20058
898.311	20229
898.431	20054
898.552	20111
898.672	20218
898.792	20294
898.913	20126
899.033	20046
899.153	19864
899.273	19887
899.393	19849
899.513	20005
899.633	19955
899.753	19887
899.873	19811
899.993	19898
900.113	19811
900.232	19871
900.352	19811
900.472	19708
900.591	19571
900.711	19734
900.83	19575
900.95	19753
901.069	19769
901.189	19552
901.308	19228
901.427	19213
901.546	19225
901.665	19206
901.784	19358
901.904	19137
902.023	18913
902.141	18810
902.26	18711
902.379	18840
902.498	18772
902.617	18844
902.735	18833
902.854	18741
902.973	18673
903.091	18410
903.21	18456
903.328	18486
903.446	18315
903.565	18277
903.683	18194
903.801	18095
903.919	18194
904.038	18087
904.156	17988
904.274	18041
904.392	17999
904.51	17840
904.627	17931
904.745	18049
904.863	17916
904.981	17821
905.098	17726
905.216	17558
905.334	17786
905.451	17611
905.569	17596
905.686	17665
905.803	17726
905.921	17566
906.038	17627
906.155	17516
906.272	17410
906.389	17349
906.506	17277
906.623	17280
906.74	17231
906.857	17075
906.974	17056
907.091	17353
907.208	17326
907.324	17185
907.441	17071
907.557	16869
907.674	17022
907.79	16862
907.907	16972
908.023	16908
908.139	16908
908.256	16866
908.372	16748
908.488	16889
908.604	16717
908.72	16611
908.836	16656
908.952	16512
909.068	16675
909.184	16782
909.3	16634
909.415	16675
909.531	16550
909.647	16348
909.762	16303
909.878	16344
909.993	16318
910.108	16337
910.224	16348
910.339	16337
910.454	16196
910.57	16036
910.685	16082
910.8	16325
910.915	16329
911.03	16120
911.145	15888
911.259	15964
911.374	15857
911.489	15895
911.604	15800
911.718	15690
911.833	15812
911.947	15641
912.062	15549
912.176	15747
912.291	15728
912.405	15625
912.519	15918
912.633	15876
912.748	15690
912.862	15660
912.976	15576
913.09	15401
913.204	15447
913.318	15488
913.431	15663
913.545	15595
913.659	15629
913.772	15526
913.886	15393
914	15325
914.113	15496
914.226	15534
914.34	15477
914.453	15192
914.566	15351
914.68	15245
914.793	15222
914.906	15062
915.019	15024
915.132	14906
915.245	14891
915.358	14998
915.47	14933
915.583	14933
915.696	14868
915.809	15070
915.921	14971
916.034	14815
916.146	14743
916.259	14762
916.371	14914
916.483	14823
916.595	14807
916.708	14823
916.82	14838
916.932	14739
917.044	14716
917.156	14724
917.268	14571
917.38	14583
917.491	14648
917.603	14720
917.715	14697
917.826	14689
917.938	14625
918.049	14518
918.161	14632
918.272	14735
918.384	14663
918.495	14571
918.606	14442
918.717	14282
918.828	14381
918.939	14389
919.05	14282
919.161	14393
919.272	14221
919.383	14271
919.494	14412
919.604	14648
919.715	14419
919.826	14240
919.936	14328
920.047	14351
920.157	14358
920.267	14461
920.378	14339
920.488	14305
920.598	14476
920.708	14663
920.818	14473
920.928	14476
921.038	14644
921.148	14720
921.258	14286
921.368	14271
921.477	14088
921.587	14111
921.697	13963
921.806	14065
921.916	13951
922.025	13776
922.134	13658
922.244	13647
922.353	13826
922.462	13582
922.571	13597
922.68	13381
922.789	13327
922.898	13464
923.007	13343
923.116	13373
923.224	13354
923.333	13289
923.442	13274
923.55	13110
923.659	13209
923.767	13240
923.876	13137
923.984	13255
924.092	13023
924.201	13164
924.309	13126
924.417	13069
924.525	12996
924.633	13053
924.741	13856
924.849	12844
924.956	12981
925.064	12810
925.172	12722
925.279	12859
925.387	12913
925.494	12795
925.602	12916
925.709	12901
925.816	12821
925.924	12829
926.031	12863
926.138	12738
926.245	12852
926.352	12593
926.459	12757
926.566	12863
926.673	12677
926.779	12559
926.886	12532
926.993	12361
927.099	12479
927.206	12342
927.312	12376
927.419	12407
927.525	12372
927.631	12422
927.737	12315
927.843	12182
927.95	12114
928.056	12239
928.162	12190
928.267	12251
928.373	12726
928.479	12357
928.585	12091
928.69	12117
928.796	12209
928.901	12019
929.007	11897
929.112	12117
929.218	12076
929.323	11882
929.428	11984
929.533	12098
929.638	11859
929.743	11904
929.848	11870
929.953	11912
930.058	11767
930.163	11676
930.267	11668
930.372	11722
930.477	11691
930.581	11813
930.685	11752
930.79	11512
930.894	11474
930.998	11512
931.103	11638
931.207	11258
931.311	11273
931.415	11132
931.519	10911
931.623	10923
