Data from test_V78500241_1777.txt Node
Date: Fri Mar 25 15:54:06 CST 2022
User: usil
Spectrometer: V785-0024
Trigger mode: 0
Integration Time (sec): 4.000000E-1
Scans to average: 1
Nonlinearity correction enabled: false
Boxcar width: 0
Storing dark spectrum: false
XAxis mode: Wavelengths
Number of Pixels in Spectrum: 1024
>>>>>Begin Spectral Data<<<<<
801.071	28691
801.214	28519
801.356	28436
801.499	28333
801.641	28143
801.783	28192
801.926	28143
802.068	28185
802.211	28067
802.353	28010
802.496	27857
802.638	27964
802.78	27888
802.923	27789
803.065	27861
803.208	27739
803.35	27846
803.492	27964
803.635	28097
803.777	27922
803.919	28166
804.061	28375
804.204	28207
804.346	28044
804.488	27998
804.63	28055
804.773	27865
804.915	28093
805.057	28272
805.199	28185
805.341	28207
805.483	28375
805.626	28253
805.768	28147
805.91	28154
806.052	28306
806.194	28261
806.336	28443
806.478	28360
806.62	28173
806.762	28455
806.904	28622
807.046	28698
807.188	28710
807.33	28721
807.472	28710
807.614	28668
807.756	28622
807.898	28634
808.04	28512
808.182	28405
808.324	28569
808.465	28580
808.607	28873
808.749	28953
808.891	29037
809.033	29064
809.174	29113
809.316	28904
809.458	28915
809.6	28831
809.741	29086
809.883	29204
810.025	29121
810.166	29341
810.308	29208
810.45	29307
810.591	29136
810.733	29029
810.875	28927
811.016	28927
811.158	28896
811.299	28999
811.441	29109
811.582	29105
811.724	28961
811.865	28980
812.007	28961
812.148	28987
812.29	28938
812.431	29231
812.573	29265
812.714	29391
812.855	29345
812.997	29642
813.138	29733
813.279	29718
813.421	29406
813.562	29490
813.703	29181
813.845	29189
813.986	28885
814.127	28733
814.268	28675
814.41	28622
814.551	28668
814.692	28577
814.833	28401
814.974	28554
815.115	28660
815.256	28630
815.397	28550
815.539	28455
815.68	28447
815.821	28443
815.962	28428
816.103	28424
816.244	28432
816.385	28192
816.526	28162
816.666	28097
816.807	28017
816.948	28010
817.089	28105
817.23	28010
817.371	27964
817.512	27949
817.653	27975
817.793	27987
817.934	27998
818.075	28002
818.216	27850
818.356	27945
818.497	27781
818.638	27717
818.778	27739
818.919	27660
819.06	27793
819.2	27800
819.341	28055
819.481	27941
819.622	28086
819.762	28188
819.903	28029
820.043	28093
820.184	28150
820.324	28154
820.465	28048
820.605	28044
820.746	28135
820.886	27835
821.026	28150
821.167	28078
821.307	28207
821.447	27930
821.588	27793
821.728	27857
821.868	27576
822.008	27507
822.149	27523
822.289	27401
822.429	27245
822.569	27203
822.709	27142
822.849	26925
822.99	27017
823.13	26929
823.27	26948
823.41	26758
823.55	26617
823.69	26823
823.83	26804
823.97	26807
824.11	26556
824.25	26552
824.389	26495
824.529	26659
824.669	26693
824.809	26701
824.949	26613
825.089	26583
825.228	26568
825.368	26549
825.508	26446
825.648	26495
825.787	26480
825.927	26632
826.067	26469
826.206	26473
826.346	26419
826.485	26606
826.625	26438
826.765	26648
826.904	26507
827.044	26195
827.183	26218
827.323	26157
827.462	26172
827.601	26122
827.741	26187
827.88	26119
828.02	26005
828.159	26145
828.298	26149
828.437	26142
828.577	26176
828.716	26229
828.855	26054
828.994	25955
829.134	25811
829.273	25856
829.412	25898
829.551	25868
829.69	25818
829.829	25837
829.968	25978
830.107	26008
830.246	25856
830.385	25940
830.524	25795
830.663	25689
830.802	25582
830.941	25365
831.08	25365
831.219	25556
831.357	25491
831.496	25723
831.635	25468
831.774	25476
831.913	25362
832.051	25335
832.19	25308
832.329	25293
832.467	25160
832.606	25076
832.744	25110
832.883	25118
833.022	25126
833.16	25076
833.299	25278
833.437	25217
833.576	25247
833.714	25266
833.852	25244
833.991	25247
834.129	25266
834.267	25213
834.406	25091
834.544	25320
834.682	25251
834.821	25266
834.959	25411
835.097	25103
835.235	25228
835.373	25084
835.511	25164
835.65	25065
835.788	25004
835.926	24897
836.064	24894
836.202	24810
836.34	25126
836.478	25099
836.615	25114
836.753	25133
836.891	25099
837.029	25057
837.167	24951
837.305	24977
837.443	24924
837.58	24768
837.718	24875
837.856	24852
837.993	24840
838.131	24878
838.269	24802
838.406	24806
838.544	24684
838.681	24582
838.819	24429
838.956	24251
839.094	24517
839.231	24334
839.369	24505
839.506	24650
839.643	24460
839.781	24266
839.918	24330
840.055	24361
840.193	24201
840.33	24327
840.467	24216
840.604	24334
840.742	24391
840.879	24129
841.016	24205
841.153	24102
841.29	24346
841.427	24235
841.564	24136
841.701	24251
841.838	24262
841.975	24034
842.112	24186
842.249	24030
842.385	24038
842.522	24159
842.659	24129
842.796	24091
842.933	24117
843.069	24003
843.206	23882
843.343	24133
843.479	23912
843.616	23946
843.752	23779
843.889	23840
844.025	23897
844.162	23843
844.298	23805
844.435	23672
844.571	23748
844.708	23874
844.844	23901
844.98	23874
845.117	23832
845.253	23668
845.389	23646
845.525	23722
845.661	23630
845.798	23417
845.934	23505
846.07	23501
846.206	23448
846.342	23661
846.478	23414
846.614	23322
846.75	23208
846.886	23216
847.022	23288
847.158	23246
847.294	23322
847.429	23223
847.565	23181
847.701	23429
847.837	22885
847.972	23075
848.108	22995
848.244	23044
848.379	22908
848.515	22797
848.65	22805
848.786	22828
848.921	22771
849.057	22991
849.192	22972
849.328	22797
849.463	22858
849.598	22805
849.734	22641
849.869	22725
850.004	22615
850.14	22717
850.275	22569
850.41	22516
850.545	22455
850.68	22466
850.815	22573
850.95	22493
851.085	22691
851.22	22580
851.355	22622
851.49	22519
851.625	22527
851.76	22466
851.895	22459
852.03	22394
852.165	22554
852.299	22538
852.434	22584
852.569	22592
852.703	22584
852.838	22672
852.973	22736
853.107	22634
853.242	22523
853.376	22337
853.511	22246
853.645	22375
853.78	22478
853.914	22459
854.048	22417
854.183	22344
854.317	22508
854.451	22554
854.585	22497
854.72	22428
854.854	22443
854.988	22333
855.122	22409
855.256	22185
855.39	22284
855.524	22443
855.658	22375
855.792	22382
855.926	22443
856.06	22405
856.194	22344
856.327	22356
856.461	22257
856.595	22261
856.729	22504
856.862	22489
856.996	22390
857.13	22512
857.263	22379
857.397	22523
857.53	22375
857.664	22363
857.797	22402
857.931	22451
858.064	22424
858.197	22379
858.331	22268
858.464	22185
858.597	22291
858.731	22322
858.864	22390
858.997	22200
859.13	22375
859.263	22447
859.396	22379
859.529	22382
859.662	22329
859.795	22265
859.928	22390
860.061	22535
860.194	22710
860.327	22402
860.46	22462
860.592	22447
860.725	22546
860.858	22516
860.99	22344
861.123	22291
861.256	22356
861.388	22356
861.521	23018
861.653	22303
861.786	22253
861.918	22169
862.05	22253
862.183	22314
862.315	22215
862.447	22287
862.58	22215
862.712	22147
862.844	22036
862.976	22242
863.108	22067
863.24	22390
863.372	22086
863.504	22139
863.636	22032
863.768	22097
863.9	22143
864.032	21975
864.164	22017
864.296	22154
864.428	22154
864.559	22219
864.691	22093
864.823	21960
864.954	22021
865.086	22097
865.217	21983
865.349	21918
865.48	22010
865.612	21945
865.743	22044
865.875	21979
866.006	21861
866.137	22021
866.269	21994
866.4	21941
866.531	21804
866.662	21804
866.793	21937
866.924	21892
867.055	21930
867.186	21911
867.317	21808
867.448	21785
867.579	21835
867.71	21732
867.841	21720
867.972	21937
868.103	21789
868.233	21926
868.364	21918
868.495	21991
868.625	22044
868.756	22192
868.886	22002
869.017	22143
869.147	22265
869.278	22196
869.408	22154
869.539	22166
869.669	22135
869.799	22215
869.929	22268
870.06	22215
870.19	22325
870.32	22356
870.45	22379
870.58	22375
870.71	22599
870.84	22603
870.97	22573
871.1	22554
871.23	22618
871.36	22687
871.489	22668
871.619	22752
871.749	22645
871.879	22653
872.008	22866
872.138	22755
872.267	22748
872.397	22618
872.526	22546
872.656	22516
872.785	22691
872.915	22733
873.044	22854
873.173	22721
873.303	22828
873.432	22892
873.561	22968
873.69	22645
873.819	22767
873.948	22740
874.077	22801
874.206	22596
874.335	22649
874.464	22873
874.593	22858
874.722	23029
874.851	22930
874.979	23075
875.108	22991
875.237	22904
875.365	22809
875.494	22892
875.623	22953
875.751	23022
875.88	22987
876.008	23010
876.136	23185
876.265	23345
876.393	23440
876.521	23452
876.65	23417
876.778	23330
876.906	23307
877.034	23337
877.162	23341
877.29	23250
877.418	23246
877.546	23307
877.674	23356
877.802	23356
877.93	23307
878.058	23254
878.185	23174
878.313	23334
878.441	23311
878.568	23132
878.696	23200
878.824	23372
878.951	23410
879.079	23509
879.206	23729
879.333	23547
879.461	23242
879.588	23509
879.715	23474
879.842	23615
879.97	23436
880.097	23140
880.224	23044
880.351	23277
880.478	23102
880.605	23052
880.732	23090
880.859	23376
880.986	23185
881.112	23094
881.239	22957
881.366	23025
881.493	22835
881.619	22759
881.746	22565
881.872	22561
881.999	22584
882.125	22618
882.252	22691
882.378	22630
882.505	22847
882.631	22573
882.757	22268
882.883	22512
883.01	22489
883.136	22394
883.262	22238
883.388	22390
883.514	22409
883.64	22367
883.766	22188
883.892	22048
884.018	22185
884.143	22386
884.269	22348
884.395	22086
884.52	21987
884.646	21884
884.772	22021
884.897	21865
885.023	22006
885.148	21956
885.274	22029
885.399	22090
885.524	21960
885.65	22067
885.775	21983
885.9	21926
886.025	22044
886.15	22090
886.275	22017
886.4	21880
886.525	21899
886.65	21835
886.775	21907
886.9	22059
887.025	22185
887.149	21823
887.274	21732
887.399	21835
887.523	21732
887.648	21618
887.773	21534
887.897	21854
888.021	21857
888.146	21736
888.27	21751
888.395	21785
888.519	21778
888.643	21770
888.767	21876
888.891	21633
889.015	21648
889.139	21618
889.263	21618
889.387	21633
889.511	21614
889.635	21671
889.759	21538
889.883	21500
890.006	21526
890.13	21610
890.254	21450
890.377	21397
890.501	21256
890.624	21298
890.748	21256
890.871	21260
890.995	21150
891.118	21176
891.241	21150
891.364	21169
891.488	21127
891.611	21089
891.734	21203
891.857	21207
891.98	21256
892.103	21020
892.226	21047
892.349	21100
892.471	20826
892.594	21085
892.717	21024
892.839	21055
892.962	20986
893.085	21009
893.207	20971
893.33	20891
893.452	20864
893.575	21127
893.697	21028
893.819	21195
893.941	21135
894.064	21051
894.186	20986
894.308	20967
894.43	20944
894.552	20944
894.674	21066
894.796	20918
894.918	20845
895.04	20914
895.161	20971
895.283	21005
895.405	20967
895.526	20971
895.648	20986
895.769	21020
895.891	21085
896.012	21085
896.134	20982
896.255	20929
896.376	20769
896.498	20956
896.619	20918
896.74	21005
896.861	20971
896.982	21321
897.103	21500
897.224	21233
897.345	21176
897.466	21104
897.587	21154
897.708	21256
897.828	21233
897.949	21051
898.07	20998
898.19	21176
898.311	21230
898.431	21062
898.552	21119
898.672	21329
898.792	21218
898.913	21070
899.033	21055
899.153	21001
899.273	20883
899.393	20971
899.513	20971
899.633	20910
899.753	20979
899.873	20769
899.993	20914
900.113	20689
900.232	20804
900.352	20804
900.472	20724
900.591	20705
900.711	20663
900.83	20716
900.95	20648
901.069	20815
901.189	20518
901.308	20393
901.427	20240
901.546	20282
901.665	20263
901.784	20214
901.904	20149
902.023	19913
902.141	19875
902.26	19734
902.379	19845
902.498	19791
902.617	19700
902.735	19887
902.854	19712
902.973	19571
903.091	19403
903.21	19403
903.328	19343
903.446	19301
903.565	19202
903.683	19187
903.801	19126
903.919	19126
904.038	19084
904.156	18966
904.274	19015
904.392	18962
904.51	18966
904.627	18905
904.745	18947
904.863	19031
904.981	18745
905.098	18635
905.216	18684
905.334	18608
905.451	18616
905.569	18612
905.686	18627
905.803	18635
905.921	18429
906.038	18429
906.155	18380
906.272	18330
906.389	18258
906.506	18239
906.623	18178
906.74	18136
906.857	18045
906.974	18064
907.091	18140
907.208	18232
907.324	18140
907.441	17988
907.557	17904
907.674	17828
907.79	17813
907.907	17798
908.023	17931
908.139	17920
908.256	17920
908.372	17745
908.488	17623
908.604	17532
908.72	17535
908.836	17585
908.952	17589
909.068	17604
909.184	17729
909.3	17558
909.415	17627
909.531	17661
909.647	17227
909.762	17216
909.878	17345
909.993	17353
910.108	17239
910.224	17292
910.339	17212
910.454	17079
910.57	17151
910.685	17079
910.8	17254
910.915	17220
911.03	17117
911.145	16866
911.259	16889
911.374	16847
911.489	16736
911.604	16698
911.718	16577
911.833	16649
911.947	16481
912.062	16432
912.176	16573
912.291	16656
912.405	16622
912.519	16736
912.633	16748
912.748	16740
912.862	16558
912.976	16356
913.09	16272
913.204	16394
913.318	16360
913.431	16405
913.545	16497
913.659	16538
913.772	16398
913.886	16249
914	16131
914.113	16246
914.226	16348
914.34	16192
914.453	16105
914.566	16192
914.68	16097
914.793	16074
914.906	15876
915.019	15812
915.132	15732
915.245	15873
915.358	15873
915.47	15690
915.583	15778
915.696	15762
915.809	15835
915.921	15899
916.034	15781
916.146	15637
916.259	15667
916.371	15679
916.483	15736
916.595	15686
916.708	15561
916.82	15614
916.932	15542
917.044	15599
917.156	15564
917.268	15370
917.38	15412
917.491	15431
917.603	15443
917.715	15458
917.826	15435
917.938	15378
918.049	15211
918.161	15363
918.272	15469
918.384	15469
918.495	15241
918.606	15241
918.717	15119
918.828	15188
918.939	15127
919.05	15036
919.161	15119
919.272	14971
919.383	15047
919.494	15135
919.604	15351
919.715	15138
919.826	15116
919.936	15013
920.047	15237
920.157	15066
920.267	15298
920.378	15085
920.488	15032
920.598	15237
920.708	15496
920.818	15298
920.928	15214
921.038	15321
921.148	15272
921.258	15028
921.368	15013
921.477	14857
921.587	14842
921.697	14670
921.806	14876
921.916	14754
922.025	14476
922.134	14473
922.244	14366
922.353	14434
922.462	14263
922.571	14149
922.68	14164
922.789	14142
922.898	14111
923.007	14058
923.116	14062
923.224	14062
923.333	14020
923.442	13936
923.55	13963
923.659	13921
923.767	13997
923.876	13898
923.984	13928
924.092	13837
924.201	13947
924.309	13845
924.417	13830
924.525	13757
924.633	13883
924.741	14537
924.849	13620
924.956	13700
925.064	13544
925.172	13510
925.279	13480
925.387	13521
925.494	13567
925.602	13651
925.709	13616
925.816	13354
925.924	13529
926.031	13582
926.138	13373
926.245	13464
926.352	13388
926.459	13476
926.566	13491
926.673	13263
926.779	13232
926.886	13168
926.993	13046
927.099	13019
927.206	12947
927.312	12951
927.419	13057
927.525	13038
927.631	13004
927.737	12951
927.843	12848
927.95	12817
928.056	12848
928.162	12916
928.267	12905
928.373	13533
928.479	12966
928.585	12684
928.69	12844
928.796	12837
928.901	12646
929.007	12658
929.112	12681
929.218	12570
929.323	12627
929.428	12544
929.533	12677
929.638	12486
929.743	12506
929.848	12536
929.953	12525
930.058	12433
930.163	12235
930.267	12323
930.372	12399
930.477	12190
930.581	12403
930.685	12159
930.79	12072
930.894	12102
930.998	11999
931.103	12194
931.207	11885
931.311	11847
931.415	11699
931.519	11509
931.623	11471
