Data from test_V78500241_1210.txt Node
Date: Fri Mar 25 15:50:11 CST 2022
User: usil
Spectrometer: V785-0024
Trigger mode: 0
Integration Time (sec): 4.000000E-1
Scans to average: 1
Nonlinearity correction enabled: false
Boxcar width: 0
Storing dark spectrum: false
XAxis mode: Wavelengths
Number of Pixels in Spectrum: 1024
>>>>>Begin Spectral Data<<<<<
801.071	28793
801.214	28702
801.356	28390
801.499	28261
801.641	28185
801.783	28207
801.926	28188
802.068	28344
802.211	28204
802.353	28093
802.496	28002
802.638	28017
802.78	28040
802.923	27884
803.065	27930
803.208	27865
803.35	28040
803.492	27956
803.635	28128
803.777	28059
803.919	28287
804.061	28561
804.204	28204
804.346	28139
804.488	28128
804.63	28173
804.773	28105
804.915	28143
805.057	28261
805.199	28249
805.341	28188
805.483	28363
805.626	28375
805.768	28181
805.91	28394
806.052	28462
806.194	28219
806.336	28675
806.478	28421
806.62	28299
806.762	28493
806.904	28679
807.046	28991
807.188	28873
807.33	28911
807.472	28862
807.614	28729
807.756	28869
807.898	28725
808.04	28660
808.182	28694
808.324	28740
808.465	28858
808.607	28854
808.749	29071
808.891	29197
809.033	29200
809.174	29060
809.316	29018
809.458	29071
809.6	29029
809.741	29083
809.883	29212
810.025	29395
810.166	29455
810.308	29353
810.45	29303
810.591	29375
810.733	29086
810.875	29044
811.016	28976
811.158	29044
811.299	29056
811.441	29162
811.582	29185
811.724	29056
811.865	29010
812.007	29006
812.148	29117
812.29	29166
812.431	29258
812.573	29341
812.714	29391
812.855	29657
812.997	29707
813.138	29939
813.279	29794
813.421	29676
813.562	29444
813.703	29387
813.845	29235
813.986	29048
814.127	28900
814.268	28881
814.41	28793
814.551	28668
814.692	29003
814.833	28706
814.974	28759
815.115	28729
815.256	28599
815.397	28721
815.539	28759
815.68	28474
815.821	28588
815.962	28668
816.103	28462
816.244	28428
816.385	28314
816.526	28440
816.666	28169
816.807	28055
816.948	28188
817.089	28314
817.23	28215
817.371	28226
817.512	28109
817.653	28112
817.793	28109
817.934	28006
818.075	28158
818.216	28246
818.356	28272
818.497	27949
818.638	27857
818.778	27781
818.919	27857
819.06	27895
819.2	27994
819.341	28105
819.481	28055
819.622	28318
819.762	28436
819.903	28329
820.043	28379
820.184	28249
820.324	28246
820.465	28280
820.605	28150
820.746	28166
820.886	28135
821.026	28135
821.167	28253
821.307	28314
821.447	28223
821.588	28128
821.728	27892
821.868	27781
822.008	27816
822.149	27698
822.289	27686
822.429	27313
822.569	27412
822.709	27340
822.849	27214
822.99	27070
823.13	27207
823.27	27119
823.41	26975
823.55	26933
823.69	26998
823.83	26861
823.97	26891
824.11	26811
824.25	26765
824.389	26781
824.529	26921
824.669	26880
824.809	26781
824.949	26861
825.089	26880
825.228	26754
825.368	26663
825.508	26636
825.648	26613
825.787	26617
825.927	26731
826.067	26583
826.206	26537
826.346	26712
826.485	26777
826.625	26511
826.765	26708
826.904	26678
827.044	26473
827.183	26415
827.323	26332
827.462	26453
827.601	26453
827.741	26229
827.88	26263
828.02	26183
828.159	26252
828.298	26393
828.437	26347
828.577	26267
828.716	26431
828.855	26088
828.994	26111
829.134	26039
829.273	26130
829.412	25951
829.551	25982
829.69	26012
829.829	26130
829.968	26138
830.107	26046
830.246	26100
830.385	26012
830.524	25871
830.663	25879
830.802	25795
830.941	25674
831.08	25582
831.219	25742
831.357	25769
831.496	25925
831.635	25674
831.774	25613
831.913	25552
832.051	25533
832.19	25426
832.329	25518
832.467	25331
832.606	25301
832.744	25232
832.883	25324
833.022	25228
833.16	25236
833.299	25320
833.437	25358
833.576	25354
833.714	25297
833.852	25453
833.991	25594
834.129	25457
834.267	25426
834.406	25297
834.544	25346
834.682	25308
834.821	25304
834.959	25586
835.097	25278
835.235	25438
835.373	25289
835.511	25354
835.65	25236
835.788	25297
835.926	25080
836.064	25103
836.202	24966
836.34	25198
836.478	25316
836.615	25244
836.753	25282
836.891	25266
837.029	25247
837.167	25148
837.305	25171
837.443	25023
837.58	25148
837.718	25129
837.856	25072
837.993	24886
838.131	25118
838.269	24913
838.406	24996
838.544	24757
838.681	24768
838.819	24658
838.956	24517
839.094	24486
839.231	24570
839.369	24776
839.506	24875
839.643	24760
839.781	24509
839.918	24304
840.055	24433
840.193	24505
840.33	24403
840.467	24475
840.604	24422
840.742	24715
840.879	24369
841.016	24433
841.153	24330
841.29	24475
841.427	24346
841.564	24384
841.701	24380
841.838	24369
841.975	24262
842.112	24323
842.249	24311
842.385	24190
842.522	24372
842.659	24140
842.796	24125
842.933	24133
843.069	24159
843.206	23980
843.343	24144
843.479	24159
843.616	24148
843.752	23950
843.889	23863
844.025	24110
844.162	23786
844.298	24110
844.435	23885
844.571	23923
844.708	23912
844.844	24110
844.98	24041
845.117	23908
845.253	23813
845.389	23722
845.525	23893
845.661	23756
845.798	23680
845.934	23703
846.07	23646
846.206	23653
846.342	23722
846.478	23627
846.614	23349
846.75	23379
846.886	23235
847.022	23421
847.158	23436
847.294	23265
847.429	23402
847.565	23220
847.701	23608
847.837	23075
847.972	23147
848.108	23200
848.244	23254
848.379	23022
848.515	22957
848.65	22972
848.786	22949
848.921	23075
849.057	23041
849.192	23044
849.328	23018
849.463	22972
849.598	22881
849.734	22908
849.869	22896
850.004	22630
850.14	22847
850.275	22797
850.41	22660
850.545	22592
850.68	22801
850.815	22736
850.95	22725
851.085	23014
851.22	22793
851.355	22771
851.49	22706
851.625	22584
851.76	22611
851.895	22675
852.03	22649
852.165	22702
852.299	22759
852.434	22774
852.569	22774
852.703	22805
852.838	22725
852.973	22687
853.107	22698
853.242	22656
853.376	22500
853.511	22398
853.645	22481
853.78	22687
853.914	22607
854.048	22455
854.183	22653
854.317	22523
854.451	22862
854.585	22710
854.72	22394
854.854	22577
854.988	22375
855.122	22592
855.256	22398
855.39	22615
855.524	22634
855.658	22607
855.792	22421
855.926	22550
856.06	22500
856.194	22748
856.327	22481
856.461	22531
856.595	22531
856.729	22424
856.862	22771
856.996	22573
857.13	22618
857.263	22702
857.397	22531
857.53	22531
857.664	22557
857.797	22675
857.931	22557
858.064	22500
858.197	22702
858.331	22584
858.464	22497
858.597	22542
858.731	22470
858.864	22462
858.997	22481
859.13	22432
859.263	22550
859.396	22733
859.529	22557
859.662	22470
859.795	22462
859.928	22519
860.061	22637
860.194	22782
860.327	22504
860.46	22470
860.592	22729
860.725	22694
860.858	22717
860.99	22618
861.123	22424
861.256	22485
861.388	22580
861.521	23235
861.653	22428
861.786	22299
861.918	22390
862.05	22344
862.183	22440
862.315	22455
862.447	22516
862.58	22443
862.712	22242
862.844	22169
862.976	22310
863.108	22409
863.24	22584
863.372	22154
863.504	22200
863.636	22371
863.768	22226
863.9	22341
864.032	22154
864.164	22150
864.296	22215
864.428	22280
864.559	22390
864.691	22341
864.823	22181
864.954	22169
865.086	22249
865.217	22143
865.349	22048
865.48	22120
865.612	21968
865.743	22379
865.875	22185
866.006	22044
866.137	22188
866.269	22147
866.4	21907
866.531	22051
866.662	22044
866.793	22021
866.924	21975
867.055	22128
867.186	22131
867.317	21964
867.448	21930
867.579	21956
867.71	21968
867.841	22048
867.972	22063
868.103	22048
868.233	22093
868.364	21972
868.495	22143
868.625	22223
868.756	22337
868.886	22188
869.017	22207
869.147	22371
869.278	22325
869.408	22337
869.539	22249
869.669	22318
869.799	22276
869.929	22265
870.06	22352
870.19	22557
870.32	22599
870.45	22744
870.58	22675
870.71	22812
870.84	22683
870.97	22710
871.1	22622
871.23	22790
871.36	22649
871.489	22615
871.619	22782
871.749	22847
871.879	22869
872.008	22927
872.138	22858
872.267	22889
872.397	22660
872.526	22634
872.656	22744
872.785	22611
872.915	22839
873.044	23022
873.173	22828
873.303	23022
873.432	22961
873.561	23037
873.69	22934
873.819	22896
873.948	22976
874.077	22915
874.206	22850
874.335	22930
874.464	23025
874.593	23056
874.722	23143
874.851	23117
874.979	23025
875.108	23197
875.237	22972
875.365	23037
875.494	22953
875.623	23227
875.751	23079
875.88	23143
876.008	23284
876.136	23242
876.265	23421
876.393	23589
876.521	23547
876.65	23558
876.778	23455
876.906	23379
877.034	23273
877.162	23501
877.29	23379
877.418	23433
877.546	23406
877.674	23421
877.802	23421
877.93	23433
878.058	23558
878.185	23322
878.313	23353
878.441	23509
878.568	23273
878.696	23216
878.824	23543
878.951	23444
879.079	23608
879.206	23707
879.333	23611
879.461	23448
879.588	23444
879.715	23722
879.842	23638
879.97	23535
880.097	23223
880.224	23288
880.351	23296
880.478	23254
880.605	23132
880.732	23174
880.859	23562
880.986	23254
881.112	23227
881.239	23048
881.366	23041
881.493	22972
881.619	22645
881.746	22896
881.872	22801
881.999	22786
882.125	22691
882.252	22850
882.378	22782
882.505	23025
882.631	22626
882.757	22592
882.883	22599
883.01	22649
883.136	22421
883.262	22356
883.388	22291
883.514	22523
883.64	22481
883.766	22379
883.892	22276
884.018	22223
884.143	22405
884.269	22538
884.395	22238
884.52	22112
884.646	22063
884.772	22059
884.897	22021
885.023	22124
885.148	22105
885.274	22215
885.399	22215
885.524	22124
885.65	22067
885.775	22040
885.9	22112
886.025	22318
886.15	22181
886.275	22150
886.4	22055
886.525	21968
886.65	22059
886.775	22067
886.9	22272
887.025	22325
887.149	22177
887.274	21991
887.399	21827
887.523	21941
887.648	21850
887.773	21705
887.897	21911
888.021	22002
888.146	21823
888.27	21987
888.395	22002
888.519	21865
888.643	21899
888.767	21945
888.891	21679
889.015	21701
889.139	21747
889.263	21652
889.387	21724
889.511	21888
889.635	21747
889.759	21679
889.883	21618
890.006	21694
890.13	21709
890.254	21599
890.377	21526
890.501	21492
890.624	21405
890.748	21515
890.871	21310
890.995	21287
891.118	21272
891.241	21165
891.364	21184
891.488	21344
891.611	21233
891.734	21222
891.857	21344
891.98	21161
892.103	21412
892.226	21291
892.349	21165
892.471	20979
892.594	21222
892.717	21173
892.839	21165
892.962	21119
893.085	21161
893.207	21066
893.33	21001
893.452	20910
893.575	21104
893.697	21051
893.819	21214
893.941	21245
894.064	21279
894.186	21039
894.308	21032
894.43	21245
894.552	21245
894.674	21165
894.796	21028
894.918	21188
895.04	21104
895.161	21138
895.283	21237
895.405	20979
895.526	21047
895.648	21081
895.769	21081
895.891	21199
896.012	21077
896.134	21184
896.255	21173
896.376	20956
896.498	21047
896.619	20941
896.74	21184
896.861	21058
896.982	21443
897.103	21557
897.224	21329
897.345	21272
897.466	21237
897.587	21275
897.708	21332
897.828	21367
897.949	21211
898.07	21085
898.19	21176
898.311	21294
898.431	21317
898.552	21218
898.672	21348
898.792	21367
898.913	21389
899.033	21039
899.153	21146
899.273	21039
899.393	21047
899.513	21154
899.633	21055
899.753	21055
899.873	20975
899.993	21055
900.113	20944
900.232	20918
900.352	20906
900.472	20845
900.591	20716
900.711	20830
900.83	20655
900.95	20838
901.069	20857
901.189	20788
901.308	20442
901.427	20385
901.546	20393
901.665	20522
901.784	20454
901.904	20275
902.023	20134
902.141	19894
902.26	19970
902.379	19898
902.498	19837
902.617	19879
902.735	19875
902.854	19871
902.973	19871
903.091	19510
903.21	19487
903.328	19499
903.446	19422
903.565	19339
903.683	19335
903.801	19278
903.919	19263
904.038	19236
904.156	19084
904.274	19122
904.392	18981
904.51	19057
904.627	19069
904.745	19168
904.863	19061
904.981	18924
905.098	18821
905.216	18772
905.334	18745
905.451	18707
905.569	18711
905.686	18681
905.803	18798
905.921	18555
906.038	18597
906.155	18483
906.272	18403
906.389	18475
906.506	18346
906.623	18346
906.74	18140
906.857	18110
906.974	18167
907.091	18281
907.208	18327
907.324	18224
907.441	18254
907.557	18079
907.674	18045
907.79	17904
907.907	17961
908.023	17931
908.139	18121
908.256	17942
908.372	17790
908.488	17859
908.604	17805
908.72	17680
908.836	17737
908.952	17600
909.068	17672
909.184	17813
909.3	17745
909.415	17707
909.531	17558
909.647	17448
909.762	17372
909.878	17296
909.993	17387
910.108	17376
910.224	17372
910.339	17379
910.454	17284
910.57	17170
910.685	17102
910.8	17368
910.915	17246
911.03	17193
911.145	16995
911.259	16946
911.374	17029
911.489	16934
911.604	16839
911.718	16782
911.833	16637
911.947	16725
912.062	16653
912.176	16706
912.291	16653
912.405	16679
912.519	16927
912.633	16828
912.748	16687
912.862	16653
912.976	16573
913.09	16382
913.204	16500
913.318	16466
913.431	16550
913.545	16618
913.659	16516
913.772	16436
913.886	16409
914	16204
914.113	16325
914.226	16325
914.34	16360
914.453	16192
914.566	16325
914.68	16105
914.793	16139
914.906	15964
915.019	15983
915.132	15869
915.245	15857
915.358	15949
915.47	15930
915.583	15827
915.696	15903
915.809	15930
915.921	15937
916.034	15778
916.146	15709
916.259	15785
916.371	15895
916.483	15911
916.595	15625
916.708	15701
916.82	15553
916.932	15717
917.044	15637
917.156	15530
917.268	15557
917.38	15511
917.491	15466
917.603	15488
917.715	15564
917.826	15469
917.938	15363
918.049	15294
918.161	15462
918.272	15469
918.384	15595
918.495	15473
918.606	15310
918.717	15127
918.828	15310
918.939	15203
919.05	15104
919.161	15245
919.272	15017
919.383	15165
919.494	15252
919.604	15355
919.715	15230
919.826	15176
919.936	15241
920.047	15344
920.157	15165
920.267	15401
920.378	15317
920.488	15214
920.598	15454
920.708	15485
920.818	15237
920.928	15287
921.038	15526
921.148	15450
921.258	15176
921.368	14994
921.477	14963
921.587	14895
921.697	14762
921.806	14921
921.916	14674
922.025	14686
922.134	14590
922.244	14541
922.353	14587
922.462	14484
922.571	14336
922.68	14183
922.789	14248
922.898	14210
923.007	14142
923.116	14225
923.224	14168
923.333	14100
923.442	14138
923.55	13974
923.659	13947
923.767	14142
923.876	13902
923.984	13993
924.092	13944
924.201	13955
924.309	13947
924.417	13871
924.525	13811
924.633	13795
924.741	14655
924.849	13662
924.956	13738
925.064	13651
925.172	13506
925.279	13571
925.387	13636
925.494	13575
925.602	13693
925.709	13518
925.816	13506
925.924	13457
926.031	13483
926.138	13453
926.245	13544
926.352	13331
926.459	13514
926.566	13662
926.673	13438
926.779	13293
926.886	13232
926.993	13168
927.099	13156
927.206	13149
927.312	13015
927.419	13122
927.525	13061
927.631	13099
927.737	12932
927.843	12886
927.95	12863
928.056	13004
928.162	12924
928.267	13000
928.373	13651
928.479	13027
928.585	12757
928.69	12817
928.796	12909
928.901	12890
929.007	12620
929.112	12821
929.218	12837
929.323	12688
929.428	12616
929.533	12783
929.638	12547
929.743	12627
929.848	12677
929.953	12555
930.058	12422
930.163	12323
930.267	12327
930.372	12475
930.477	12327
930.581	12502
930.685	12353
930.79	12258
930.894	12300
930.998	12186
931.103	12277
931.207	11992
931.311	11904
931.415	11851
931.519	11615
931.623	11539
