Data from test_V78500241_1549.txt Node
Date: Fri Mar 25 15:52:31 CST 2022
User: usil
Spectrometer: V785-0024
Trigger mode: 0
Integration Time (sec): 4.000000E-1
Scans to average: 1
Nonlinearity correction enabled: false
Boxcar width: 0
Storing dark spectrum: false
XAxis mode: Wavelengths
Number of Pixels in Spectrum: 1024
>>>>>Begin Spectral Data<<<<<
801.071	27599
801.214	27507
801.356	27192
801.499	27393
801.641	27123
801.783	27176
801.926	27070
802.068	27203
802.211	26990
802.353	27119
802.496	26834
802.638	26944
802.78	26819
802.923	26693
803.065	26682
803.208	26731
803.35	26845
803.492	26864
803.635	27028
803.777	26876
803.919	26929
804.061	27214
804.204	26933
804.346	27001
804.488	26914
804.63	26921
804.773	26902
804.915	27043
805.057	27024
805.199	26982
805.341	26982
805.483	27203
805.626	27047
805.768	27108
805.91	27036
806.052	27058
806.194	27055
806.336	27195
806.478	27184
806.62	27032
806.762	27176
806.904	27249
807.046	27625
807.188	27462
807.33	27469
807.472	27492
807.614	27500
807.756	27526
807.898	27386
808.04	27443
808.182	27252
808.324	27363
808.465	27332
808.607	27629
808.749	27629
808.891	27842
809.033	27873
809.174	27671
809.316	27724
809.458	27732
809.6	27690
809.741	27774
809.883	27907
810.025	28070
810.166	27880
810.308	28025
810.45	27812
810.591	27956
810.733	27778
810.875	27599
811.016	27553
811.158	27439
811.299	27789
811.441	27812
811.582	27766
811.724	27667
811.865	27656
812.007	27709
812.148	27618
812.29	27675
812.431	27667
812.573	28006
812.714	28234
812.855	28192
812.997	28390
813.138	28413
813.279	28367
813.421	28143
813.562	28150
813.703	28124
813.845	27892
813.986	27591
814.127	27389
814.268	27317
814.41	27355
814.551	27317
814.692	27492
814.833	27408
814.974	27294
815.115	27226
815.256	27291
815.397	27287
815.539	27275
815.68	27192
815.821	27142
815.962	27161
816.103	27085
816.244	27017
816.385	26823
816.526	26861
816.666	26697
816.807	26526
816.948	26804
817.089	26883
817.23	26811
817.371	26674
817.512	26655
817.653	26503
817.793	26621
817.934	26663
818.075	26739
818.216	26667
818.356	26594
818.497	26659
818.638	26400
818.778	26396
818.919	26404
819.06	26549
819.2	26549
819.341	26598
819.481	26606
819.622	26712
819.762	26895
819.903	26952
820.043	26788
820.184	26743
820.324	26781
820.465	26952
820.605	26716
820.746	26686
820.886	26693
821.026	26804
821.167	26750
821.307	26823
821.447	26705
821.588	26625
821.728	26393
821.868	26271
822.008	26134
822.149	26301
822.289	26107
822.429	25864
822.569	25685
822.709	25864
822.849	25635
822.99	25609
823.13	25586
823.27	25556
823.41	25415
823.55	25327
823.69	25502
823.83	25540
823.97	25362
824.11	25263
824.25	25160
824.389	25327
824.529	25312
824.669	25369
824.809	25441
824.949	25365
825.089	25320
825.228	25358
825.368	25206
825.508	25107
825.648	25023
825.787	25206
825.927	25133
826.067	25168
826.206	25141
826.346	25282
826.485	25289
826.625	25164
826.765	25225
826.904	25217
827.044	24935
827.183	24901
827.323	24825
827.462	24905
827.601	24924
827.741	24814
827.88	24840
828.02	24692
828.159	24859
828.298	24852
828.437	24916
828.577	24814
828.716	24897
828.855	24722
828.994	24563
829.134	24479
829.273	24528
829.412	24513
829.551	24460
829.69	24471
829.829	24616
829.968	24623
830.107	24547
830.246	24525
830.385	24445
830.524	24445
830.663	24174
830.802	24300
830.941	24239
831.08	24224
831.219	24155
831.357	24254
831.496	24194
831.635	24038
831.774	23996
831.913	24018
832.051	24007
832.19	23904
832.329	23897
832.467	23745
832.606	23752
832.744	23714
832.883	23745
833.022	23733
833.16	23798
833.299	23874
833.437	23783
833.576	23824
833.714	23901
833.852	23878
833.991	23980
834.129	23809
834.267	23958
834.406	23969
834.544	23794
834.682	23821
834.821	23771
834.959	24026
835.097	23680
835.235	23836
835.373	23992
835.511	23775
835.65	23946
835.788	23707
835.926	23535
836.064	23524
836.202	23493
836.34	23718
836.478	23714
836.615	23733
836.753	23634
836.891	23840
837.029	23684
837.167	23570
837.305	23528
837.443	23528
837.58	23543
837.718	23497
837.856	23520
837.993	23421
838.131	23551
838.269	23280
838.406	23619
838.544	23315
838.681	23200
838.819	23193
838.956	23220
839.094	23014
839.231	23048
839.369	23159
839.506	23353
839.643	23200
839.781	23109
839.918	23041
840.055	23029
840.193	22949
840.33	22957
840.467	22889
840.604	22923
840.742	23246
840.879	22828
841.016	22824
841.153	22797
841.29	22847
841.427	23006
841.564	22881
841.701	22854
841.838	22843
841.975	22850
842.112	22854
842.249	22702
842.385	22812
842.522	22915
842.659	22653
842.796	22630
842.933	22725
843.069	22725
843.206	22664
843.343	22679
843.479	22740
843.616	22649
843.752	22519
843.889	22405
844.025	22561
844.162	22504
844.298	22493
844.435	22531
844.571	22424
844.708	22443
844.844	22607
844.98	22569
845.117	22599
845.253	22398
845.389	22363
845.525	22360
845.661	22318
845.798	22154
845.934	22238
846.07	22196
846.206	22147
846.342	22238
846.478	22032
846.614	21987
846.75	21899
846.886	21975
847.022	22059
847.158	22059
847.294	21953
847.429	21930
847.565	21922
847.701	22276
847.837	21656
847.972	21709
848.108	21827
848.244	21732
848.379	21698
848.515	21561
848.65	21424
848.786	21496
848.921	21572
849.057	21583
849.192	21576
849.328	21530
849.463	21481
849.598	21492
849.734	21393
849.869	21344
850.004	21313
850.14	21226
850.275	21260
850.41	21241
850.545	21218
850.68	21161
850.815	21268
850.95	21283
851.085	21534
851.22	21386
851.355	21291
851.49	21249
851.625	21237
851.76	21302
851.895	21157
852.03	21249
852.165	21298
852.299	21283
852.434	21405
852.569	21287
852.703	21214
852.838	21386
852.973	21283
853.107	21408
853.242	21203
853.376	21100
853.511	20944
853.645	21127
853.78	21203
853.914	21062
854.048	21176
854.183	21195
854.317	21119
854.451	21329
854.585	21081
854.72	20963
854.854	21180
854.988	21089
855.122	21146
855.256	21013
855.39	21135
855.524	21100
855.658	21230
855.792	21062
855.926	21055
856.06	21127
856.194	21188
856.327	21089
856.461	21024
856.595	21001
856.729	21017
856.862	21336
856.996	21131
857.13	21245
857.263	21150
857.397	21233
857.53	21051
857.664	21104
857.797	21317
857.931	21203
858.064	21096
858.197	21306
858.331	21123
858.464	21009
858.597	21028
858.731	21047
858.864	21070
858.997	21123
859.13	21180
859.263	21138
859.396	21169
859.529	21024
859.662	21100
859.795	21047
859.928	21264
860.061	21249
860.194	21367
860.327	21180
860.46	21192
860.592	21188
860.725	21370
860.858	21161
860.99	21104
861.123	21070
861.256	21085
861.388	21093
861.521	21728
861.653	21058
861.786	20929
861.918	21104
862.05	20944
862.183	21024
862.315	21096
862.447	21146
862.58	21062
862.712	20785
862.844	20849
862.976	21112
863.108	20918
863.24	21367
863.372	20750
863.504	20941
863.636	20853
863.768	20895
863.9	20979
864.032	20792
864.164	20864
864.296	20910
864.428	20952
864.559	20975
864.691	20891
864.823	20838
864.954	20895
865.086	20876
865.217	20746
865.349	20708
865.48	20754
865.612	20746
865.743	20899
865.875	20781
866.006	20750
866.137	20754
866.269	20636
866.4	20762
866.531	20640
866.662	20659
866.793	20602
866.924	20777
867.055	20667
867.186	20594
867.317	20659
867.448	20587
867.579	20613
867.71	20674
867.841	20518
867.972	20594
868.103	20609
868.233	20667
868.364	20758
868.495	20857
868.625	20830
868.756	20998
868.886	20880
869.017	20998
869.147	21036
869.278	21062
869.408	21028
869.539	20921
869.669	20948
869.799	21055
869.929	20975
870.06	21009
870.19	21241
870.32	21313
870.45	21325
870.58	21310
870.71	21462
870.84	21454
870.97	21306
871.1	21336
871.23	21481
871.36	21572
871.489	21412
871.619	21519
871.749	21386
871.879	21603
872.008	21663
872.138	21576
872.267	21583
872.397	21466
872.526	21473
872.656	21370
872.785	21492
872.915	21462
873.044	21625
873.173	21500
873.303	21606
873.432	21652
873.561	21656
873.69	21561
873.819	21633
873.948	21561
874.077	21557
874.206	21523
874.335	21641
874.464	21644
874.593	21789
874.722	21880
874.851	21850
874.979	21751
875.108	21861
875.237	21675
875.365	21679
875.494	21762
875.623	21873
875.751	21667
875.88	21800
876.008	21975
876.136	21930
876.265	22120
876.393	22249
876.521	22215
876.65	22215
876.778	22310
876.906	22166
877.034	22154
877.162	22097
877.29	22040
877.418	22253
877.546	22097
877.674	22135
877.802	22025
877.93	22139
878.058	22067
878.185	22032
878.313	22029
878.441	22215
878.568	21983
878.696	22029
878.824	22078
878.951	22177
879.079	22303
879.206	22447
879.333	22314
879.461	22109
879.588	22257
879.715	22306
879.842	22478
879.97	22219
880.097	21994
880.224	21915
880.351	21983
880.478	22078
880.605	21922
880.732	21895
880.859	22036
880.986	22002
881.112	22116
881.239	21793
881.366	21671
881.493	21663
881.619	21553
881.746	21606
881.872	21728
881.999	21504
882.125	21519
882.252	21519
882.378	21538
882.505	21515
882.631	21431
882.757	21199
882.883	21275
883.01	21249
883.136	21272
883.262	21154
883.388	21028
883.514	21340
883.64	21298
883.766	21062
883.892	20971
884.018	21043
884.143	21096
884.269	21256
884.395	20956
884.52	20948
884.646	20883
884.772	20857
884.897	20914
885.023	20921
885.148	21024
885.274	20967
885.399	21013
885.524	20952
885.65	20773
885.775	20967
885.9	20842
886.025	20948
886.15	20975
886.275	20868
886.4	20876
886.525	20891
886.65	20648
886.775	20845
886.9	20910
887.025	21047
887.149	20887
887.274	20632
887.399	20762
887.523	20587
887.648	20648
887.773	20606
887.897	20701
888.021	20636
888.146	20552
888.27	20659
888.395	20648
888.519	20705
888.643	20708
888.767	20625
888.891	20522
889.015	20347
889.139	20476
889.263	20442
889.387	20648
889.511	20746
889.635	20564
889.759	20415
889.883	20400
890.006	20438
890.13	20533
890.254	20320
890.377	20393
890.501	20138
890.624	20172
890.748	20176
890.871	20077
890.995	19997
891.118	20073
891.241	20073
891.364	19978
891.488	20153
891.611	19989
891.734	19970
891.857	20054
891.98	19970
892.103	20065
892.226	20100
892.349	19906
892.471	19818
892.594	19894
892.717	19993
892.839	19967
892.962	19837
893.085	20050
893.207	19864
893.33	19811
893.452	19822
893.575	19940
893.697	19833
893.819	20035
893.941	20081
894.064	20058
894.186	19974
894.308	19803
894.43	20027
894.552	20046
894.674	20001
894.796	19757
894.918	19830
895.04	19868
895.161	20027
895.283	20039
895.405	19951
895.526	19928
895.648	19921
895.769	19978
895.891	19887
896.012	20008
896.134	20035
896.255	19951
896.376	19788
896.498	20012
896.619	20008
896.74	19955
896.861	20058
896.982	20187
897.103	20423
897.224	20145
897.345	20069
897.466	20153
897.587	20130
897.708	20339
897.828	20195
897.949	20130
898.07	20005
898.19	20084
898.311	20282
898.431	20134
898.552	20187
898.672	20256
898.792	20187
898.913	20191
899.033	20149
899.153	20081
899.273	19906
899.393	19997
899.513	20008
899.633	19947
899.753	20081
899.873	19955
899.993	19940
900.113	19913
900.232	19818
900.352	19830
900.472	19856
900.591	19666
900.711	19715
900.83	19620
900.95	19822
901.069	19860
901.189	19632
901.308	19308
901.427	19209
901.546	19236
901.665	19228
901.784	19236
901.904	19148
902.023	19148
902.141	18951
902.26	18810
902.379	18867
902.498	18776
902.617	18684
902.735	18916
902.854	18901
902.973	18673
903.091	18422
903.21	18414
903.328	18506
903.446	18433
903.565	18273
903.683	18292
903.801	18136
903.919	18251
904.038	18232
904.156	18098
904.274	18273
904.392	17999
904.51	17977
904.627	18064
904.745	18144
904.863	18171
904.981	17813
905.098	17760
905.216	17760
905.334	17863
905.451	17703
905.569	17741
905.686	17824
905.803	17722
905.921	17592
906.038	17615
906.155	17558
906.272	17459
906.389	17509
906.506	17273
906.623	17288
906.74	17280
906.857	17121
906.974	17185
907.091	17250
907.208	17364
907.324	17299
907.441	17121
907.557	17113
907.674	17045
907.79	16934
907.907	16984
908.023	16957
908.139	17003
908.256	16885
908.372	16873
908.488	16877
908.604	16698
908.72	16649
908.836	16748
908.952	16615
909.068	16729
909.184	16717
909.3	16721
909.415	16668
909.531	16675
909.647	16500
909.762	16371
909.878	16516
909.993	16417
910.108	16409
910.224	16329
910.339	16375
910.454	16257
910.57	16253
910.685	16093
910.8	16375
910.915	16352
911.03	16306
911.145	15998
911.259	15964
911.374	15979
911.489	15911
911.604	15873
911.718	15720
911.833	15854
911.947	15644
912.062	15603
912.176	15759
912.291	15671
912.405	15781
912.519	15934
912.633	15968
912.748	15724
912.862	15717
912.976	15679
913.09	15462
913.204	15496
913.318	15523
913.431	15698
913.545	15591
913.659	15625
913.772	15507
913.886	15397
914	15393
914.113	15428
914.226	15420
914.34	15378
914.453	15264
914.566	15389
914.68	15268
914.793	15176
914.906	14998
915.019	15043
915.132	14849
915.245	15024
915.358	14998
915.47	14887
915.583	15013
915.696	14914
915.809	15097
915.921	15089
916.034	14902
916.146	14902
916.259	14792
916.371	14906
916.483	14914
916.595	14792
916.708	14807
916.82	14777
916.932	14815
917.044	14735
917.156	14659
917.268	14640
917.38	14682
917.491	14632
917.603	14568
917.715	14708
917.826	14731
917.938	14568
918.049	14507
918.161	14640
918.272	14701
918.384	14701
918.495	14602
918.606	14404
918.717	14503
918.828	14454
918.939	14415
919.05	14263
919.161	14358
919.272	14183
919.383	14282
919.494	14461
919.604	14705
919.715	14381
919.826	14339
919.936	14389
920.047	14434
920.157	14374
920.267	14533
920.378	14347
920.488	14332
920.598	14488
920.708	14613
920.818	14473
920.928	14457
921.038	14693
921.148	14678
921.258	14412
921.368	14218
921.477	14183
921.587	14183
921.697	13997
921.806	14088
921.916	13932
922.025	13822
922.134	13769
922.244	13636
922.353	13662
922.462	13628
922.571	13590
922.68	13460
922.789	13396
922.898	13377
923.007	13316
923.116	13392
923.224	13373
923.333	13373
923.442	13339
923.55	13190
923.659	13149
923.767	13278
923.876	13190
923.984	13244
924.092	13133
924.201	13187
924.309	13084
924.417	13126
924.525	13114
924.633	13004
924.741	13936
924.849	12837
924.956	12985
925.064	12947
925.172	12745
925.279	12760
925.387	12787
925.494	12901
925.602	12973
925.709	12833
925.816	12681
925.924	12700
926.031	12772
926.138	12772
926.245	12859
926.352	12627
926.459	12764
926.566	12772
926.673	12703
926.779	12582
926.886	12665
926.993	12384
927.099	12334
927.206	12350
927.312	12369
927.419	12467
927.525	12448
927.631	12483
927.737	12308
927.843	12270
927.95	12155
928.056	12369
928.162	12262
928.267	12391
928.373	12875
928.479	12232
928.585	12060
928.69	12163
928.796	12247
928.901	12125
929.007	11999
929.112	12064
929.218	12175
929.323	12022
929.428	11950
929.533	12110
929.638	11821
929.743	11920
929.848	11946
929.953	11832
930.058	11771
930.163	11653
930.267	11741
930.372	11821
930.477	11638
930.581	11866
930.685	11741
930.79	11604
930.894	11486
930.998	11581
931.103	11649
931.207	11303
931.311	11296
931.415	11246
931.519	10961
931.623	10953
