Data from test_V78500241_3049.txt Node
Date: Fri Mar 25 16:02:55 CST 2022
User: usil
Spectrometer: V785-0024
Trigger mode: 0
Integration Time (sec): 4.000000E-1
Scans to average: 1
Nonlinearity correction enabled: false
Boxcar width: 0
Storing dark spectrum: false
XAxis mode: Wavelengths
Number of Pixels in Spectrum: 1024
>>>>>Begin Spectral Data<<<<<
801.071	28223
801.214	28268
801.356	28013
801.499	27994
801.641	27880
801.783	27789
801.926	27835
802.068	27865
802.211	27736
802.353	27728
802.496	27599
802.638	27561
802.78	27515
802.923	27272
803.065	27435
803.208	27481
803.35	27542
803.492	27561
803.635	27580
803.777	27644
803.919	27618
804.061	27979
804.204	27572
804.346	27572
804.488	27511
804.63	27679
804.773	27599
804.915	27679
805.057	27922
805.199	27557
805.341	27732
805.483	27895
805.626	27816
805.768	27690
805.91	27770
806.052	27831
806.194	27816
806.336	27987
806.478	27892
806.62	27831
806.762	28002
806.904	28124
807.046	28303
807.188	28086
807.33	28238
807.472	28306
807.614	28253
807.756	28242
807.898	28128
808.04	27903
808.182	27972
808.324	27998
808.465	28200
808.607	28329
808.749	28466
808.891	28569
809.033	28634
809.174	28577
809.316	28527
809.458	28474
809.6	28382
809.741	28489
809.883	28656
810.025	28824
810.166	28767
810.308	28694
810.45	28672
810.591	28694
810.733	28653
810.875	28489
811.016	28421
811.158	28398
811.299	28493
811.441	28683
811.582	28637
811.724	28485
811.865	28504
812.007	28394
812.148	28550
812.29	28649
812.431	28725
812.573	28866
812.714	28927
812.855	29010
812.997	29037
813.138	29216
813.279	29174
813.421	29022
813.562	29083
813.703	28790
813.845	28725
813.986	28424
814.127	28348
814.268	28249
814.41	28280
814.551	28341
814.692	28276
814.833	28162
814.974	28150
815.115	28371
815.256	27934
815.397	28128
815.539	28067
815.68	28044
815.821	27926
815.962	27983
816.103	27953
816.244	27869
816.385	27831
816.526	27819
816.666	27580
816.807	27526
816.948	27587
817.089	27591
817.23	27553
817.371	27336
817.512	27408
817.653	27408
817.793	27534
817.934	27454
818.075	27507
818.216	27450
818.356	27466
818.497	27424
818.638	27245
818.778	27203
818.919	27184
819.06	27184
819.2	27325
819.341	27481
819.481	27408
819.622	27720
819.762	27937
819.903	27835
820.043	27641
820.184	27652
820.324	27618
820.465	27587
820.605	27625
820.746	27568
820.886	27477
821.026	27633
821.167	27614
821.307	27614
821.447	27485
821.588	27405
821.728	27336
821.868	27222
822.008	26956
822.149	26982
822.289	26963
822.429	26625
822.569	26655
822.709	26845
822.849	26579
822.99	26556
823.13	26511
823.27	26351
823.41	26377
823.55	26122
823.69	26431
823.83	26313
823.97	26294
824.11	26050
824.25	25997
824.389	26046
824.529	26172
824.669	26073
824.809	26271
824.949	26244
825.089	26229
825.228	26191
825.368	25993
825.508	25936
825.648	26012
825.787	26084
825.927	26077
826.067	25978
826.206	25925
826.346	25970
826.485	25917
826.625	25947
826.765	26119
826.904	26043
827.044	25742
827.183	25696
827.323	25780
827.462	25833
827.601	25788
827.741	25696
827.88	25696
828.02	25719
828.159	25658
828.298	25841
828.437	25826
828.577	25620
828.716	25712
828.855	25495
828.994	25403
829.134	25426
829.273	25537
829.412	25415
829.551	25430
829.69	25381
829.829	25392
829.968	25400
830.107	25419
830.246	25422
830.385	25327
830.524	25225
830.663	25114
830.802	25118
830.941	24996
831.08	24856
831.219	25107
831.357	25061
831.496	25343
831.635	25034
831.774	24943
831.913	24909
832.051	24707
832.19	24798
832.329	24810
832.467	24620
832.606	24764
832.744	24669
832.883	24669
833.022	24631
833.16	24669
833.299	24764
833.437	24654
833.576	24696
833.714	24692
833.852	24776
833.991	24757
834.129	24722
834.267	24783
834.406	24764
834.544	24859
834.682	24795
834.821	24779
834.959	24992
835.097	24707
835.235	24783
835.373	24730
835.511	24741
835.65	24540
835.788	24753
835.926	24509
836.064	24460
836.202	24422
836.34	24631
836.478	24574
836.615	24445
836.753	24570
836.891	24692
837.029	24642
837.167	24566
837.305	24517
837.443	24570
837.58	24380
837.718	24486
837.856	24445
837.993	24483
838.131	24574
838.269	24273
838.406	24281
838.544	24353
838.681	24038
838.819	23942
838.956	23946
839.094	23916
839.231	23977
839.369	24022
839.506	24121
839.643	24102
839.781	23901
839.918	23760
840.055	23817
840.193	23775
840.33	23707
840.467	23809
840.604	23828
840.742	24057
840.879	23634
841.016	23672
841.153	23600
841.29	23897
841.427	23874
841.564	23805
841.701	23737
841.838	23775
841.975	23764
842.112	23760
842.249	23539
842.385	23528
842.522	23687
842.659	23539
842.796	23463
842.933	23509
843.069	23573
843.206	23376
843.343	23619
843.479	23547
843.616	23528
843.752	23292
843.889	23292
844.025	23368
844.162	23231
844.298	23414
844.435	23337
844.571	23280
844.708	23436
844.844	23482
844.98	23493
845.117	23356
845.253	23235
845.389	23170
845.525	23197
845.661	23223
845.798	22984
845.934	23151
846.07	23060
846.206	23098
846.342	23216
846.478	23060
846.614	22923
846.75	22679
846.886	22908
847.022	22869
847.158	22809
847.294	22694
847.429	22748
847.565	22607
847.701	23029
847.837	22615
847.972	22417
848.108	22664
848.244	22508
848.379	22371
848.515	22421
848.65	22398
848.786	22424
848.921	22462
849.057	22432
849.192	22478
849.328	22413
849.463	22287
849.598	22337
849.734	22325
849.869	22181
850.004	22154
850.14	22204
850.275	22143
850.41	22112
850.545	22090
850.68	22070
850.815	22177
850.95	21983
851.085	22299
851.22	22154
851.355	22131
851.49	22116
851.625	22200
851.76	22158
851.895	21968
852.03	22105
852.165	22207
852.299	22120
852.434	22135
852.569	22139
852.703	22021
852.838	22341
852.973	22280
853.107	22360
853.242	22158
853.376	21991
853.511	21789
853.645	21838
853.78	22010
853.914	21998
854.048	21865
854.183	21945
854.317	21994
854.451	22093
854.585	21884
854.72	21899
854.854	22002
854.988	21926
855.122	21865
855.256	21793
855.39	22025
855.524	21994
855.658	22025
855.792	22013
855.926	21926
856.06	21895
856.194	22051
856.327	21987
856.461	21892
856.595	21895
856.729	22006
856.862	22101
856.996	22010
857.13	22234
857.263	22166
857.397	21975
857.53	21953
857.664	21987
857.797	22063
857.931	22093
858.064	22044
858.197	22055
858.331	21949
858.464	21888
858.597	21937
858.731	21827
858.864	21857
858.997	21869
859.13	21975
859.263	21994
859.396	22032
859.529	21994
859.662	21937
859.795	21983
859.928	21922
860.061	22040
860.194	22238
860.327	22086
860.46	21960
860.592	22131
860.725	22196
860.858	22109
860.99	21915
861.123	22017
861.256	21953
861.388	21998
861.521	22675
861.653	21922
861.786	21800
861.918	21793
862.05	21888
862.183	21838
862.315	21918
862.447	22063
862.58	21975
862.712	21739
862.844	21739
862.976	21774
863.108	21804
863.24	22287
863.372	21629
863.504	21835
863.636	21564
863.768	21770
863.9	21785
864.032	21648
864.164	21564
864.296	21720
864.428	21751
864.559	21812
864.691	21835
864.823	21614
864.954	21717
865.086	21797
865.217	21553
865.349	21530
865.48	21622
865.612	21644
865.743	21690
865.875	21614
866.006	21603
866.137	21686
866.269	21572
866.4	21595
866.531	21435
866.662	21462
866.793	21580
866.924	21511
867.055	21606
867.186	21561
867.317	21416
867.448	21553
867.579	21386
867.71	21454
867.841	21488
867.972	21549
868.103	21534
868.233	21473
868.364	21496
868.495	21781
868.625	21759
868.756	21907
868.886	21637
869.017	21705
869.147	21873
869.278	21915
869.408	21785
869.539	21854
869.669	21876
869.799	21854
869.929	21934
870.06	21789
870.19	22082
870.32	22067
870.45	22044
870.58	22128
870.71	22280
870.84	22318
870.97	22093
871.1	22120
871.23	22379
871.36	22394
871.489	22356
871.619	22356
871.749	22382
871.879	22481
872.008	22577
872.138	22299
872.267	22462
872.397	22360
872.526	22185
872.656	22196
872.785	22211
872.915	22363
873.044	22413
873.173	22322
873.303	22333
873.432	22459
873.561	22580
873.69	22421
873.819	22386
873.948	22504
874.077	22440
874.206	22322
874.335	22341
874.464	22592
874.593	22588
874.722	22546
874.851	22615
874.979	22634
875.108	22721
875.237	22588
875.365	22516
875.494	22538
875.623	22630
875.751	22569
875.88	22554
876.008	22698
876.136	22805
876.265	23067
876.393	23235
876.521	22980
876.65	23098
876.778	22938
876.906	22892
877.034	22953
877.162	22972
877.29	22919
877.418	22927
877.546	23056
877.674	23083
877.802	23014
877.93	22930
878.058	23029
878.185	22767
878.313	22889
878.441	22835
878.568	22702
878.696	22862
878.824	22908
878.951	23086
879.079	23033
879.206	23147
879.333	23197
879.461	22915
879.588	22965
879.715	23155
879.842	23212
879.97	23140
880.097	22900
880.224	22740
880.351	22812
880.478	22717
880.605	22668
880.732	22885
880.859	22987
880.986	22824
881.112	22721
881.239	22630
881.366	22481
881.493	22504
881.619	22280
881.746	22352
881.872	22371
881.999	22314
882.125	22268
882.252	22337
882.378	22291
882.505	22424
882.631	22287
882.757	22082
882.883	22261
883.01	22070
883.136	22063
883.262	21797
883.388	21964
883.514	22055
883.64	21949
883.766	21998
883.892	21705
884.018	21876
884.143	21907
884.269	21960
884.395	21850
884.52	21644
884.646	21762
884.772	21561
884.897	21587
885.023	21694
885.148	21762
885.274	21736
885.399	21842
885.524	21766
885.65	21618
885.775	21667
885.9	21660
886.025	21778
886.15	21724
886.275	21660
886.4	21713
886.525	21671
886.65	21511
886.775	21606
886.9	21694
887.025	21899
887.149	21595
887.274	21469
887.399	21466
887.523	21401
887.648	21283
887.773	21275
887.897	21469
888.021	21462
888.146	21355
888.27	21466
888.395	21492
888.519	21424
888.643	21447
888.767	21462
888.891	21230
889.015	21237
889.139	21317
889.263	21325
889.387	21393
889.511	21408
889.635	21283
889.759	21306
889.883	21199
890.006	21279
890.13	21287
890.254	21089
890.377	21077
890.501	20986
890.624	20853
890.748	21001
890.871	20823
890.995	20743
891.118	20682
891.241	20823
891.364	20834
891.488	20883
891.611	20823
891.734	20781
891.857	20800
891.98	20804
892.103	20773
892.226	20731
892.349	20689
892.471	20587
892.594	20815
892.717	20807
892.839	20640
892.962	20693
893.085	20785
893.207	20674
893.33	20651
893.452	20686
893.575	20594
893.697	20629
893.819	20826
893.941	20834
894.064	20883
894.186	20594
894.308	20678
894.43	20579
894.552	20887
894.674	20815
894.796	20636
894.918	20594
895.04	20651
895.161	20689
895.283	20727
895.405	20602
895.526	20609
895.648	20568
895.769	20731
895.891	20861
896.012	20720
896.134	20765
896.255	20689
896.376	20731
896.498	20689
896.619	20625
896.74	20697
896.861	20762
896.982	20948
897.103	20994
897.224	20910
897.345	20819
897.466	20819
897.587	20830
897.708	20944
897.828	20880
897.949	20834
898.07	20739
898.19	20800
898.311	20979
898.431	20807
898.552	20929
898.672	20815
898.792	20971
898.913	20902
899.033	20762
899.153	20663
899.273	20514
899.393	20533
899.513	20629
899.633	20644
899.753	20663
899.873	20484
899.993	20571
900.113	20450
900.232	20503
900.352	20495
900.472	20454
900.591	20229
900.711	20343
900.83	20282
900.95	20594
901.069	20530
901.189	20244
901.308	20046
901.427	19974
901.546	20005
901.665	19982
901.784	19932
901.904	19795
902.023	19772
902.141	19510
902.26	19597
902.379	19552
902.498	19434
902.617	19453
902.735	19499
902.854	19441
902.973	19396
903.091	19152
903.21	19137
903.328	19175
903.446	19061
903.565	18932
903.683	18920
903.801	18840
903.919	18882
904.038	18783
904.156	18684
904.274	18817
904.392	18635
904.51	18631
904.627	18631
904.745	18688
904.863	18681
904.981	18490
905.098	18281
905.216	18369
905.334	18452
905.451	18365
905.569	18391
905.686	18346
905.803	18289
905.921	18174
906.038	18235
906.155	18174
906.272	18091
906.389	18034
906.506	17878
906.623	17931
906.74	17828
906.857	17707
906.974	17809
907.091	17988
907.208	17999
907.324	17916
907.441	17809
907.557	17627
907.674	17684
907.79	17539
907.907	17551
908.023	17634
908.139	17672
908.256	17478
908.372	17490
908.488	17493
908.604	17341
908.72	17311
908.836	17345
908.952	17315
909.068	17421
909.184	17360
909.3	17368
909.415	17406
909.531	17284
909.647	17052
909.762	16968
909.878	16987
909.993	17052
910.108	17124
910.224	16889
910.339	16866
910.454	16858
910.57	16828
910.685	16717
910.8	17018
910.915	16930
911.03	16774
911.145	16588
911.259	16550
911.374	16462
911.489	16607
911.604	16466
911.718	16272
911.833	16470
911.947	16265
912.062	16166
912.176	16314
912.291	16367
912.405	16360
912.519	16504
912.633	16402
912.748	16386
912.862	16310
912.976	16211
913.09	16116
913.204	16162
913.318	16143
913.431	16196
913.545	16318
913.659	16090
913.772	16097
913.886	16006
914	15964
914.113	16093
914.226	16044
914.34	15956
914.453	15808
914.566	15937
914.68	15854
914.793	15713
914.906	15625
915.019	15622
915.132	15443
915.245	15538
915.358	15587
915.47	15511
915.583	15488
915.696	15523
915.809	15682
915.921	15690
916.034	15481
916.146	15420
916.259	15412
916.371	15507
916.483	15504
916.595	15344
916.708	15386
916.82	15416
916.932	15298
917.044	15291
917.156	15302
917.268	15199
917.38	15355
917.491	15100
917.603	15146
917.715	15157
917.826	15237
917.938	15089
918.049	15005
918.161	15112
918.272	15192
918.384	15237
918.495	15127
918.606	14910
918.717	14872
918.828	14960
918.939	14982
919.05	14815
919.161	14899
919.272	14739
919.383	14716
919.494	15020
919.604	15039
919.715	14872
919.826	14815
919.936	14921
920.047	14986
920.157	14845
920.267	15051
920.378	14918
920.488	14758
920.598	14998
920.708	15150
920.818	14998
920.928	14910
921.038	15154
921.148	15085
921.258	14857
921.368	14712
921.477	14697
921.587	14632
921.697	14514
921.806	14590
921.916	14473
922.025	14358
922.134	14195
922.244	14202
922.353	14206
922.462	14100
922.571	14164
922.68	13978
922.789	13807
922.898	13978
923.007	13788
923.116	13947
923.224	13902
923.333	13864
923.442	13761
923.55	13723
923.659	13738
923.767	13799
923.876	13666
923.984	13753
924.092	13571
924.201	13578
924.309	13639
924.417	13704
924.525	13529
924.633	13445
924.741	14320
924.849	13362
924.956	13502
925.064	13403
925.172	13190
925.279	13304
925.387	13308
925.494	13236
925.602	13445
925.709	13346
925.816	13091
925.924	13251
926.031	13270
926.138	13232
926.245	13247
926.352	13316
926.459	13297
926.566	13358
926.673	13133
926.779	13065
926.886	13179
926.993	12970
927.099	12905
927.206	12863
927.312	12932
927.419	12947
927.525	12852
927.631	12844
927.737	12821
927.843	12719
927.95	12673
928.056	12719
928.162	12623
928.267	12753
928.373	13365
928.479	12821
928.585	12479
928.69	12604
928.796	12665
928.901	12574
929.007	12384
929.112	12467
929.218	12437
929.323	12437
929.428	12384
929.533	12608
929.638	12285
929.743	12369
929.848	12410
929.953	12277
930.058	12243
930.163	12045
930.267	12140
930.372	12277
930.477	12045
930.581	12216
930.685	12114
930.79	11973
930.894	12011
930.998	11923
931.103	12064
931.207	11688
931.311	11703
931.415	11558
931.519	11353
931.623	11311
