Data from test_V78500241_2018.txt Node
Date: Fri Mar 25 15:55:46 CST 2022
User: usil
Spectrometer: V785-0024
Trigger mode: 0
Integration Time (sec): 4.000000E-1
Scans to average: 1
Nonlinearity correction enabled: false
Boxcar width: 0
Storing dark spectrum: false
XAxis mode: Wavelengths
Number of Pixels in Spectrum: 1024
>>>>>Begin Spectral Data<<<<<
801.071	28493
801.214	28356
801.356	28055
801.499	28200
801.641	27975
801.783	27998
801.926	28010
802.068	27987
802.211	27835
802.353	27911
802.496	27812
802.638	27583
802.78	27690
802.923	27603
803.065	27591
803.208	27671
803.35	27671
803.492	27816
803.635	27960
803.777	27720
803.919	27983
804.061	28333
804.204	27991
804.346	27895
804.488	27873
804.63	27804
804.773	27827
804.915	28131
805.057	28017
805.199	27827
805.341	27979
805.483	28139
805.626	28188
805.768	27914
805.91	28032
806.052	28162
806.194	27975
806.336	28116
806.478	28192
806.62	28135
806.762	28230
806.904	28325
807.046	28538
807.188	28580
807.33	28409
807.472	28653
807.614	28413
807.756	28554
807.898	28341
808.04	28337
808.182	28287
808.324	28401
808.465	28474
808.607	28512
808.749	28835
808.891	28824
809.033	28839
809.174	28790
809.316	28740
809.458	28721
809.6	28797
809.741	28759
809.883	28923
810.025	28991
810.166	28938
810.308	29025
810.45	28968
810.591	28790
810.733	28771
810.875	28790
811.016	28599
811.158	28744
811.299	28816
811.441	28786
811.582	28957
811.724	28721
811.865	28786
812.007	28786
812.148	28694
812.29	28824
812.431	28881
812.573	28987
812.714	29200
812.855	29265
812.997	29429
813.138	29463
813.279	29368
813.421	29258
813.562	29159
813.703	29098
813.845	29022
813.986	28554
814.127	28516
814.268	28375
814.41	28489
814.551	28428
814.692	28523
814.833	28379
814.974	28284
815.115	28413
815.256	28303
815.397	28322
815.539	28242
815.68	28230
815.821	28226
815.962	28246
816.103	28215
816.244	28063
816.385	28055
816.526	28044
816.666	27709
816.807	27736
816.948	27759
817.089	27762
817.23	27770
817.371	27778
817.512	27709
817.653	27743
817.793	27709
817.934	27747
818.075	27892
818.216	27876
818.356	27705
818.497	27675
818.638	27622
818.778	27416
818.919	27561
819.06	27481
819.2	27671
819.341	27679
819.481	27675
819.622	27876
819.762	28128
819.903	28048
820.043	27869
820.184	27941
820.324	27823
820.465	27892
820.605	27797
820.746	27797
820.886	27701
821.026	27789
821.167	27743
821.307	27964
821.447	27774
821.588	27564
821.728	27576
821.868	27397
822.008	27135
822.149	27245
822.289	27127
822.429	26963
822.569	26960
822.709	26948
822.849	26765
822.99	26785
823.13	26697
823.27	26609
823.41	26636
823.55	26480
823.69	26499
823.83	26495
823.97	26431
824.11	26267
824.25	26263
824.389	26393
824.529	26450
824.669	26278
824.809	26469
824.949	26469
825.089	26355
825.228	26442
825.368	26199
825.508	26176
825.648	26237
825.787	26199
825.927	26393
826.067	26225
826.206	26157
826.346	26328
826.485	26244
826.625	26278
826.765	26370
826.904	26298
827.044	26073
827.183	26096
827.323	25826
827.462	25993
827.601	25993
827.741	25902
827.88	26065
828.02	25894
828.159	25841
828.298	25982
828.437	26039
828.577	25909
828.716	26126
828.855	25932
828.994	25662
829.134	25780
829.273	25681
829.412	25556
829.551	25518
829.69	25685
829.829	25670
829.968	25742
830.107	25723
830.246	25693
830.385	25651
830.524	25499
830.663	25373
830.802	25441
830.941	25339
831.08	25152
831.219	25304
831.357	25377
831.496	25468
831.635	25255
831.774	25213
831.913	25023
832.051	25152
832.19	25008
832.329	24970
832.467	25015
832.606	24890
832.744	24913
832.883	25091
833.022	24989
833.16	25015
833.299	24890
833.437	24947
833.576	24905
833.714	24966
833.852	25114
833.991	25065
834.129	25050
834.267	25137
834.406	24977
834.544	25095
834.682	24894
834.821	24966
834.959	25152
835.097	24916
835.235	25133
835.373	24932
835.511	24943
835.65	24920
835.788	24844
835.926	24700
836.064	24597
836.202	24711
836.34	24844
836.478	24859
836.615	24730
836.753	24753
836.891	24924
837.029	24760
837.167	24764
837.305	24711
837.443	24753
837.58	24593
837.718	24795
837.856	24639
837.993	24528
838.131	24631
838.269	24532
838.406	24547
838.544	24391
838.681	24292
838.819	24304
838.956	24167
839.094	24095
839.231	24068
839.369	24395
839.506	24437
839.643	24266
839.781	24152
839.918	24003
840.055	24129
840.193	24038
840.33	24026
840.467	24026
840.604	23980
840.742	24228
840.879	23813
841.016	23916
841.153	23901
841.29	24079
841.427	23843
841.564	23961
841.701	23996
841.838	23866
841.975	23840
842.112	23798
842.249	23813
842.385	23710
842.522	23999
842.659	23824
842.796	23627
842.933	23840
843.069	23665
843.206	23615
843.343	23920
843.479	23748
843.616	23832
843.752	23646
843.889	23501
844.025	23695
844.162	23566
844.298	23570
844.435	23680
844.571	23425
844.708	23452
844.844	23722
844.98	23638
845.117	23611
845.253	23516
845.389	23395
845.525	23471
845.661	23429
845.798	23326
845.934	23433
846.07	23299
846.206	23330
846.342	23433
846.478	23379
846.614	23204
846.75	22968
846.886	22965
847.022	23067
847.158	22885
847.294	23056
847.429	23033
847.565	22900
847.701	23204
847.837	22767
847.972	22596
848.108	22866
848.244	22869
848.379	22634
848.515	22634
848.65	22516
848.786	22660
848.921	22596
849.057	22793
849.192	22622
849.328	22607
849.463	22592
849.598	22569
849.734	22592
849.869	22489
850.004	22333
850.14	22417
850.275	22421
850.41	22272
850.545	22219
850.68	22337
850.815	22398
850.95	22287
851.085	22367
851.22	22417
851.355	22478
851.49	22348
851.625	22344
851.76	22303
851.895	22310
852.03	22265
852.165	22367
852.299	22386
852.434	22344
852.569	22363
852.703	22329
852.838	22538
852.973	22398
853.107	22356
853.242	22303
853.376	22154
853.511	22086
853.645	22116
853.78	22363
853.914	22135
854.048	21953
854.183	22116
854.317	22246
854.451	22394
854.585	22124
854.72	22143
854.854	22223
854.988	22143
855.122	22116
855.256	22013
855.39	22120
855.524	22177
855.658	22150
855.792	22204
855.926	22226
856.06	22188
856.194	22181
856.327	22200
856.461	22105
856.595	22078
856.729	22128
856.862	22272
856.996	22291
857.13	22280
857.263	22181
857.397	22257
857.53	22105
857.664	22135
857.797	22177
857.931	22356
858.064	22246
858.197	22242
858.331	22044
858.464	22150
858.597	22139
858.731	22124
858.864	22150
858.997	22120
859.13	22188
859.263	22185
859.396	22238
859.529	22185
859.662	22124
859.795	22200
859.928	22173
860.061	22344
860.194	22466
860.327	22234
860.46	22223
860.592	22242
860.725	22329
860.858	22382
860.99	22158
861.123	22040
861.256	22238
861.388	22150
861.521	22976
861.653	22044
861.786	21934
861.918	21975
862.05	22032
862.183	22032
862.315	22109
862.447	22154
862.58	22032
862.712	21854
862.844	21823
862.976	21960
863.108	21934
863.24	22371
863.372	21835
863.504	21800
863.636	22006
863.768	21903
863.9	21953
864.032	21759
864.164	21781
864.296	21880
864.428	21941
864.559	21991
864.691	21846
864.823	21873
864.954	21854
865.086	21888
865.217	21869
865.349	21679
865.48	21781
865.612	21743
865.743	21861
865.875	21797
866.006	21709
866.137	21812
866.269	21694
866.4	21679
866.531	21728
866.662	21660
866.793	21644
866.924	21713
867.055	21656
867.186	21743
867.317	21637
867.448	21443
867.579	21538
867.71	21500
867.841	21606
867.972	21819
868.103	21587
868.233	21633
868.364	21698
868.495	21762
868.625	21934
868.756	21983
868.886	21842
869.017	21892
869.147	22044
869.278	22059
869.408	21983
869.539	21949
869.669	21918
869.799	21907
869.929	22097
870.06	22082
870.19	22268
870.32	22238
870.45	22272
870.58	22329
870.71	22341
870.84	22474
870.97	22284
871.1	22421
871.23	22470
871.36	22459
871.489	22523
871.619	22474
871.749	22382
871.879	22626
872.008	22561
872.138	22565
872.267	22569
872.397	22417
872.526	22356
872.656	22322
872.785	22367
872.915	22512
873.044	22531
873.173	22634
873.303	22550
873.432	22637
873.561	22615
873.69	22512
873.819	22497
873.948	22698
874.077	22694
874.206	22436
874.335	22561
874.464	22683
874.593	22702
874.722	22698
874.851	22721
874.979	22698
875.108	22771
875.237	22653
875.365	22611
875.494	22607
875.623	22869
875.751	22793
875.88	22630
876.008	22866
876.136	22957
876.265	23090
876.393	23273
876.521	23216
876.65	23204
876.778	23174
876.906	23136
877.034	23155
877.162	23140
877.29	23010
877.418	23223
877.546	23041
877.674	23121
877.802	23170
877.93	22999
878.058	23143
878.185	22866
878.313	23079
878.441	23056
878.568	22900
878.696	22987
878.824	23197
878.951	23345
879.079	23421
879.206	23406
879.333	23288
879.461	23075
879.588	23220
879.715	23356
879.842	23436
879.97	23242
880.097	22934
880.224	22812
880.351	22965
880.478	23018
880.605	22949
880.732	22957
880.859	23151
880.986	22923
881.112	22961
881.239	22694
881.366	22645
881.493	22516
881.619	22417
881.746	22424
881.872	22493
881.999	22265
882.125	22295
882.252	22500
882.378	22432
882.505	22577
882.631	22428
882.757	22158
882.883	22329
883.01	22192
883.136	22086
883.262	22074
883.388	22040
883.514	22093
883.64	22173
883.766	22017
883.892	21903
884.018	22021
884.143	22139
884.269	22173
884.395	21789
884.52	21736
884.646	21785
884.772	21774
884.897	21713
885.023	21831
885.148	21915
885.274	21930
885.399	21915
885.524	21770
885.65	21846
885.775	21831
885.9	21724
886.025	21846
886.15	21766
886.275	21873
886.4	21599
886.525	21709
886.65	21641
886.775	21618
886.9	21838
887.025	21895
887.149	21728
887.274	21618
887.399	21481
887.523	21572
887.648	21576
887.773	21492
887.897	21591
888.021	21641
888.146	21534
888.27	21629
888.395	21572
888.519	21701
888.643	21660
888.767	21564
888.891	21408
889.015	21310
889.139	21431
889.263	21401
889.387	21351
889.511	21481
889.635	21439
889.759	21317
889.883	21222
890.006	21291
890.13	21405
890.254	21249
890.377	21321
890.501	21142
890.624	20990
890.748	21154
890.871	21039
890.995	20891
891.118	20834
891.241	20910
891.364	20876
891.488	21055
891.611	20883
891.734	20895
891.857	20967
891.98	20842
892.103	20883
892.226	20819
892.349	20796
892.471	20781
892.594	20720
892.717	20842
892.839	20788
892.962	20868
893.085	20944
893.207	20758
893.33	20648
893.452	20853
893.575	20895
893.697	20823
893.819	20933
893.941	21009
894.064	20902
894.186	20781
894.308	20720
894.43	20781
894.552	20880
894.674	20876
894.796	20834
894.918	20815
895.04	20792
895.161	20800
895.283	20963
895.405	20785
895.526	20826
895.648	20769
895.769	20743
895.891	20769
896.012	20895
896.134	20849
896.255	20819
896.376	20826
896.498	20845
896.619	20754
896.74	20807
896.861	20807
896.982	21104
897.103	21272
897.224	21039
897.345	20921
897.466	20868
897.587	20990
897.708	21131
897.828	21024
897.949	20902
898.07	20861
898.19	20933
898.311	21112
898.431	20902
898.552	20971
898.672	20998
898.792	21108
898.913	21005
899.033	20895
899.153	20830
899.273	20606
899.393	20796
899.513	20758
899.633	20727
899.753	20838
899.873	20697
899.993	20712
900.113	20613
900.232	20651
900.352	20773
900.472	20518
900.591	20450
900.711	20454
900.83	20514
900.95	20609
901.069	20644
901.189	20465
901.308	20100
901.427	20035
901.546	20069
901.665	20062
901.784	20096
901.904	19921
902.023	19712
902.141	19712
902.26	19651
902.379	19677
902.498	19480
902.617	19529
902.735	19597
902.854	19457
902.973	19502
903.091	19320
903.21	19324
903.328	19209
903.446	19179
903.565	18939
903.683	19019
903.801	18947
903.919	19027
904.038	18966
904.156	18829
904.274	18924
904.392	18776
904.51	18741
904.627	18821
904.745	18897
904.863	18776
904.981	18635
905.098	18582
905.216	18498
905.334	18437
905.451	18498
905.569	18498
905.686	18532
905.803	18547
905.921	18254
906.038	18277
906.155	18258
906.272	18174
906.389	18182
906.506	17996
906.623	18098
906.74	17969
906.857	17897
906.974	17904
907.091	18129
907.208	18102
907.324	18045
907.441	17859
907.557	17684
907.674	17737
907.79	17653
907.907	17672
908.023	17714
908.139	17691
908.256	17695
908.372	17600
908.488	17539
908.604	17482
908.72	17398
908.836	17524
908.952	17337
909.068	17455
909.184	17581
909.3	17387
909.415	17459
909.531	17524
909.647	17170
909.762	17151
909.878	17067
909.993	17155
910.108	17079
910.224	16972
910.339	17086
910.454	17025
910.57	16987
910.685	16771
910.8	17155
910.915	17075
911.03	16942
911.145	16736
911.259	16778
911.374	16672
911.489	16577
911.604	16531
911.718	16478
911.833	16421
911.947	16424
912.062	16295
912.176	16402
912.291	16436
912.405	16417
912.519	16721
912.633	16618
912.748	16424
912.862	16382
912.976	16261
913.09	16082
913.204	16158
913.318	16166
913.431	16322
913.545	16226
913.659	16417
913.772	16249
913.886	16078
914	16090
914.113	16226
914.226	16158
914.34	16093
914.453	15869
914.566	16025
914.68	15949
914.793	15793
914.906	15755
915.019	15652
915.132	15534
915.245	15682
915.358	15766
915.47	15610
915.583	15561
915.696	15656
915.809	15698
915.921	15644
916.034	15526
916.146	15507
916.259	15481
916.371	15686
916.483	15618
916.595	15420
916.708	15477
916.82	15397
916.932	15439
917.044	15473
917.156	15291
917.268	15298
917.38	15279
917.491	15256
917.603	15306
917.715	15294
917.826	15363
917.938	15241
918.049	15146
918.161	15241
918.272	15268
918.384	15306
918.495	15199
918.606	15112
918.717	14929
918.828	14941
918.939	15089
919.05	14883
919.161	15039
919.272	14773
919.383	14963
919.494	14998
919.604	15211
919.715	15039
919.826	14864
919.936	15017
920.047	14990
920.157	14918
920.267	15161
920.378	14952
920.488	14944
920.598	15123
920.708	15306
920.818	15100
920.928	15017
921.038	15272
921.148	15184
921.258	15020
921.368	14731
921.477	14743
921.587	14716
921.697	14571
921.806	14754
921.916	14518
922.025	14366
922.134	14313
922.244	14347
922.353	14374
922.462	14275
922.571	14149
922.68	13970
922.789	13986
922.898	14020
923.007	13974
923.116	14008
923.224	13894
923.333	13932
923.442	13791
923.55	13807
923.659	13772
923.767	13928
923.876	13731
923.984	13837
924.092	13651
924.201	13765
924.309	13731
924.417	13723
924.525	13677
924.633	13655
924.741	14240
924.849	13464
924.956	13537
925.064	13445
925.172	13415
925.279	13377
925.387	13407
925.494	13419
925.602	13510
925.709	13388
925.816	13198
925.924	13251
926.031	13247
926.138	13297
926.245	13304
926.352	13202
926.459	13381
926.566	13400
926.673	13247
926.779	13114
926.886	13103
926.993	12943
927.099	12951
927.206	12913
927.312	12882
927.419	12909
927.525	12924
927.631	12928
927.737	12730
927.843	12829
927.95	12677
928.056	12707
928.162	12745
928.267	12814
928.373	13457
928.479	12867
928.585	12559
928.69	12665
928.796	12719
928.901	12620
929.007	12403
929.112	12612
929.218	12642
929.323	12517
929.428	12486
929.533	12620
929.638	12384
929.743	12433
929.848	12433
929.953	12266
930.058	12251
930.163	12083
930.267	12102
930.372	12281
930.477	12072
930.581	12327
930.685	12121
930.79	12041
930.894	12030
930.998	12060
931.103	12182
931.207	11767
931.311	11718
931.415	11562
931.519	11364
931.623	11395
