Data from test_V78500241_3741.txt Node
Date: Fri Mar 25 16:07:43 CST 2022
User: usil
Spectrometer: V785-0024
Trigger mode: 0
Integration Time (sec): 4.000000E-1
Scans to average: 1
Nonlinearity correction enabled: false
Boxcar width: 0
Storing dark spectrum: false
XAxis mode: Wavelengths
Number of Pixels in Spectrum: 1024
>>>>>Begin Spectral Data<<<<<
801.071	28158
801.214	28124
801.356	27808
801.499	27861
801.641	27671
801.783	27671
801.926	27587
802.068	27701
802.211	27553
802.353	27553
802.496	27416
802.638	27515
802.78	27233
802.923	27321
803.065	27211
803.208	27275
803.35	27355
803.492	27454
803.635	27660
803.777	27427
803.919	27553
804.061	27884
804.204	27671
804.346	27515
804.488	27504
804.63	27644
804.773	27534
804.915	27572
805.057	27736
805.199	27462
805.341	27622
805.483	27793
805.626	27728
805.768	27652
805.91	27751
806.052	27591
806.194	27572
806.336	27907
806.478	27599
806.62	27709
806.762	27934
806.904	28101
807.046	28051
807.188	28101
807.33	28150
807.472	28158
807.614	28055
807.756	28070
807.898	27956
808.04	27804
808.182	28067
808.324	28040
808.465	27998
808.607	28181
808.749	28356
808.891	28455
809.033	28554
809.174	28577
809.316	28344
809.458	28226
809.6	28238
809.741	28367
809.883	28474
810.025	28596
810.166	28599
810.308	28748
810.45	28630
810.591	28523
810.733	28352
810.875	28367
811.016	28352
811.158	28188
811.299	28428
811.441	28519
811.582	28569
811.724	28531
811.865	28219
812.007	28428
812.148	28470
812.29	28466
812.431	28573
812.573	28664
812.714	28900
812.855	28824
812.997	28927
813.138	29094
813.279	28957
813.421	28908
813.562	28873
813.703	28538
813.845	28504
813.986	28253
814.127	28211
814.268	28177
814.41	28150
814.551	28143
814.692	28070
814.833	27930
814.974	27949
815.115	27941
815.256	27972
815.397	28036
815.539	27972
815.68	27869
815.821	27789
815.962	27819
816.103	27816
816.244	27583
816.385	27625
816.526	27644
816.666	27370
816.807	27374
816.948	27287
817.089	27424
817.23	27405
817.371	27389
817.512	27306
817.653	27275
817.793	27226
817.934	27374
818.075	27382
818.216	27469
818.356	27348
818.497	27287
818.638	27062
818.778	27108
818.919	27058
819.06	27150
819.2	27363
819.341	27458
819.481	27313
819.622	27568
819.762	27797
819.903	27599
820.043	27576
820.184	27492
820.324	27515
820.465	27507
820.605	27412
820.746	27485
820.886	27420
821.026	27450
821.167	27370
821.307	27515
821.447	27283
821.588	27237
821.728	27093
821.868	27013
822.008	26819
822.149	26781
822.289	26902
822.429	26587
822.569	26415
822.709	26457
822.849	26343
822.99	26309
823.13	26233
823.27	26225
823.41	26119
823.55	26039
823.69	26138
823.83	26119
823.97	26005
824.11	25845
824.25	25841
824.389	25849
824.529	26103
824.669	25955
824.809	26088
824.949	26138
825.089	26161
825.228	25944
825.368	25761
825.508	25833
825.648	25830
825.787	25822
825.927	26031
826.067	25826
826.206	25966
826.346	25928
826.485	25906
826.625	25928
826.765	25936
826.904	25940
827.044	25662
827.183	25632
827.323	25468
827.462	25624
827.601	25624
827.741	25620
827.88	25594
828.02	25434
828.159	25343
828.298	25533
828.437	25651
828.577	25499
828.716	25613
828.855	25476
828.994	25175
829.134	25175
829.273	25396
829.412	25270
829.551	25232
829.69	25331
829.829	25362
829.968	25304
830.107	25293
830.246	25232
830.385	25225
830.524	25110
830.663	25110
830.802	24859
830.941	24886
831.08	24867
831.219	24920
831.357	25027
831.496	25187
831.635	24920
831.774	24825
831.913	24764
832.051	24669
832.19	24734
832.329	24700
832.467	24623
832.606	24631
832.744	24551
832.883	24555
833.022	24582
833.16	24654
833.299	24719
833.437	24597
833.576	24608
833.714	24612
833.852	24703
833.991	24688
834.129	24776
834.267	24726
834.406	24661
834.544	24684
834.682	24635
834.821	24540
834.959	24802
835.097	24528
835.235	24608
835.373	24604
835.511	24509
835.65	24513
835.788	24536
835.926	24292
836.064	24232
836.202	24369
836.34	24505
836.478	24517
836.615	24536
836.753	24414
836.891	24525
837.029	24505
837.167	24502
837.305	24433
837.443	24327
837.58	24429
837.718	24330
837.856	24209
837.993	24239
838.131	24422
838.269	24167
838.406	24220
838.544	24159
838.681	23980
838.819	23908
838.956	23794
839.094	23729
839.231	23737
839.369	23863
839.506	24148
839.643	23973
839.781	23771
839.918	23554
840.055	23817
840.193	23771
840.33	23790
840.467	23649
840.604	23672
840.742	24007
840.879	23528
841.016	23543
841.153	23452
841.29	23691
841.427	23676
841.564	23821
841.701	23649
841.838	23539
841.975	23600
842.112	23604
842.249	23383
842.385	23368
842.522	23627
842.659	23353
842.796	23383
842.933	23471
843.069	23330
843.206	23277
843.343	23402
843.479	23474
843.616	23410
843.752	23174
843.889	23178
844.025	23364
844.162	23292
844.298	23197
844.435	23060
844.571	23239
844.708	23170
844.844	23444
844.98	23520
845.117	23280
845.253	23162
845.389	23132
845.525	23124
845.661	22999
845.798	22957
845.934	22938
846.07	22915
846.206	22938
846.342	23052
846.478	22930
846.614	22763
846.75	22592
846.886	22653
847.022	22687
847.158	22675
847.294	22763
847.429	22759
847.565	22672
847.701	22881
847.837	22436
847.972	22322
848.108	22493
848.244	22504
848.379	22230
848.515	22268
848.65	22261
848.786	22207
848.921	22363
849.057	22295
849.192	22325
849.328	22268
849.463	22291
849.598	22234
849.734	22120
849.869	22128
850.004	22078
850.14	22112
850.275	21972
850.41	21994
850.545	21991
850.68	21975
850.815	22051
850.95	22181
851.085	22181
851.22	22109
851.355	22025
851.49	21983
851.625	22021
851.76	22002
851.895	21998
852.03	22029
852.165	22040
852.299	22116
852.434	22124
852.569	22010
852.703	21937
852.838	21960
852.973	22090
853.107	22131
853.242	22063
853.376	21869
853.511	21755
853.645	21831
853.78	21850
853.914	21800
854.048	21808
854.183	21838
854.317	21907
854.451	21991
854.585	21831
854.72	21865
854.854	21941
854.988	21762
855.122	21743
855.256	21876
855.39	21804
855.524	21934
855.658	21869
855.792	21842
855.926	21918
856.06	21895
856.194	21994
856.327	21895
856.461	21682
856.595	21682
856.729	21873
856.862	22002
856.996	21869
857.13	21850
857.263	21869
857.397	21865
857.53	21819
857.664	22006
857.797	21850
857.931	21873
858.064	21861
858.197	21998
858.331	21918
858.464	21842
858.597	21694
858.731	21812
858.864	21800
858.997	21831
859.13	21755
859.263	21873
859.396	21907
859.529	21797
859.662	21827
859.795	21892
859.928	21915
860.061	21930
860.194	22044
860.327	21892
860.46	21884
860.592	21869
860.725	21937
860.858	21895
860.99	21835
861.123	21861
861.256	21778
861.388	21846
861.521	22451
861.653	21797
861.786	21705
861.918	21667
862.05	21793
862.183	21781
862.315	21739
862.447	21808
862.58	21701
862.712	21519
862.844	21492
862.976	21663
863.108	21618
863.24	21991
863.372	21519
863.504	21469
863.636	21538
863.768	21564
863.9	21557
864.032	21580
864.164	21591
864.296	21492
864.428	21663
864.559	21599
864.691	21644
864.823	21599
864.954	21580
865.086	21473
865.217	21412
865.349	21252
865.48	21488
865.612	21374
865.743	21492
865.875	21515
866.006	21450
866.137	21485
866.269	21272
866.4	21367
866.531	21378
866.662	21359
866.793	21351
866.924	21500
867.055	21424
867.186	21416
867.317	21260
867.448	21287
867.579	21252
867.71	21336
867.841	21233
867.972	21367
868.103	21420
868.233	21348
868.364	21416
868.495	21488
868.625	21603
868.756	21766
868.886	21485
869.017	21485
869.147	21698
869.278	21751
869.408	21694
869.539	21591
869.669	21804
869.799	21633
869.929	21705
870.06	21751
870.19	21895
870.32	22025
870.45	21854
870.58	22010
870.71	22090
870.84	22048
870.97	21991
871.1	22036
871.23	22173
871.36	22181
871.489	22147
871.619	22204
871.749	22257
871.879	22284
872.008	22436
872.138	22253
872.267	22226
872.397	22169
872.526	22040
872.656	22002
872.785	22070
872.915	22200
873.044	22314
873.173	22253
873.303	22177
873.432	22223
873.561	22287
873.69	22230
873.819	22131
873.948	22386
874.077	22276
874.206	22181
874.335	22242
874.464	22333
874.593	22379
874.722	22550
874.851	22542
874.979	22588
875.108	22500
875.237	22344
875.365	22284
875.494	22531
875.623	22512
875.751	22459
875.88	22546
876.008	22512
876.136	22634
876.265	22782
876.393	22972
876.521	23048
876.65	22934
876.778	22957
876.906	22752
877.034	22717
877.162	22694
877.29	22744
877.418	22896
877.546	22782
877.674	22885
877.802	22828
877.93	22824
878.058	22824
878.185	22691
878.313	22713
878.441	22839
878.568	22607
878.696	22847
878.824	22812
878.951	22835
879.079	23018
879.206	23079
879.333	22984
879.461	22793
879.588	22797
879.715	23090
879.842	23067
879.97	22744
880.097	22584
880.224	22645
880.351	22656
880.478	22603
880.605	22664
880.732	22618
880.859	23071
880.986	22691
881.112	22645
881.239	22443
881.366	22287
881.493	22272
881.619	22276
881.746	22272
881.872	22177
881.999	22078
882.125	22177
882.252	22219
882.378	22139
882.505	22207
882.631	22002
882.757	21895
882.883	21835
883.01	21873
883.136	21880
883.262	21793
883.388	21728
883.514	21915
883.64	21907
883.766	21823
883.892	21515
884.018	21751
884.143	21857
884.269	21983
884.395	21713
884.52	21542
884.646	21583
884.772	21515
884.897	21332
885.023	21420
885.148	21656
885.274	21648
885.399	21561
885.524	21606
885.65	21507
885.775	21439
885.9	21370
886.025	21564
886.15	21561
886.275	21408
886.4	21443
886.525	21496
886.65	21412
886.775	21504
886.9	21587
887.025	21701
887.149	21488
887.274	21408
887.399	21363
887.523	21310
887.648	21260
887.773	21302
887.897	21359
888.021	21268
888.146	21329
888.27	21412
888.395	21355
888.519	21321
888.643	21176
888.767	21214
888.891	21127
889.015	21100
889.139	21165
889.263	21020
889.387	21237
889.511	21329
889.635	21199
889.759	21112
889.883	20990
890.006	21093
890.13	21089
890.254	21066
890.377	20960
890.501	20792
890.624	20754
890.748	20861
890.871	20769
890.995	20659
891.118	20613
891.241	20693
891.364	20716
891.488	20815
891.611	20663
891.734	20552
891.857	20746
891.98	20697
892.103	20743
892.226	20621
892.349	20594
892.471	20419
892.594	20632
892.717	20632
892.839	20587
892.962	20499
893.085	20621
893.207	20480
893.33	20469
893.452	20480
893.575	20609
893.697	20454
893.819	20674
893.941	20804
894.064	20602
894.186	20495
894.308	20438
894.43	20602
894.552	20617
894.674	20621
894.796	20366
894.918	20484
895.04	20480
895.161	20663
895.283	20568
895.405	20511
895.526	20651
895.648	20469
895.769	20629
895.891	20537
896.012	20617
896.134	20648
896.255	20640
896.376	20488
896.498	20484
896.619	20598
896.74	20488
896.861	20530
896.982	20834
897.103	20921
897.224	20617
897.345	20674
897.466	20720
897.587	20743
897.708	20880
897.828	20689
897.949	20777
898.07	20564
898.19	20667
898.311	20807
898.431	20636
898.552	20746
898.672	20762
898.792	20731
898.913	20796
899.033	20689
899.153	20583
899.273	20438
899.393	20617
899.513	20499
899.633	20511
899.753	20461
899.873	20389
899.993	20507
900.113	20370
900.232	20339
900.352	20328
900.472	20286
900.591	20408
900.711	20252
900.83	20221
900.95	20434
901.069	20339
901.189	20092
901.308	20062
901.427	19818
901.546	19837
901.665	19856
901.784	19868
901.904	19807
902.023	19761
902.141	19392
902.26	19331
902.379	19506
902.498	19301
902.617	19259
902.735	19362
902.854	19316
902.973	19225
903.091	19031
903.21	19213
903.328	19015
903.446	18920
903.565	18943
903.683	18806
903.801	18749
903.919	18722
904.038	18726
904.156	18494
904.274	18673
904.392	18658
904.51	18585
904.627	18570
904.745	18631
904.863	18582
904.981	18384
905.098	18251
905.216	18232
905.334	18330
905.451	18258
905.569	18247
905.686	18308
905.803	18213
905.921	18129
906.038	18232
906.155	18102
906.272	17851
906.389	18022
906.506	17794
906.623	17874
906.74	17745
906.857	17745
906.974	17684
907.091	17874
907.208	17866
907.324	17771
907.441	17615
907.557	17490
907.674	17532
907.79	17528
907.907	17501
908.023	17570
908.139	17471
908.256	17474
908.372	17398
908.488	17372
908.604	17303
908.72	17197
908.836	17280
908.952	17147
909.068	17288
909.184	17315
909.3	17254
909.415	17280
909.531	17212
909.647	16984
909.762	16984
909.878	16968
909.993	17014
910.108	16839
910.224	16843
910.339	16892
910.454	16824
910.57	16725
910.685	16679
910.8	17014
910.915	16816
911.03	16767
911.145	16611
911.259	16592
911.374	16592
911.489	16440
911.604	16348
911.718	16322
911.833	16226
911.947	16177
912.062	16112
912.176	16318
912.291	16310
912.405	16280
912.519	16478
912.633	16466
912.748	16318
912.862	16223
912.976	16124
913.09	15945
913.204	16154
913.318	16150
913.431	16082
913.545	16234
913.659	16169
913.772	16048
913.886	15922
914	15911
914.113	16029
914.226	16002
914.34	15892
914.453	15800
914.566	15941
914.68	15789
914.793	15637
914.906	15587
915.019	15477
915.132	15462
915.245	15424
915.358	15485
915.47	15386
915.583	15488
915.696	15507
915.809	15622
915.921	15519
916.034	15466
916.146	15321
916.259	15359
916.371	15355
916.483	15405
916.595	15298
916.708	15241
916.82	15249
916.932	15321
917.044	15245
917.156	15157
917.268	15093
917.38	15135
917.491	15055
917.603	15028
917.715	15142
917.826	15173
917.938	15009
918.049	14975
918.161	15112
918.272	15135
918.384	15142
918.495	14971
918.606	14838
918.717	14811
918.828	14872
918.939	14941
919.05	14674
919.161	14937
919.272	14651
919.383	14727
919.494	14921
919.604	15036
919.715	14857
919.826	14765
919.936	14777
920.047	14883
920.157	14823
920.267	14998
920.378	14868
920.488	14689
920.598	14994
920.708	15116
920.818	14963
920.928	14952
921.038	15108
921.148	14982
921.258	14693
921.368	14735
921.477	14632
921.587	14518
921.697	14374
921.806	14575
921.916	14427
922.025	14229
922.134	14202
922.244	14130
922.353	14176
922.462	14096
922.571	13997
922.68	13913
922.789	13799
922.898	13913
923.007	13761
923.116	13746
923.224	13742
923.333	13738
923.442	13708
923.55	13559
923.659	13772
923.767	13738
923.876	13628
923.984	13689
924.092	13559
924.201	13537
924.309	13639
924.417	13552
924.525	13567
924.633	13510
924.741	14438
924.849	13324
924.956	13460
925.064	13331
925.172	13137
925.279	13198
925.387	13209
925.494	13152
925.602	13350
925.709	13221
925.816	13065
925.924	13149
926.031	13285
926.138	13156
926.245	13221
926.352	13069
926.459	13255
926.566	13198
926.673	13038
926.779	13004
926.886	12935
926.993	12905
927.099	12798
927.206	12776
927.312	12764
927.419	12745
927.525	12779
927.631	12882
927.737	12700
927.843	12631
927.95	12525
928.056	12578
928.162	12620
928.267	12631
928.373	13247
928.479	12650
928.585	12494
928.69	12544
928.796	12597
928.901	12429
929.007	12395
929.112	12471
929.218	12388
929.323	12388
929.428	12273
929.533	12551
929.638	12308
929.743	12178
929.848	12300
929.953	12262
930.058	12155
930.163	11961
930.267	12026
930.372	12087
930.477	11942
930.581	12178
930.685	12038
930.79	11923
930.894	12026
930.998	11874
931.103	11958
931.207	11638
931.311	11547
931.415	11429
931.519	11360
931.623	11250
