Data from test_V78500241_895.txt Node
Date: Fri Mar 25 15:48:00 CST 2022
User: usil
Spectrometer: V785-0024
Trigger mode: 0
Integration Time (sec): 4.000000E-1
Scans to average: 1
Nonlinearity correction enabled: false
Boxcar width: 0
Storing dark spectrum: false
XAxis mode: Wavelengths
Number of Pixels in Spectrum: 1024
>>>>>Begin Spectral Data<<<<<
801.071	28470
801.214	28375
801.356	28158
801.499	28238
801.641	27922
801.783	27922
801.926	28051
802.068	27964
802.211	27934
802.353	27888
802.496	27770
802.638	27736
802.78	27629
802.923	27580
803.065	27599
803.208	27641
803.35	27534
803.492	27694
803.635	27816
803.777	27861
803.919	27865
804.061	28329
804.204	27922
804.346	27854
804.488	27838
804.63	27934
804.773	27819
804.915	28017
805.057	27934
805.199	27911
805.341	28013
805.483	28109
805.626	28032
805.768	27899
805.91	28029
806.052	27956
806.194	27895
806.336	28261
806.478	28131
806.62	28048
806.762	28268
806.904	28386
807.046	28565
807.188	28382
807.33	28352
807.472	28542
807.614	28447
807.756	28394
807.898	28417
808.04	28215
808.182	28333
808.324	28348
808.465	28390
808.607	28668
808.749	28744
808.891	28790
809.033	28866
809.174	28767
809.316	28706
809.458	28630
809.6	28824
809.741	28892
809.883	28957
810.025	29014
810.166	29006
810.308	29022
810.45	28991
810.591	29033
810.733	28790
810.875	28831
811.016	28672
811.158	28500
811.299	28911
811.441	28995
811.582	29056
811.724	28881
811.865	28748
812.007	28710
812.148	28816
812.29	28771
812.431	28866
812.573	29029
812.714	29189
812.855	29166
812.997	29448
813.138	29547
813.279	29414
813.421	29303
813.562	29174
813.703	29094
813.845	28949
813.986	28755
814.127	28634
814.268	28531
814.41	28565
814.551	28527
814.692	28675
814.833	28424
814.974	28325
815.115	28447
815.256	28265
815.397	28295
815.539	28291
815.68	28166
815.821	28105
815.962	28394
816.103	28181
816.244	28090
816.385	28032
816.526	27953
816.666	27835
816.807	27781
816.948	27793
817.089	27926
817.23	27762
817.371	27819
817.512	27800
817.653	27808
817.793	27705
817.934	27797
818.075	27827
818.216	27781
818.356	27701
818.497	27591
818.638	27686
818.778	27363
818.919	27542
819.06	27629
819.2	27694
819.341	27660
819.481	27831
819.622	27945
819.762	28116
819.903	28070
820.043	27960
820.184	27865
820.324	27842
820.465	27937
820.605	27876
820.746	27865
820.886	27736
821.026	27937
821.167	27907
821.307	28040
821.447	27846
821.588	27663
821.728	27717
821.868	27591
822.008	27367
822.149	27306
822.289	27283
822.429	26902
822.569	26963
822.709	26998
822.849	26891
822.99	26743
823.13	26762
823.27	26617
823.41	26549
823.55	26590
823.69	26568
823.83	26495
823.97	26549
824.11	26461
824.25	26404
824.389	26385
824.529	26533
824.669	26431
824.809	26526
824.949	26511
825.089	26370
825.228	26526
825.368	26183
825.508	26252
825.648	26248
825.787	26343
825.927	26370
826.067	26313
826.206	26259
826.346	26457
826.485	26427
826.625	26214
826.765	26237
826.904	26362
827.044	26153
827.183	26153
827.323	26001
827.462	26081
827.601	26084
827.741	25909
827.88	26100
828.02	25879
828.159	25932
828.298	26107
828.437	26027
828.577	25887
828.716	26016
828.855	25879
828.994	25696
829.134	25518
829.273	25635
829.412	25655
829.551	25750
829.69	25727
829.829	25753
829.968	25791
830.107	25693
830.246	25765
830.385	25514
830.524	25521
830.663	25518
830.802	25464
830.941	25301
831.08	25274
831.219	25403
831.357	25460
831.496	25514
831.635	25247
831.774	25240
831.913	25221
832.051	25088
832.19	25118
832.329	25099
832.467	24920
832.606	24996
832.744	24913
832.883	24973
833.022	24901
833.16	24966
833.299	25023
833.437	25053
833.576	25148
833.714	24985
833.852	25072
833.991	25122
834.129	25118
834.267	25076
834.406	25053
834.544	25103
834.682	25038
834.821	24943
834.959	25164
835.097	25053
835.235	25065
835.373	24992
835.511	25129
835.65	24749
835.788	24859
835.926	24768
836.064	24688
836.202	24734
836.34	24715
836.478	24897
836.615	24867
836.753	24947
836.891	24954
837.029	24760
837.167	24696
837.305	24810
837.443	24753
837.58	24563
837.718	24806
837.856	24665
837.993	24639
838.131	24749
838.269	24589
838.406	24604
838.544	24593
838.681	24376
838.819	24270
838.956	24224
839.094	24102
839.231	24228
839.369	24403
839.506	24486
839.643	24452
839.781	24110
839.918	24098
840.055	24136
840.193	24155
840.33	24095
840.467	24136
840.604	24243
840.742	24391
840.879	24057
841.016	23920
841.153	23965
841.29	24239
841.427	24194
841.564	24091
841.701	24026
841.838	24091
841.975	23916
842.112	23958
842.249	23931
842.385	23859
842.522	24072
842.659	23916
842.796	23771
842.933	23859
843.069	23752
843.206	23783
843.343	23870
843.479	23828
843.616	23866
843.752	23661
843.889	23627
844.025	23745
844.162	23668
844.298	23707
844.435	23524
844.571	23512
844.708	23668
844.844	23840
844.98	23745
845.117	23798
845.253	23493
845.389	23570
845.525	23520
845.661	23436
845.798	23337
845.934	23436
846.07	23246
846.206	23452
846.342	23463
846.478	23299
846.614	23181
846.75	23060
846.886	23048
847.022	23151
847.158	23033
847.294	23079
847.429	23178
847.565	23041
847.701	23379
847.837	22847
847.972	22828
848.108	22873
848.244	22892
848.379	22793
848.515	22668
848.65	22634
848.786	22752
848.921	22733
849.057	22812
849.192	22767
849.328	22687
849.463	22752
849.598	22569
849.734	22607
849.869	22672
850.004	22535
850.14	22459
850.275	22424
850.41	22284
850.545	22261
850.68	22299
850.815	22432
850.95	22474
851.085	22592
851.22	22554
851.355	22481
851.49	22306
851.625	22341
851.76	22417
851.895	22402
852.03	22382
852.165	22535
852.299	22508
852.434	22493
852.569	22375
852.703	22390
852.838	22504
852.973	22542
853.107	22424
853.242	22470
853.376	22223
853.511	22234
853.645	22082
853.78	22352
853.914	22219
854.048	22329
854.183	22226
854.317	22234
854.451	22523
854.585	22196
854.72	22139
854.854	22310
854.988	22204
855.122	22238
855.256	22238
855.39	22291
855.524	22375
855.658	22348
855.792	22196
855.926	22253
856.06	22257
856.194	22291
856.327	22226
856.461	22128
856.595	22154
856.729	22158
856.862	22352
856.996	22268
857.13	22409
857.263	22306
857.397	22291
857.53	22322
857.664	22318
857.797	22398
857.931	22268
858.064	22249
858.197	22341
858.331	22284
858.464	22070
858.597	22177
858.731	22265
858.864	22105
858.997	22272
859.13	22306
859.263	22303
859.396	22344
859.529	22276
859.662	22242
859.795	22272
859.928	22337
860.061	22375
860.194	22405
860.327	22238
860.46	22166
860.592	22322
860.725	22447
860.858	22394
860.99	22337
861.123	22124
861.256	22105
861.388	22299
861.521	22915
861.653	22166
861.786	22109
861.918	22029
862.05	22128
862.183	22226
862.315	22215
862.447	22211
862.58	22101
862.712	22055
862.844	21930
862.976	22078
863.108	21998
863.24	22303
863.372	21937
863.504	21937
863.636	21861
863.768	21979
863.9	21972
864.032	21979
864.164	21922
864.296	21827
864.428	22063
864.559	22025
864.691	21915
864.823	21884
864.954	21975
865.086	21987
865.217	21778
865.349	21694
865.48	21926
865.612	21759
865.743	21968
865.875	21899
866.006	21755
866.137	21964
866.269	21895
866.4	21816
866.531	21774
866.662	21675
866.793	21812
866.924	21808
867.055	21759
867.186	21751
867.317	21724
867.448	21667
867.579	21679
867.71	21652
867.841	21660
867.972	21660
868.103	21618
868.233	21778
868.364	21812
868.495	21816
868.625	21941
868.756	22154
868.886	21945
869.017	21987
869.147	22143
869.278	22154
869.408	22025
869.539	22044
869.669	22150
869.799	22059
869.929	22128
870.06	22074
870.19	22204
870.32	22352
870.45	22306
870.58	22424
870.71	22535
870.84	22550
870.97	22443
871.1	22386
871.23	22580
871.36	22577
871.489	22462
871.619	22478
871.749	22664
871.879	22573
872.008	22691
872.138	22527
872.267	22721
872.397	22329
872.526	22371
872.656	22363
872.785	22417
872.915	22649
873.044	22736
873.173	22637
873.303	22618
873.432	22706
873.561	22759
873.69	22584
873.819	22580
873.948	22729
874.077	22637
874.206	22592
874.335	22588
874.464	22512
874.593	22904
874.722	22759
874.851	22892
874.979	22847
875.108	22923
875.237	22717
875.365	22786
875.494	22713
875.623	22908
875.751	22717
875.88	22816
876.008	22911
876.136	22965
876.265	23204
876.393	23356
876.521	23288
876.65	23345
876.778	23242
876.906	23231
877.034	23025
877.162	23185
877.29	23079
877.418	23204
877.546	23204
877.674	23159
877.802	23239
877.93	23200
878.058	23178
878.185	22999
878.313	23075
878.441	23151
878.568	23064
878.696	23220
878.824	23242
878.951	23292
879.079	23292
879.206	23482
879.333	23353
879.461	23117
879.588	23273
879.715	23417
879.842	23520
879.97	23204
880.097	22839
880.224	22976
880.351	22968
880.478	22984
880.605	23018
880.732	22889
880.859	23159
880.986	22904
881.112	23029
881.239	22911
881.366	22736
881.493	22603
881.619	22565
881.746	22664
881.872	22497
881.999	22466
882.125	22485
882.252	22634
882.378	22603
882.505	22656
882.631	22451
882.757	22185
882.883	22318
883.01	22341
883.136	22207
883.262	21979
883.388	22010
883.514	22291
883.64	22280
883.766	22147
883.892	21865
884.018	22040
884.143	22238
884.269	22105
884.395	21888
884.52	21778
884.646	21975
884.772	21800
884.897	21827
885.023	21915
885.148	21911
885.274	22048
885.399	21968
885.524	21869
885.65	21907
885.775	21876
885.9	21743
886.025	21869
886.15	21892
886.275	21827
886.4	21759
886.525	21831
886.65	21911
886.775	21823
886.9	21892
887.025	22036
887.149	21846
887.274	21614
887.399	21709
887.523	21629
887.648	21675
887.773	21523
887.897	21656
888.021	21610
888.146	21568
888.27	21724
888.395	21690
888.519	21701
888.643	21629
888.767	21709
888.891	21507
889.015	21348
889.139	21488
889.263	21355
889.387	21504
889.511	21576
889.635	21496
889.759	21393
889.883	21389
890.006	21416
890.13	21526
890.254	21340
890.377	21310
890.501	21123
890.624	21161
890.748	21222
890.871	20986
890.995	20990
891.118	20876
891.241	20998
891.364	21028
891.488	21070
891.611	20982
891.734	21005
891.857	21039
891.98	21058
892.103	20933
892.226	20921
892.349	20891
892.471	20830
892.594	20800
892.717	20918
892.839	20788
892.962	20914
893.085	20906
893.207	20906
893.33	20796
893.452	20788
893.575	20868
893.697	20788
893.819	21070
893.941	21055
894.064	20872
894.186	20823
894.308	20826
894.43	20929
894.552	20994
894.674	20906
894.796	20769
894.918	20796
895.04	20807
895.161	20998
895.283	20815
895.405	20754
895.526	20815
895.648	20796
895.769	20910
895.891	20902
896.012	20872
896.134	20830
896.255	20929
896.376	20849
896.498	20883
896.619	20823
896.74	20891
896.861	20773
896.982	21264
897.103	21169
897.224	21081
897.345	21077
897.466	20899
897.587	21116
897.708	21089
897.828	21074
897.949	21081
898.07	20937
898.19	20891
898.311	21135
898.431	20998
898.552	21119
898.672	21066
898.792	21077
898.913	21039
899.033	20944
899.153	20982
899.273	20697
899.393	20834
899.513	20819
899.633	20796
899.753	20826
899.873	20655
899.993	20746
900.113	20735
900.232	20891
900.352	20625
900.472	20629
900.591	20636
900.711	20590
900.83	20408
900.95	20697
901.069	20678
901.189	20457
901.308	20142
901.427	20111
901.546	20183
901.665	20161
901.784	20069
901.904	19978
902.023	19925
902.141	19723
902.26	19666
902.379	19685
902.498	19677
902.617	19578
902.735	19594
902.854	19613
902.973	19537
903.091	19266
903.21	19312
903.328	19339
903.446	19160
903.565	19118
903.683	19012
903.801	18894
903.919	19148
904.038	18962
904.156	18928
904.274	18916
904.392	18741
904.51	18840
904.627	18745
904.745	18939
904.863	18958
904.981	18696
905.098	18532
905.216	18460
905.334	18540
905.451	18528
905.569	18441
905.686	18517
905.803	18490
905.921	18270
906.038	18395
906.155	18292
906.272	18235
906.389	18262
906.506	18114
906.623	18072
906.74	18049
906.857	17901
906.974	17942
907.091	18095
907.208	18121
907.324	18125
907.441	18015
907.557	17882
907.674	17718
907.79	17756
907.907	17809
908.023	17771
908.139	17767
908.256	17699
908.372	17684
908.488	17672
908.604	17436
908.72	17444
908.836	17455
908.952	17459
909.068	17417
909.184	17619
909.3	17444
909.415	17414
909.531	17459
909.647	17254
909.762	17140
909.878	17204
909.993	17197
910.108	17128
910.224	17170
910.339	17197
910.454	17098
910.57	17052
910.685	16972
910.8	17166
910.915	17143
911.03	16866
911.145	16759
911.259	16702
911.374	16702
911.489	16748
911.604	16687
911.718	16596
911.833	16489
911.947	16421
912.062	16379
912.176	16531
912.291	16519
912.405	16451
912.519	16748
912.633	16694
912.748	16466
912.862	16550
912.976	16360
913.09	16249
913.204	16306
913.318	16348
913.431	16409
913.545	16493
913.659	16394
913.772	16348
913.886	16063
914	16109
914.113	16215
914.226	16135
914.34	16158
914.453	16002
914.566	16105
914.68	15987
914.793	15857
914.906	15732
915.019	15675
915.132	15743
915.245	15686
915.358	15682
915.47	15713
915.583	15660
915.696	15762
915.809	15884
915.921	15781
916.034	15599
916.146	15534
916.259	15580
916.371	15641
916.483	15660
916.595	15488
916.708	15538
916.82	15500
916.932	15431
917.044	15439
917.156	15622
917.268	15313
917.38	15389
917.491	15241
917.603	15332
917.715	15317
917.826	15336
917.938	15268
918.049	15093
918.161	15264
918.272	15481
918.384	15329
918.495	15249
918.606	15188
918.717	15127
918.828	15081
918.939	15055
919.05	15062
919.161	15089
919.272	14762
919.383	14914
919.494	15123
919.604	15279
919.715	15036
919.826	14937
919.936	15001
920.047	15123
920.157	15001
920.267	15173
920.378	15047
920.488	14861
920.598	15226
920.708	15241
920.818	15116
920.928	15108
921.038	15359
921.148	15252
921.258	15009
921.368	14906
921.477	14750
921.587	14701
921.697	14644
921.806	14861
921.916	14693
922.025	14469
922.134	14438
922.244	14355
922.353	14450
922.462	14248
922.571	14145
922.68	13978
922.789	14016
922.898	13974
923.007	13947
923.116	14031
923.224	13963
923.333	13913
923.442	13845
923.55	13822
923.659	13879
923.767	13795
923.876	13772
923.984	13845
924.092	13746
924.201	13772
924.309	13708
924.417	13723
924.525	13670
924.633	13685
924.741	14621
924.849	13510
924.956	13548
925.064	13354
925.172	13285
925.279	13373
925.387	13445
925.494	13434
925.602	13506
925.709	13495
925.816	13236
925.924	13293
926.031	13441
926.138	13362
926.245	13396
926.352	13320
926.459	13373
926.566	13407
926.673	13255
926.779	13145
926.886	13091
926.993	13008
927.099	13061
927.206	12935
927.312	12920
927.419	12932
927.525	12947
927.631	13046
927.737	12837
927.843	12859
927.95	12642
928.056	12825
928.162	12692
928.267	12863
928.373	13301
928.479	12764
928.585	12620
928.69	12776
928.796	12787
928.901	12642
929.007	12566
929.112	12601
929.218	12620
929.323	12555
929.428	12445
929.533	12578
929.638	12429
929.743	12414
929.848	12448
929.953	12407
930.058	12300
930.163	12125
930.267	12213
930.372	12277
930.477	12117
930.581	12338
930.685	12186
930.79	12060
930.894	12114
930.998	11973
931.103	12057
931.207	11695
931.311	11691
931.415	11615
931.519	11372
931.623	11349
