Data from test_V78500241_1089.txt Node
Date: Fri Mar 25 15:49:20 CST 2022
User: usil
Spectrometer: V785-0024
Trigger mode: 0
Integration Time (sec): 4.000000E-1
Scans to average: 1
Nonlinearity correction enabled: false
Boxcar width: 0
Storing dark spectrum: false
XAxis mode: Wavelengths
Number of Pixels in Spectrum: 1024
>>>>>Begin Spectral Data<<<<<
801.071	28565
801.214	28573
801.356	28192
801.499	28188
801.641	28192
801.783	28116
801.926	28226
802.068	28154
802.211	27907
802.353	27949
802.496	27781
802.638	27663
802.78	27774
802.923	27675
803.065	27743
803.208	27717
803.35	27728
803.492	27869
803.635	28040
803.777	27819
803.919	27983
804.061	28200
804.204	28036
804.346	28021
804.488	27865
804.63	28055
804.773	27804
804.915	27937
805.057	28226
805.199	27991
805.341	28029
805.483	28177
805.626	28040
805.768	28067
805.91	27876
806.052	28101
806.194	28040
806.336	28223
806.478	28166
806.62	28215
806.762	28322
806.904	28386
807.046	28557
807.188	28516
807.33	28493
807.472	28706
807.614	28481
807.756	28466
807.898	28440
808.04	28379
808.182	28428
808.324	28276
808.465	28546
808.607	28820
808.749	28748
808.891	28843
809.033	29003
809.174	28911
809.316	28816
809.458	28752
809.6	28687
809.741	28942
809.883	28965
810.025	29113
810.166	29162
810.308	29132
810.45	29029
810.591	29037
810.733	28831
810.875	28831
811.016	28637
811.158	28535
811.299	29033
811.441	29071
811.582	28896
811.724	28843
811.865	28866
812.007	28725
812.148	28972
812.29	29025
812.431	29003
812.573	29151
812.714	29242
812.855	29337
812.997	29535
813.138	29600
813.279	29619
813.421	29448
813.562	29280
813.703	29208
813.845	29109
813.986	28919
814.127	28801
814.268	28459
814.41	28478
814.551	28474
814.692	28470
814.833	28500
814.974	28538
815.115	28554
815.256	28481
815.397	28405
815.539	28375
815.68	28196
815.821	28367
815.962	28352
816.103	28424
816.244	28192
816.385	28188
816.526	28010
816.666	27922
816.807	27831
816.948	27956
817.089	27903
817.23	27835
817.371	27895
817.512	27785
817.653	27857
817.793	27945
817.934	27682
818.075	27903
818.216	27789
818.356	27945
818.497	27637
818.638	27618
818.778	27595
818.919	27808
819.06	27606
819.2	27762
819.341	27816
819.481	27911
819.622	27930
819.762	28322
819.903	28074
820.043	28135
820.184	27884
820.324	28097
820.465	28006
820.605	27953
820.746	27899
820.886	27739
821.026	28013
821.167	28010
821.307	28017
821.447	27956
821.588	27873
821.728	27701
821.868	27431
822.008	27359
822.149	27564
822.289	27351
822.429	27085
822.569	27081
822.709	27043
822.849	26861
822.99	26739
823.13	26864
823.27	26746
823.41	26739
823.55	26537
823.69	26693
823.83	26746
823.97	26663
824.11	26617
824.25	26469
824.389	26446
824.529	26602
824.669	26473
824.809	26705
824.949	26514
825.089	26522
825.228	26507
825.368	26396
825.508	26351
825.648	26294
825.787	26317
825.927	26465
826.067	26358
826.206	26259
826.346	26412
826.485	26537
826.625	26431
826.765	26377
826.904	26499
827.044	26176
827.183	26058
827.323	26058
827.462	26088
827.601	26008
827.741	26039
827.88	26130
828.02	25955
828.159	25883
828.298	26100
828.437	26282
828.577	25986
828.716	26195
828.855	26054
828.994	25799
829.134	25712
829.273	25860
829.412	25689
829.551	25727
829.69	25757
829.829	25818
829.968	25883
830.107	25750
830.246	25769
830.385	25712
830.524	25639
830.663	25590
830.802	25506
830.941	25419
831.08	25384
831.219	25434
831.357	25495
831.496	25670
831.635	25438
831.774	25270
831.913	25198
832.051	25217
832.19	25228
832.329	25190
832.467	25061
832.606	24989
832.744	24935
832.883	24932
833.022	25015
833.16	25015
833.299	25027
833.437	25008
833.576	25076
833.714	25160
833.852	25053
833.991	25122
834.129	25202
834.267	25171
834.406	25038
834.544	25107
834.682	25183
834.821	25015
834.959	25331
835.097	25126
835.235	25034
835.373	25103
835.511	25019
835.65	24992
835.788	24939
835.926	24856
836.064	24837
836.202	24700
836.34	24905
836.478	25012
836.615	24943
836.753	24962
836.891	24947
837.029	24935
837.167	24757
837.305	24817
837.443	24890
837.58	24840
837.718	24810
837.856	24783
837.993	24688
838.131	24768
838.269	24601
838.406	24722
838.544	24665
838.681	24369
838.819	24380
838.956	24083
839.094	24289
839.231	24330
839.369	24429
839.506	24578
839.643	24452
839.781	24296
839.918	24258
840.055	24228
840.193	24205
840.33	24174
840.467	24038
840.604	24311
840.742	24441
840.879	24015
841.016	24136
841.153	24076
841.29	24342
841.427	24110
841.564	24182
841.701	23988
841.838	24015
841.975	23942
842.112	24095
842.249	23939
842.385	23965
842.522	24049
842.659	23984
842.796	23882
842.933	23931
843.069	23779
843.206	23805
843.343	23870
843.479	23973
843.616	23889
843.752	23805
843.889	23737
844.025	23882
844.162	23764
844.298	23737
844.435	23657
844.571	23630
844.708	23710
844.844	23718
844.98	23756
845.117	23794
845.253	23604
845.389	23520
845.525	23570
845.661	23501
845.798	23402
845.934	23482
846.07	23254
846.206	23512
846.342	23444
846.478	23345
846.614	23121
846.75	23083
846.886	23098
847.022	23178
847.158	23132
847.294	23216
847.429	23189
847.565	23181
847.701	23284
847.837	22839
847.972	22919
848.108	22900
848.244	22934
848.379	22664
848.515	22694
848.65	22615
848.786	22725
848.921	22767
849.057	22900
849.192	22736
849.328	22702
849.463	22683
849.598	22710
849.734	22603
849.869	22668
850.004	22596
850.14	22523
850.275	22462
850.41	22344
850.545	22489
850.68	22535
850.815	22493
850.95	22390
851.085	22630
851.22	22618
851.355	22554
851.49	22615
851.625	22466
851.76	22493
851.895	22386
852.03	22417
852.165	22596
852.299	22569
852.434	22470
852.569	22455
852.703	22424
852.838	22493
852.973	22577
853.107	22641
853.242	22432
853.376	22341
853.511	22192
853.645	22215
853.78	22508
853.914	22333
854.048	22261
854.183	22253
854.317	22207
854.451	22443
854.585	22322
854.72	22310
854.854	22352
854.988	22261
855.122	22276
855.256	22219
855.39	22280
855.524	22432
855.658	22291
855.792	22230
855.926	22261
856.06	22234
856.194	22382
856.327	22204
856.461	22272
856.595	22223
856.729	22268
856.862	22402
856.996	22402
857.13	22508
857.263	22390
857.397	22386
857.53	22287
857.664	22325
857.797	22348
857.931	22371
858.064	22421
858.197	22360
858.331	22299
858.464	22188
858.597	22177
858.731	22314
858.864	22135
858.997	22192
859.13	22188
859.263	22421
859.396	22474
859.529	22253
859.662	22215
859.795	22162
859.928	22341
860.061	22512
860.194	22417
860.327	22394
860.46	22181
860.592	22405
860.725	22489
860.858	22459
860.99	22360
861.123	22360
861.256	22196
861.388	22306
861.521	22995
861.653	22162
861.786	22086
861.918	22234
862.05	22044
862.183	22268
862.315	22116
862.447	22352
862.58	22207
862.712	21903
862.844	21991
862.976	22192
863.108	22154
863.24	22542
863.372	22051
863.504	21968
863.636	22086
863.768	21991
863.9	22010
864.032	21926
864.164	21998
864.296	22032
864.428	22128
864.559	22044
864.691	22055
864.823	21956
864.954	22067
865.086	22036
865.217	21972
865.349	21804
865.48	21892
865.612	21857
865.743	22029
865.875	22002
866.006	21751
866.137	21873
866.269	21819
866.4	21945
866.531	21827
866.662	21819
866.793	21869
866.924	21747
867.055	21774
867.186	21854
867.317	21736
867.448	21736
867.579	21751
867.71	21724
867.841	21766
867.972	21838
868.103	21736
868.233	21838
868.364	21915
868.495	21975
868.625	21960
868.756	22173
868.886	22013
869.017	22131
869.147	22017
869.278	22082
869.408	22086
869.539	21994
869.669	22055
869.799	22078
869.929	22090
870.06	22120
870.19	22314
870.32	22329
870.45	22405
870.58	22379
870.71	22508
870.84	22478
870.97	22390
871.1	22478
871.23	22554
871.36	22630
871.489	22626
871.619	22550
871.749	22577
871.879	22649
872.008	22683
872.138	22611
872.267	22569
872.397	22554
872.526	22367
872.656	22485
872.785	22409
872.915	22622
873.044	22774
873.173	22611
873.303	22801
873.432	22816
873.561	22752
873.69	22645
873.819	22523
873.948	22771
874.077	22618
874.206	22630
874.335	22744
874.464	22653
874.593	22900
874.722	22805
874.851	22877
874.979	22748
875.108	23003
875.237	22820
875.365	22812
875.494	22858
875.623	22949
875.751	22850
875.88	23014
876.008	23098
876.136	23166
876.265	23239
876.393	23372
876.521	23372
876.65	23425
876.778	23280
876.906	23337
877.034	23102
877.162	23132
877.29	23098
877.418	23151
877.546	23364
877.674	23235
877.802	23185
877.93	23231
878.058	23121
878.185	23121
878.313	23147
878.441	23102
878.568	22980
878.696	23178
878.824	23193
878.951	23337
879.079	23341
879.206	23455
879.333	23349
879.461	23140
879.588	23303
879.715	23376
879.842	23448
879.97	23299
880.097	23109
880.224	23022
880.351	23064
880.478	23006
880.605	23003
880.732	23083
880.859	23337
880.986	23204
881.112	23033
881.239	22919
881.366	22812
881.493	22664
881.619	22557
881.746	22538
881.872	22565
881.999	22554
882.125	22421
882.252	22561
882.378	22611
882.505	22653
882.631	22428
882.757	22265
882.883	22459
883.01	22295
883.136	22219
883.262	22219
883.388	22204
883.514	22204
883.64	22333
883.766	22261
883.892	22032
884.018	21968
884.143	22226
884.269	22242
884.395	22048
884.52	21876
884.646	21903
884.772	21911
884.897	21804
885.023	21922
885.148	21941
885.274	22158
885.399	22025
885.524	21911
885.65	21926
885.775	22032
885.9	21918
886.025	22044
886.15	21968
886.275	21785
886.4	21762
886.525	21816
886.65	21873
886.775	21861
886.9	21945
887.025	22078
887.149	22002
887.274	21804
887.399	21694
887.523	21713
887.648	21614
887.773	21660
887.897	21793
888.021	21713
888.146	21622
888.27	21686
888.395	21762
888.519	21694
888.643	21698
888.767	21774
888.891	21511
889.015	21515
889.139	21599
889.263	21473
889.387	21568
889.511	21610
889.635	21523
889.759	21405
889.883	21466
890.006	21424
890.13	21610
890.254	21500
890.377	21492
890.501	21283
890.624	21291
890.748	21169
890.871	21195
890.995	20929
891.118	20952
891.241	21028
891.364	20998
891.488	21203
891.611	21055
891.734	20990
891.857	21024
891.98	21020
892.103	21043
892.226	21013
892.349	20967
892.471	20811
892.594	21005
892.717	20948
892.839	20902
892.962	21009
893.085	21032
893.207	20921
893.33	20895
893.452	20777
893.575	21043
893.697	20937
893.819	21074
893.941	21005
894.064	21074
894.186	20826
894.308	20906
894.43	21032
894.552	21005
894.674	21032
894.796	20849
894.918	20895
895.04	21001
895.161	20929
895.283	20842
895.405	20933
895.526	20952
895.648	20941
895.769	20963
895.891	20857
896.012	20960
896.134	21009
896.255	20880
896.376	20769
896.498	20944
896.619	20975
896.74	20899
896.861	20960
896.982	21226
897.103	21321
897.224	21195
897.345	21195
897.466	21096
897.587	21146
897.708	21222
897.828	21169
897.949	21108
898.07	20918
898.19	21036
898.311	21176
898.431	21074
898.552	21028
898.672	21150
898.792	21203
898.913	21142
899.033	20979
899.153	20834
899.273	20864
899.393	20823
899.513	20876
899.633	20781
899.753	20857
899.873	20785
899.993	20819
900.113	20758
900.232	20872
900.352	20804
900.472	20617
900.591	20507
900.711	20651
900.83	20678
900.95	20632
901.069	20864
901.189	20446
901.308	20278
901.427	20214
901.546	20180
901.665	20172
901.784	20225
901.904	20119
902.023	19947
902.141	19685
902.26	19784
902.379	19765
902.498	19712
902.617	19685
902.735	19734
902.854	19715
902.973	19556
903.091	19354
903.21	19339
903.328	19384
903.446	19198
903.565	19221
903.683	19263
903.801	18981
903.919	19160
904.038	19179
904.156	18878
904.274	19179
904.392	18856
904.51	18783
904.627	18867
904.745	18905
904.863	18973
904.981	18749
905.098	18513
905.216	18479
905.334	18642
905.451	18627
905.569	18608
905.686	18532
905.803	18547
905.921	18357
906.038	18578
906.155	18441
906.272	18338
906.389	18319
906.506	18148
906.623	18098
906.74	18072
906.857	17958
906.974	18079
907.091	18136
907.208	18228
907.324	18167
907.441	17999
907.557	17805
907.674	17859
907.79	17714
907.907	17840
908.023	17832
908.139	17893
908.256	17832
908.372	17680
908.488	17676
908.604	17600
908.72	17619
908.836	17554
908.952	17512
909.068	17486
909.184	17657
909.3	17543
909.415	17570
909.531	17585
909.647	17288
909.762	17311
909.878	17227
909.993	17277
910.108	17197
910.224	17162
910.339	17170
910.454	17037
910.57	17124
910.685	16976
910.8	17189
910.915	17265
911.03	16984
911.145	16999
911.259	16786
911.374	16809
911.489	16740
911.604	16664
911.718	16497
911.833	16561
911.947	16398
912.062	16459
912.176	16561
912.291	16550
912.405	16561
912.519	16744
912.633	16843
912.748	16618
912.862	16531
912.976	16459
913.09	16322
913.204	16257
913.318	16265
913.431	16379
913.545	16390
913.659	16436
913.772	16268
913.886	16086
914	16188
914.113	16219
914.226	16314
914.34	16169
914.453	16120
914.566	16169
914.68	16013
914.793	15964
914.906	15774
915.019	15861
915.132	15736
915.245	15781
915.358	15812
915.47	15701
915.583	15770
915.696	15739
915.809	15884
915.921	15846
916.034	15724
916.146	15667
916.259	15686
916.371	15816
916.483	15720
916.595	15568
916.708	15584
916.82	15622
916.932	15553
917.044	15504
917.156	15492
917.268	15325
917.38	15405
917.491	15325
917.603	15382
917.715	15420
917.826	15538
917.938	15370
918.049	15222
918.161	15260
918.272	15443
918.384	15439
918.495	15313
918.606	15165
918.717	15009
918.828	15074
918.939	15180
919.05	14941
919.161	15100
919.272	14921
919.383	15017
919.494	15104
919.604	15370
919.715	15116
919.826	14986
919.936	15017
920.047	15093
920.157	15055
920.267	15283
920.378	15093
920.488	15001
920.598	15249
920.708	15310
920.818	15298
920.928	15184
921.038	15291
921.148	15408
921.258	14975
921.368	14925
921.477	14819
921.587	14811
921.697	14758
921.806	14887
921.916	14708
922.025	14492
922.134	14408
922.244	14374
922.353	14343
922.462	14320
922.571	14221
922.68	14111
922.789	14145
922.898	13982
923.007	14107
923.116	14039
923.224	14081
923.333	14153
923.442	13917
923.55	13890
923.659	13921
923.767	13947
923.876	13864
923.984	13978
924.092	13818
924.201	13776
924.309	13791
924.417	13704
924.525	13826
924.633	13772
924.741	14488
924.849	13483
924.956	13693
925.064	13445
925.172	13384
925.279	13491
925.387	13464
925.494	13403
925.602	13537
925.709	13396
925.816	13346
925.924	13373
926.031	13487
926.138	13327
926.245	13460
926.352	13324
926.459	13392
926.566	13392
926.673	13369
926.779	13194
926.886	13149
926.993	13061
927.099	13057
927.206	13065
927.312	12886
927.419	12989
927.525	13057
927.631	13065
927.737	12943
927.843	12817
927.95	12700
928.056	12745
928.162	12909
928.267	12932
928.373	13419
928.479	12848
928.585	12692
928.69	12821
928.796	12821
928.901	12646
929.007	12578
929.112	12635
929.218	12620
929.323	12582
929.428	12490
929.533	12658
929.638	12460
929.743	12513
929.848	12578
929.953	12426
930.058	12437
930.163	12144
930.267	12315
930.372	12376
930.477	12171
930.581	12388
930.685	12247
930.79	12159
930.894	12098
930.998	12030
931.103	12152
931.207	11870
931.311	11764
931.415	11668
931.519	11520
931.623	11486
