Data from test_V78500241_3270.txt Node
Date: Fri Mar 25 16:04:27 CST 2022
User: usil
Spectrometer: V785-0024
Trigger mode: 0
Integration Time (sec): 4.000000E-1
Scans to average: 1
Nonlinearity correction enabled: false
Boxcar width: 0
Storing dark spectrum: false
XAxis mode: Wavelengths
Number of Pixels in Spectrum: 1024
>>>>>Begin Spectral Data<<<<<
801.071	27934
801.214	27941
801.356	27819
801.499	27713
801.641	27583
801.783	27572
801.926	27728
802.068	27496
802.211	27439
802.353	27542
802.496	27291
802.638	27370
802.78	27169
802.923	27272
803.065	27157
803.208	27169
803.35	27188
803.492	27382
803.635	27427
803.777	27351
803.919	27363
804.061	27717
804.204	27519
804.346	27443
804.488	27378
804.63	27378
804.773	27367
804.915	27534
805.057	27462
805.199	27435
805.341	27599
805.483	27622
805.626	27534
805.768	27599
805.91	27641
806.052	27770
806.194	27462
806.336	27743
806.478	27564
806.62	27629
806.762	27671
806.904	27800
807.046	28051
807.188	27930
807.33	28036
807.472	28036
807.614	27865
807.756	28093
807.898	27865
808.04	27816
808.182	27747
808.324	27918
808.465	27846
808.607	28093
808.749	28215
808.891	28375
809.033	28428
809.174	28371
809.316	28219
809.458	28192
809.6	28272
809.741	28329
809.883	28299
810.025	28447
810.166	28478
810.308	28493
810.45	28470
810.591	28413
810.733	28356
810.875	28325
811.016	28257
811.158	28021
811.299	28272
811.441	28516
811.582	28352
811.724	28363
811.865	28109
812.007	28116
812.148	28276
812.29	28196
812.431	28428
812.573	28443
812.714	28569
812.855	28691
812.997	28752
813.138	28995
813.279	28927
813.421	28847
813.562	28782
813.703	28512
813.845	28474
813.986	28185
814.127	28097
814.268	27819
814.41	27873
814.551	28021
814.692	28025
814.833	27945
814.974	27899
815.115	27819
815.256	27842
815.397	27774
815.539	27732
815.68	27675
815.821	27618
815.962	27774
816.103	27652
816.244	27610
816.385	27675
816.526	27329
816.666	27317
816.807	27146
816.948	27363
817.089	27302
817.23	27192
817.371	27279
817.512	27112
817.653	27176
817.793	27116
817.934	27173
818.075	27233
818.216	27294
818.356	27184
818.497	27070
818.638	26918
818.778	26956
818.919	27051
819.06	26952
819.2	27104
819.341	27214
819.481	27154
819.622	27370
819.762	27488
819.903	27435
820.043	27256
820.184	27340
820.324	27272
820.465	27260
820.605	27393
820.746	27435
820.886	27146
821.026	27199
821.167	27180
821.307	27351
821.447	27180
821.588	27135
821.728	27043
821.868	26902
822.008	26750
822.149	26769
822.289	26743
822.429	26461
822.569	26355
822.709	26320
822.849	26248
822.99	26214
823.13	26161
823.27	26100
823.41	26084
823.55	25909
823.69	26005
823.83	25963
823.97	25928
824.11	25776
824.25	25761
824.389	25795
824.529	25947
824.669	25947
824.809	25970
824.949	25936
825.089	25928
825.228	25795
825.368	25666
825.508	25746
825.648	25799
825.787	25757
825.927	25708
826.067	25567
826.206	25632
826.346	25753
826.485	25639
826.625	25693
826.765	25647
826.904	25582
827.044	25502
827.183	25274
827.323	25346
827.462	25464
827.601	25392
827.741	25495
827.88	25491
828.02	25301
828.159	25479
828.298	25529
828.437	25331
828.577	25316
828.716	25521
828.855	25289
828.994	25050
829.134	25080
829.273	25164
829.412	25031
829.551	25209
829.69	24962
829.829	25194
829.968	25152
830.107	25145
830.246	25213
830.385	25069
830.524	25065
830.663	25027
830.802	24867
830.941	24730
831.08	24570
831.219	24681
831.357	24783
831.496	24962
831.635	24635
831.774	24681
831.913	24521
832.051	24532
832.19	24604
832.329	24559
832.467	24426
832.606	24277
832.744	24277
832.883	24498
833.022	24414
833.16	24247
833.299	24418
833.437	24319
833.576	24601
833.714	24490
833.852	24521
833.991	24574
834.129	24631
834.267	24490
834.406	24540
834.544	24471
834.682	24433
834.821	24475
834.959	24604
835.097	24403
835.235	24460
835.373	24334
835.511	24467
835.65	24319
835.788	24292
835.926	24209
836.064	24064
836.202	24049
836.34	24258
836.478	24399
836.615	24315
836.753	24296
836.891	24327
837.029	24308
837.167	24239
837.305	24304
837.443	24159
837.58	24216
837.718	24243
837.856	24144
837.993	24117
838.131	24152
838.269	24045
838.406	24060
838.544	23874
838.681	23832
838.819	23745
838.956	23592
839.094	23471
839.231	23562
839.369	23748
839.506	24091
839.643	23756
839.781	23615
839.918	23478
840.055	23543
840.193	23615
840.33	23463
840.467	23383
840.604	23589
840.742	23699
840.879	23467
841.016	23292
841.153	23334
841.29	23573
841.427	23429
841.564	23440
841.701	23551
841.838	23467
841.975	23360
842.112	23322
842.249	23288
842.385	23212
842.522	23608
842.659	23299
842.796	23395
842.933	23288
843.069	23235
843.206	23060
843.343	23269
843.479	23212
843.616	23227
843.752	23155
843.889	22991
844.025	23216
844.162	22984
844.298	23151
844.435	23102
844.571	22999
844.708	23151
844.844	23067
844.98	23220
845.117	23147
845.253	22984
845.389	22934
845.525	22862
845.661	22820
845.798	22664
845.934	22790
846.07	22656
846.206	22744
846.342	22923
846.478	22854
846.614	22710
846.75	22348
846.886	22577
847.022	22637
847.158	22626
847.294	22504
847.429	22561
847.565	22356
847.701	22721
847.837	22207
847.972	22158
848.108	22257
848.244	22242
848.379	22185
848.515	22048
848.65	22006
848.786	22177
848.921	22109
849.057	22055
849.192	22223
849.328	22013
849.463	22074
849.598	22036
849.734	21918
849.869	21956
850.004	21842
850.14	21876
850.275	21823
850.41	21789
850.545	21766
850.68	21705
850.815	21915
850.95	21793
851.085	22010
851.22	21895
851.355	21892
851.49	21854
851.625	21793
851.76	21778
851.895	21804
852.03	21762
852.165	21956
852.299	21823
852.434	22044
852.569	21831
852.703	21915
852.838	21945
852.973	21975
853.107	21937
853.242	21762
853.376	21717
853.511	21614
853.645	21656
853.78	21797
853.914	21679
854.048	21663
854.183	21652
854.317	21625
854.451	21800
854.585	21663
854.72	21652
854.854	21857
854.988	21720
855.122	21739
855.256	21496
855.39	21622
855.524	21743
855.658	21709
855.792	21838
855.926	21641
856.06	21762
856.194	21618
856.327	21743
856.461	21614
856.595	21591
856.729	21652
856.862	21656
856.996	21728
857.13	21717
857.263	21812
857.397	21823
857.53	21572
857.664	21530
857.797	21717
857.931	21785
858.064	21724
858.197	21857
858.331	21743
858.464	21644
858.597	21500
858.731	21595
858.864	21682
858.997	21698
859.13	21622
859.263	21709
859.396	21732
859.529	21633
859.662	21679
859.795	21519
859.928	21728
860.061	21873
860.194	21926
860.327	21751
860.46	21709
860.592	21766
860.725	21793
860.858	21827
860.99	21747
861.123	21549
861.256	21671
861.388	21682
861.521	22329
861.653	21595
861.786	21401
861.918	21557
862.05	21519
862.183	21576
862.315	21564
862.447	21682
862.58	21519
862.712	21340
862.844	21397
862.976	21443
863.108	21420
863.24	21717
863.372	21344
863.504	21291
863.636	21428
863.768	21431
863.9	21488
864.032	21405
864.164	21287
864.296	21420
864.428	21523
864.559	21401
864.691	21351
864.823	21428
864.954	21359
865.086	21348
865.217	21374
865.349	21184
865.48	21317
865.612	21317
865.743	21382
865.875	21275
866.006	21306
866.137	21317
866.269	21188
866.4	21195
866.531	21150
866.662	21135
866.793	21214
866.924	21161
867.055	21252
867.186	21230
867.317	21123
867.448	21157
867.579	21154
867.71	21272
867.841	21047
867.972	21268
868.103	21142
868.233	21165
868.364	21184
868.495	21233
868.625	21511
868.756	21614
868.886	21363
869.017	21420
869.147	21568
869.278	21564
869.408	21530
869.539	21450
869.669	21564
869.799	21519
869.929	21629
870.06	21652
870.19	21759
870.32	21759
870.45	21766
870.58	21789
870.71	21968
870.84	21892
870.97	21835
871.1	21873
871.23	22082
871.36	22055
871.489	22017
871.619	22059
871.749	21983
871.879	22048
872.008	22158
872.138	22074
872.267	22048
872.397	21930
872.526	21835
872.656	21854
872.785	21762
872.915	22063
873.044	22090
873.173	22082
873.303	22188
873.432	22116
873.561	22226
873.69	22067
873.819	22265
873.948	22063
874.077	22051
874.206	21930
874.335	21983
874.464	22196
874.593	22344
874.722	22188
874.851	22322
874.979	22314
875.108	22341
875.237	22268
875.365	22219
875.494	22230
875.623	22352
875.751	22219
875.88	22352
876.008	22348
876.136	22424
876.265	22664
876.393	22854
876.521	22805
876.65	22687
876.778	22626
876.906	22588
877.034	22653
877.162	22626
877.29	22637
877.418	22618
877.546	22683
877.674	22649
877.802	22649
877.93	22607
878.058	22603
878.185	22561
878.313	22672
878.441	22626
878.568	22485
878.696	22436
878.824	22755
878.951	22801
879.079	22778
879.206	22942
879.333	22816
879.461	22596
879.588	22755
879.715	22702
879.842	22946
879.97	22805
880.097	22474
880.224	22360
880.351	22500
880.478	22618
880.605	22421
880.732	22500
880.859	22641
880.986	22557
881.112	22542
881.239	22424
881.366	22181
881.493	22234
881.619	22048
881.746	22135
881.872	21953
881.999	22051
882.125	21979
882.252	22063
882.378	22040
882.505	22032
882.631	21816
882.757	21724
882.883	21831
883.01	21675
883.136	21652
883.262	21523
883.388	21701
883.514	21667
883.64	21793
883.766	21751
883.892	21553
884.018	21530
884.143	21625
884.269	21804
884.395	21450
884.52	21317
884.646	21405
884.772	21302
884.897	21367
885.023	21382
885.148	21500
885.274	21450
885.399	21329
885.524	21336
885.65	21473
885.775	21389
885.9	21389
886.025	21481
886.15	21443
886.275	21367
886.4	21203
886.525	21359
886.65	21275
886.775	21336
886.9	21488
887.025	21568
887.149	21363
887.274	21169
887.399	21157
887.523	21123
887.648	20998
887.773	21188
887.897	21207
888.021	21230
888.146	21074
888.27	21165
888.395	21226
888.519	21192
888.643	21287
888.767	21096
888.891	21093
889.015	20891
889.139	21036
889.263	20941
889.387	20971
889.511	21104
889.635	21100
889.759	20941
889.883	20952
890.006	20872
890.13	21081
890.254	20830
890.377	21013
890.501	20720
890.624	20781
890.748	20716
890.871	20587
890.995	20438
891.118	20541
891.241	20484
891.364	20492
891.488	20530
891.611	20533
891.734	20492
891.857	20571
891.98	20389
892.103	20545
892.226	20613
892.349	20461
892.471	20381
892.594	20454
892.717	20400
892.839	20404
892.962	20415
893.085	20442
893.207	20457
893.33	20317
893.452	20343
893.575	20404
893.697	20393
893.819	20488
893.941	20583
894.064	20488
894.186	20282
894.308	20305
894.43	20317
894.552	20571
894.674	20366
894.796	20347
894.918	20343
895.04	20358
895.161	20370
895.283	20408
895.405	20343
895.526	20454
895.648	20218
895.769	20488
895.891	20434
896.012	20549
896.134	20442
896.255	20324
896.376	20290
896.498	20374
896.619	20484
896.74	20393
896.861	20495
896.982	20712
897.103	20777
897.224	20682
897.345	20511
897.466	20644
897.587	20514
897.708	20674
897.828	20594
897.949	20613
898.07	20438
898.19	20484
898.311	20720
898.431	20564
898.552	20560
898.672	20560
898.792	20655
898.913	20575
899.033	20522
899.153	20522
899.273	20351
899.393	20377
899.513	20362
899.633	20423
899.753	20324
899.873	20355
899.993	20317
900.113	20294
900.232	20389
900.352	20214
900.472	20233
900.591	20050
900.711	20130
900.83	20069
900.95	20237
901.069	20305
901.189	19921
901.308	19887
901.427	19689
901.546	19586
901.665	19765
901.784	19734
901.904	19548
902.023	19510
902.141	19259
902.26	19251
902.379	19301
902.498	19293
902.617	19209
902.735	19175
902.854	19164
902.973	19145
903.091	18871
903.21	18829
903.328	18787
903.446	18920
903.565	18749
903.683	18646
903.801	18475
903.919	18623
904.038	18532
904.156	18498
904.274	18456
904.392	18502
904.51	18483
904.627	18429
904.745	18601
904.863	18532
904.981	18201
905.098	18129
905.216	18129
905.334	18201
905.451	18167
905.569	17927
905.686	18159
905.803	18019
905.921	17920
906.038	17931
906.155	17840
906.272	17851
906.389	17741
906.506	17737
906.623	17668
906.74	17729
906.857	17512
906.974	17471
907.091	17672
907.208	17832
907.324	17581
907.441	17535
907.557	17433
907.674	17433
907.79	17242
907.907	17280
908.023	17440
908.139	17288
908.256	17250
908.372	17277
908.488	17208
908.604	17174
908.72	17075
908.836	17117
908.952	17052
909.068	17136
909.184	17079
909.3	17029
909.415	17071
909.531	17025
909.647	16828
909.762	16744
909.878	16820
909.993	16755
910.108	16675
910.224	16736
910.339	16691
910.454	16580
910.57	16546
910.685	16516
910.8	16790
910.915	16607
911.03	16527
911.145	16375
911.259	16432
911.374	16459
911.489	16223
911.604	16242
911.718	16131
911.833	16223
911.947	16006
912.062	15922
912.176	16093
912.291	16116
912.405	16192
912.519	16295
912.633	16398
912.748	16166
912.862	16128
912.976	15994
913.09	15850
913.204	15960
913.318	15941
913.431	16063
913.545	16032
913.659	16036
913.772	15876
913.886	15720
914	15629
914.113	15739
914.226	15762
914.34	15751
914.453	15633
914.566	15808
914.68	15648
914.793	15599
914.906	15401
915.019	15408
915.132	15272
915.245	15325
915.358	15397
915.47	15344
915.583	15310
915.696	15329
915.809	15439
915.921	15473
916.034	15207
916.146	15249
916.259	15176
916.371	15344
916.483	15203
916.595	15161
916.708	15279
916.82	15260
916.932	15104
917.044	15131
917.156	15154
917.268	14952
917.38	14979
917.491	14982
917.603	14986
917.715	14979
917.826	14986
917.938	14929
918.049	14762
918.161	14914
918.272	15043
918.384	15005
918.495	14914
918.606	14693
918.717	14792
918.828	14792
918.939	14746
919.05	14598
919.161	14648
919.272	14522
919.383	14587
919.494	14746
919.604	14826
919.715	14693
919.826	14636
919.936	14724
920.047	14754
920.157	14701
920.267	14845
920.378	14689
920.488	14670
920.598	14906
920.708	15051
920.818	14899
920.928	14743
921.038	15039
921.148	14895
921.258	14644
921.368	14579
921.477	14484
921.587	14393
921.697	14434
921.806	14427
921.916	14343
922.025	14126
922.134	14062
922.244	14100
922.353	14130
922.462	13883
922.571	13883
922.68	13693
922.789	13715
922.898	13811
923.007	13601
923.116	13746
923.224	13704
923.333	13647
923.442	13563
923.55	13514
923.659	13537
923.767	13666
923.876	13453
923.984	13556
924.092	13426
924.201	13388
924.309	13426
924.417	13499
924.525	13407
924.633	13384
924.741	14164
924.849	13149
924.956	13266
925.064	13168
925.172	13046
925.279	13031
925.387	13156
925.494	13091
925.602	13221
925.709	13129
925.816	13008
925.924	13008
926.031	13183
926.138	13038
926.245	13080
926.352	13012
926.459	13141
926.566	13088
926.673	12970
926.779	12825
926.886	12905
926.993	12722
927.099	12791
927.206	12623
927.312	12604
927.419	12696
927.525	12635
927.631	12749
927.737	12509
927.843	12517
927.95	12456
928.056	12460
928.162	12494
928.267	12467
928.373	13057
928.479	12623
928.585	12357
928.69	12521
928.796	12479
928.901	12380
929.007	12216
929.112	12311
929.218	12213
929.323	12209
929.428	12243
929.533	12323
929.638	12216
929.743	12194
929.848	12197
929.953	12190
930.058	12083
930.163	11847
930.267	11901
930.372	12060
930.477	11977
930.581	12091
930.685	11961
930.79	11843
930.894	11737
930.998	11809
931.103	11893
931.207	11474
931.311	11463
931.415	11349
931.519	11254
931.623	11189
