Data from test_V78500241_1870.txt Node
Date: Fri Mar 25 15:54:45 CST 2022
User: usil
Spectrometer: V785-0024
Trigger mode: 0
Integration Time (sec): 4.000000E-1
Scans to average: 1
Nonlinearity correction enabled: false
Boxcar width: 0
Storing dark spectrum: false
XAxis mode: Wavelengths
Number of Pixels in Spectrum: 1024
>>>>>Begin Spectral Data<<<<<
801.071	28782
801.214	28672
801.356	28550
801.499	28531
801.641	28322
801.783	28459
801.926	28413
802.068	28265
802.211	28204
802.353	28207
802.496	28090
802.638	28154
802.78	28158
802.923	28063
803.065	27850
803.208	28086
803.35	28025
803.492	28101
803.635	28253
803.777	28139
803.919	28306
804.061	28691
804.204	28291
804.346	28150
804.488	28158
804.63	28280
804.773	28188
804.915	28253
805.057	28554
805.199	28268
805.341	28352
805.483	28424
805.626	28459
805.768	28333
805.91	28459
806.052	28447
806.194	28318
806.336	28481
806.478	28409
806.62	28531
806.762	28668
806.904	28717
807.046	28797
807.188	28896
807.33	28816
807.472	28999
807.614	28908
807.756	28843
807.898	28698
808.04	28577
808.182	28782
808.324	28831
808.465	28892
808.607	29014
808.749	29189
808.891	29277
809.033	29421
809.174	29227
809.316	29121
809.458	29132
809.6	29185
809.741	29155
809.883	29132
810.025	29505
810.166	29497
810.308	29531
810.45	29296
810.591	29360
810.733	29094
810.875	29121
811.016	29071
811.158	29166
811.299	29231
811.441	29398
811.582	29326
811.724	29193
811.865	29128
812.007	29143
812.148	29239
812.29	29140
812.431	29375
812.573	29509
812.714	29558
812.855	29646
812.997	29752
813.138	29798
813.279	29882
813.421	29600
813.562	29630
813.703	29414
813.845	29345
813.986	29117
814.127	28961
814.268	28831
814.41	28869
814.551	28828
814.692	28911
814.833	28858
814.974	28831
815.115	28763
815.256	28615
815.397	28679
815.539	28698
815.68	28679
815.821	28512
815.962	28565
816.103	28535
816.244	28607
816.385	28470
816.526	28459
816.666	28333
816.807	28154
816.948	28234
817.089	28295
817.23	28242
817.371	28204
817.512	28192
817.653	28124
817.793	28036
817.934	28090
818.075	28158
818.216	28207
818.356	28086
818.497	27987
818.638	27956
818.778	27907
818.919	27819
819.06	27972
819.2	28097
819.341	27994
819.481	28204
819.622	28280
819.762	28599
819.903	28428
820.043	28344
820.184	28261
820.324	28371
820.465	28451
820.605	28181
820.746	28310
820.886	28196
821.026	28295
821.167	28291
821.307	28249
821.447	28207
821.588	28101
821.728	27945
821.868	27808
822.008	27614
822.149	27583
822.289	27595
822.429	27401
822.569	27378
822.709	27443
822.849	27157
822.99	27233
823.13	27165
823.27	26986
823.41	26963
823.55	26872
823.69	26899
823.83	27009
823.97	26891
824.11	26746
824.25	26754
824.389	26830
824.529	26910
824.669	26853
824.809	26937
824.949	26830
825.089	26769
825.228	26731
825.368	26480
825.508	26564
825.648	26796
825.787	26682
825.927	26811
826.067	26530
826.206	26804
826.346	26746
826.485	26773
826.625	26583
826.765	26720
826.904	26720
827.044	26545
827.183	26438
827.323	26244
827.462	26309
827.601	26473
827.741	26503
827.88	26381
828.02	26324
828.159	26355
828.298	26484
828.437	26396
828.577	26347
828.716	26579
828.855	26355
828.994	26183
829.134	26111
829.273	26100
829.412	26046
829.551	26092
829.69	26081
829.829	25963
829.968	26149
830.107	26180
830.246	26027
830.385	26012
830.524	26046
830.663	25879
830.802	25951
830.941	25769
831.08	25510
831.219	25609
831.357	25852
831.496	25932
831.635	25719
831.774	25556
831.913	25605
832.051	25548
832.19	25479
832.329	25449
832.467	25403
832.606	25392
832.744	25327
832.883	25278
833.022	25422
833.16	25331
833.299	25415
833.437	25419
833.576	25438
833.714	25285
833.852	25434
833.991	25499
834.129	25533
834.267	25441
834.406	25449
834.544	25464
834.682	25331
834.821	25350
834.959	25464
835.097	25327
835.235	25381
835.373	25441
835.511	25472
835.65	25228
835.788	25308
835.926	25122
836.064	24985
836.202	25175
836.34	25194
836.478	25419
836.615	25240
836.753	25152
836.891	25354
837.029	25145
837.167	25099
837.305	25126
837.443	25122
837.58	25015
837.718	25209
837.856	25069
837.993	24992
838.131	24996
838.269	25091
838.406	24954
838.544	24844
838.681	24684
838.819	24684
838.956	24505
839.094	24574
839.231	24490
839.369	24738
839.506	24924
839.643	24620
839.781	24570
839.918	24502
840.055	24433
840.193	24555
840.33	24486
840.467	24502
840.604	24483
840.742	24642
840.879	24281
841.016	24300
841.153	24235
841.29	24517
841.427	24521
841.564	24464
841.701	24429
841.838	24399
841.975	24292
842.112	24414
842.249	24155
842.385	24163
842.522	24319
842.659	24136
842.796	24262
842.933	24072
843.069	24072
843.206	24030
843.343	24273
843.479	24273
843.616	24273
843.752	24045
843.889	24057
844.025	24034
844.162	23927
844.298	23992
844.435	23843
844.571	24110
844.708	24148
844.844	24098
844.98	23977
845.117	23977
845.253	23843
845.389	23745
845.525	23942
845.661	23722
845.798	23710
845.934	23771
846.07	23657
846.206	23707
846.342	23790
846.478	23604
846.614	23520
846.75	23364
846.886	23379
847.022	23467
847.158	23414
847.294	23376
847.429	23516
847.565	23280
847.701	23657
847.837	23143
847.972	23200
848.108	23299
848.244	23250
848.379	23109
848.515	22930
848.65	22957
848.786	22987
848.921	23056
849.057	23041
849.192	23037
849.328	22972
849.463	22919
849.598	22949
849.734	22847
849.869	22915
850.004	22801
850.14	22759
850.275	22630
850.41	22592
850.545	22790
850.68	22713
850.815	22790
850.95	22778
851.085	22968
851.22	22824
851.355	22672
851.49	22656
851.625	22683
851.76	22790
851.895	22687
852.03	22729
852.165	22664
852.299	22740
852.434	22835
852.569	22752
852.703	22786
852.838	22809
852.973	22809
853.107	22873
853.242	22729
853.376	22580
853.511	22417
853.645	22527
853.78	22710
853.914	22569
854.048	22478
854.183	22497
854.317	22588
854.451	22599
854.585	22588
854.72	22451
854.854	22656
854.988	22565
855.122	22516
855.256	22508
855.39	22531
855.524	22512
855.658	22672
855.792	22546
855.926	22523
856.06	22645
856.194	22565
856.327	22550
856.461	22421
856.595	22557
856.729	22523
856.862	22565
856.996	22527
857.13	22554
857.263	22653
857.397	22748
857.53	22512
857.664	22664
857.797	22736
857.931	22675
858.064	22592
858.197	22721
858.331	22687
858.464	22481
858.597	22432
858.731	22367
858.864	22531
858.997	22466
859.13	22542
859.263	22561
859.396	22615
859.529	22577
859.662	22512
859.795	22382
859.928	22679
860.061	22694
860.194	22694
860.327	22641
860.46	22554
860.592	22554
860.725	22702
860.858	22691
860.99	22497
861.123	22527
861.256	22588
861.388	22577
861.521	23417
861.653	22485
861.786	22417
861.918	22337
862.05	22470
862.183	22474
862.315	22360
862.447	22466
862.58	22485
862.712	22360
862.844	22120
862.976	22329
863.108	22261
863.24	22702
863.372	22204
863.504	22234
863.636	22303
863.768	22322
863.9	22265
864.032	22158
864.164	22181
864.296	22314
864.428	22375
864.559	22322
864.691	22318
864.823	22413
864.954	22268
865.086	22200
865.217	22162
865.349	22063
865.48	22166
865.612	22246
865.743	22215
865.875	22082
866.006	22048
866.137	22230
866.269	22185
866.4	22112
866.531	22006
866.662	22002
866.793	22105
866.924	22078
867.055	22040
867.186	22109
867.317	21998
867.448	22029
867.579	21987
867.71	21983
867.841	21930
867.972	22128
868.103	22025
868.233	22101
868.364	22055
868.495	22143
868.625	22337
868.756	22421
868.886	22215
869.017	22493
869.147	22348
869.278	22470
869.408	22344
869.539	22280
869.669	22318
869.799	22284
869.929	22455
870.06	22455
870.19	22622
870.32	22569
870.45	22637
870.58	22725
870.71	22748
870.84	22835
870.97	22812
871.1	22649
871.23	22930
871.36	22892
871.489	22740
871.619	22805
871.749	22896
871.879	22923
872.008	23010
872.138	22896
872.267	22881
872.397	22713
872.526	22618
872.656	22706
872.785	22717
872.915	22923
873.044	22862
873.173	23117
873.303	22900
873.432	22980
873.561	23064
873.69	22881
873.819	23109
873.948	22995
874.077	22904
874.206	22908
874.335	22946
874.464	23102
874.593	23239
874.722	23193
874.851	23105
874.979	23178
875.108	23197
875.237	23094
875.365	22957
875.494	23086
875.623	23170
875.751	23105
875.88	23117
876.008	23246
876.136	23318
876.265	23539
876.393	23630
876.521	23646
876.65	23703
876.778	23524
876.906	23440
877.034	23516
877.162	23444
877.29	23429
877.418	23497
877.546	23467
877.674	23455
877.802	23516
877.93	23433
878.058	23509
878.185	23474
878.313	23429
878.441	23493
878.568	23318
878.696	23421
878.824	23497
878.951	23505
879.079	23684
879.206	23661
879.333	23649
879.461	23528
879.588	23589
879.715	23657
879.842	23824
879.97	23547
880.097	23353
880.224	23337
880.351	23250
880.478	23398
880.605	23178
880.732	23277
880.859	23585
880.986	23311
881.112	23273
881.239	23109
881.366	22915
881.493	22847
881.619	22790
881.746	22889
881.872	22904
881.999	22812
882.125	22881
882.252	22976
882.378	22835
882.505	22908
882.631	22740
882.757	22660
882.883	22577
883.01	22500
883.136	22421
883.262	22386
883.388	22310
883.514	22557
883.64	22573
883.766	22436
883.892	22131
884.018	22280
884.143	22428
884.269	22675
884.395	22287
884.52	22162
884.646	22219
884.772	22177
884.897	22070
885.023	22166
885.148	22185
885.274	22322
885.399	22261
885.524	22067
885.65	22192
885.775	22177
885.9	22196
886.025	22280
886.15	22249
886.275	22173
886.4	21998
886.525	22147
886.65	22200
886.775	22067
886.9	22310
887.025	22329
887.149	22051
887.274	21895
887.399	21846
887.523	21915
887.648	21808
887.773	21880
887.897	21964
888.021	21819
888.146	21774
888.27	22048
888.395	21945
888.519	22051
888.643	21998
888.767	21953
888.891	21895
889.015	21679
889.139	21732
889.263	21732
889.387	21804
889.511	22006
889.635	21865
889.759	21614
889.883	21732
890.006	21724
890.13	21724
890.254	21686
890.377	21610
890.501	21538
890.624	21378
890.748	21500
890.871	21348
890.995	21260
891.118	21230
891.241	21180
891.364	21294
891.488	21447
891.611	21256
891.734	21386
891.857	21351
891.98	21116
892.103	21142
892.226	21313
892.349	21157
892.471	21051
892.594	21123
892.717	21123
892.839	21192
892.962	21161
893.085	21150
893.207	21165
893.33	21085
893.452	21070
893.575	21226
893.697	21013
893.819	21272
893.941	21439
894.064	21325
894.186	21108
894.308	21001
894.43	21268
894.552	21214
894.674	21245
894.796	21013
894.918	21081
895.04	21157
895.161	21135
895.283	21135
895.405	20998
895.526	21157
895.648	21062
895.769	21161
895.891	21127
896.012	21165
896.134	21260
896.255	21142
896.376	21154
896.498	21013
896.619	21077
896.74	21112
896.861	21154
896.982	21374
897.103	21507
897.224	21355
897.345	21355
897.466	21264
897.587	21302
897.708	21485
897.828	21329
897.949	21287
898.07	21214
898.19	21192
898.311	21283
898.431	21272
898.552	21214
898.672	21355
898.792	21313
898.913	21416
899.033	21154
899.153	21138
899.273	21013
899.393	21081
899.513	21020
899.633	21043
899.753	21043
899.873	20960
899.993	21138
900.113	21024
900.232	21024
900.352	20956
900.472	20921
900.591	20762
900.711	20823
900.83	20868
900.95	20948
901.069	20792
901.189	20743
901.308	20476
901.427	20400
901.546	20419
901.665	20450
901.784	20381
901.904	20244
902.023	20065
902.141	19993
902.26	20046
902.379	19967
902.498	19894
902.617	19883
902.735	19833
902.854	19940
902.973	19685
903.091	19449
903.21	19605
903.328	19506
903.446	19533
903.565	19274
903.683	19339
903.801	19289
903.919	19240
904.038	19354
904.156	19183
904.274	19270
904.392	19141
904.51	19080
904.627	19145
904.745	19171
904.863	19129
904.981	18863
905.098	18681
905.216	18738
905.334	18768
905.451	18760
905.569	18821
905.686	18791
905.803	18757
905.921	18555
906.038	18532
906.155	18574
906.272	18536
906.389	18509
906.506	18308
906.623	18300
906.74	18418
906.857	18133
906.974	18171
907.091	18334
907.208	18445
907.324	18296
907.441	18228
907.557	18045
907.674	17980
907.79	17931
907.907	17923
908.023	17992
908.139	17999
908.256	17912
908.372	17851
908.488	17893
908.604	17756
908.72	17668
908.836	17672
908.952	17634
909.068	17710
909.184	17840
909.3	17733
909.415	17707
909.531	17733
909.647	17490
909.762	17478
909.878	17459
909.993	17250
910.108	17349
910.224	17288
910.339	17356
910.454	17269
910.57	17239
910.685	17166
910.8	17383
910.915	17353
911.03	17231
911.145	17060
911.259	17045
911.374	16873
911.489	16953
911.604	16911
911.718	16687
911.833	16634
911.947	16653
912.062	16588
912.176	16649
912.291	16736
912.405	16698
912.519	16915
912.633	16866
912.748	16812
912.862	16740
912.976	16531
913.09	16443
913.204	16443
913.318	16546
913.431	16664
913.545	16592
913.659	16634
913.772	16371
913.886	16356
914	16280
914.113	16462
914.226	16478
914.34	16280
914.453	16226
914.566	16234
914.68	16272
914.793	16143
914.906	15930
915.019	15983
915.132	15819
915.245	15865
915.358	15865
915.47	15998
915.583	15861
915.696	15960
915.809	16051
915.921	15983
916.034	15816
916.146	15793
916.259	15857
916.371	15941
916.483	15789
916.595	15827
916.708	15675
916.82	15656
916.932	15614
917.044	15686
917.156	15568
917.268	15496
917.38	15587
917.491	15405
917.603	15564
917.715	15443
917.826	15545
917.938	15393
918.049	15393
918.161	15378
918.272	15660
918.384	15519
918.495	15443
918.606	15424
918.717	15203
918.828	15279
918.939	15348
919.05	15169
919.161	15207
919.272	15184
919.383	15165
919.494	15317
919.604	15435
919.715	15241
919.826	15146
919.936	15237
920.047	15176
920.157	15165
920.267	15424
920.378	15195
920.488	15165
920.598	15252
920.708	15534
920.818	15462
920.928	15374
921.038	15542
921.148	15367
921.258	15233
921.368	15028
921.477	14971
921.587	14937
921.697	14811
921.806	14956
921.916	14735
922.025	14678
922.134	14492
922.244	14556
922.353	14590
922.462	14549
922.571	14320
922.68	14237
922.789	14229
922.898	14244
923.007	14172
923.116	14256
923.224	14237
923.333	14157
923.442	14180
923.55	14001
923.659	14050
923.767	14069
923.876	14111
923.984	14062
924.092	13978
924.201	13947
924.309	13925
924.417	14012
924.525	13917
924.633	13997
924.741	14701
924.849	13609
924.956	13788
925.064	13597
925.172	13506
925.279	13563
925.387	13620
925.494	13552
925.602	13681
925.709	13666
925.816	13510
925.924	13586
926.031	13605
926.138	13495
926.245	13567
926.352	13434
926.459	13567
926.566	13521
926.673	13445
926.779	13324
926.886	13312
926.993	13164
927.099	13091
927.206	13091
927.312	13126
927.419	13232
927.525	13110
927.631	13156
927.737	13034
927.843	13008
927.95	12787
928.056	12894
928.162	12905
928.267	13038
928.373	13578
928.479	13034
928.585	12711
928.69	12913
928.796	12947
928.901	12764
929.007	12726
929.112	12791
929.218	12722
929.323	12642
929.428	12741
929.533	12814
929.638	12650
929.743	12623
929.848	12673
929.953	12627
930.058	12456
930.163	12292
930.267	12342
930.372	12441
930.477	12254
930.581	12566
930.685	12330
930.79	12175
930.894	12228
930.998	12152
931.103	12330
931.207	11992
931.311	11851
931.415	11794
931.519	11566
931.623	11596
