Data from test_V78500241_2462.txt Node
Date: Fri Mar 25 15:58:51 CST 2022
User: usil
Spectrometer: V785-0024
Trigger mode: 0
Integration Time (sec): 4.000000E-1
Scans to average: 1
Nonlinearity correction enabled: false
Boxcar width: 0
Storing dark spectrum: false
XAxis mode: Wavelengths
Number of Pixels in Spectrum: 1024
>>>>>Begin Spectral Data<<<<<
801.071	29033
801.214	28896
801.356	28748
801.499	28793
801.641	28592
801.783	28653
801.926	28694
802.068	28538
802.211	28607
802.353	28489
802.496	28413
802.638	28348
802.78	28196
802.923	28128
803.065	28131
803.208	28249
803.35	28242
803.492	28424
803.635	28523
803.777	28394
803.919	28516
804.061	28915
804.204	28523
804.346	28478
804.488	28493
804.63	28611
804.773	28424
804.915	28603
805.057	28634
805.199	28630
805.341	28592
805.483	28694
805.626	28630
805.768	28577
805.91	28630
806.052	28786
806.194	28500
806.336	28911
806.478	28790
806.62	28710
806.762	28930
806.904	29048
807.046	29170
807.188	29067
807.33	29151
807.472	29220
807.614	29166
807.756	29124
807.898	29105
808.04	28949
808.182	29064
808.324	29033
808.465	29136
808.607	29250
808.749	29292
808.891	29505
809.033	29551
809.174	29547
809.316	29398
809.458	29395
809.6	29341
809.741	29444
809.883	29661
810.025	29847
810.166	29668
810.308	29619
810.45	29539
810.591	29467
810.733	29512
810.875	29516
811.016	29277
811.158	29341
811.299	29455
811.441	29600
811.582	29630
811.724	29372
811.865	29410
812.007	29341
812.148	29467
812.29	29410
812.431	29657
812.573	29779
812.714	29851
812.855	29912
812.997	30003
813.138	30053
813.279	30011
813.421	30053
813.562	29748
813.703	29668
813.845	29726
813.986	29341
814.127	29254
814.268	29242
814.41	29155
814.551	29044
814.692	29235
814.833	29048
814.974	29155
815.115	29174
815.256	28984
815.397	29056
815.539	28957
815.68	29033
815.821	28885
815.962	29102
816.103	28938
816.244	28725
816.385	28683
816.526	28831
816.666	28519
816.807	28386
816.948	28592
817.089	28512
817.23	28447
817.371	28542
817.512	28398
817.653	28432
817.793	28409
817.934	28474
818.075	28417
818.216	28523
818.356	28481
818.497	28310
818.638	28211
818.778	28109
818.919	28150
819.06	28253
819.2	28287
819.341	28440
819.481	28432
819.622	28523
819.762	28805
819.903	28569
820.043	28771
820.184	28672
820.324	28580
820.465	28615
820.605	28668
820.746	28573
820.886	28478
821.026	28531
821.167	28660
821.307	28523
821.447	28485
821.588	28409
821.728	28344
821.868	28166
822.008	27956
822.149	27968
822.289	27956
822.429	27644
822.569	27644
822.709	27698
822.849	27572
822.99	27519
823.13	27386
823.27	27412
823.41	27386
823.55	27184
823.69	27344
823.83	27454
823.97	27237
824.11	27150
824.25	27104
824.389	27085
824.529	27161
824.669	26982
824.809	27256
824.949	27199
825.089	27256
825.228	27233
825.368	26944
825.508	26910
825.648	27104
825.787	27051
825.927	27074
826.067	27024
826.206	26918
826.346	27100
826.485	27058
826.625	26975
826.765	27051
826.904	27017
827.044	26819
827.183	26781
827.323	26705
827.462	26796
827.601	26689
827.741	26689
827.88	26777
828.02	26617
828.159	26655
828.298	26731
828.437	26807
828.577	26625
828.716	26811
828.855	26590
828.994	26465
829.134	26488
829.273	26427
829.412	26248
829.551	26408
829.69	26370
829.829	26355
829.968	26484
830.107	26461
830.246	26305
830.385	26385
830.524	26214
830.663	26145
830.802	26084
830.941	25913
831.08	25871
831.219	26035
831.357	26191
831.496	26290
831.635	25959
831.774	25852
831.913	25883
832.051	25868
832.19	25845
832.329	25906
832.467	25708
832.606	25552
832.744	25731
832.883	25597
833.022	25616
833.16	25742
833.299	25742
833.437	25772
833.576	25742
833.714	25761
833.852	25849
833.991	25951
834.129	25791
834.267	25803
834.406	25807
834.544	25772
834.682	25750
834.821	25674
834.959	25807
835.097	25788
835.235	25772
835.373	25765
835.511	25811
835.65	25651
835.788	25445
835.926	25362
836.064	25453
836.202	25468
836.34	25506
836.478	25586
836.615	25506
836.753	25521
836.891	25559
837.029	25559
837.167	25457
837.305	25521
837.443	25457
837.58	25415
837.718	25479
837.856	25479
837.993	25320
838.131	25324
838.269	25187
838.406	25327
838.544	25331
838.681	24985
838.819	25126
838.956	24943
839.094	24837
839.231	24935
839.369	25072
839.506	25274
839.643	25061
839.781	24840
839.918	24760
840.055	24871
840.193	24878
840.33	24703
840.467	24654
840.604	24829
840.742	25061
840.879	24669
841.016	24700
841.153	24585
841.29	24939
841.427	24757
841.564	24757
841.701	24684
841.838	24661
841.975	24631
842.112	24616
842.249	24597
842.385	24464
842.522	24772
842.659	24684
842.796	24391
842.933	24357
843.069	24426
843.206	24399
843.343	24540
843.479	24525
843.616	24456
843.752	24346
843.889	24376
844.025	24566
844.162	24262
844.298	24388
844.435	24277
844.571	24452
844.708	24350
844.844	24410
844.98	24391
845.117	24258
845.253	24205
845.389	24167
845.525	24125
845.661	24091
845.798	23817
845.934	23950
846.07	23904
846.206	24026
846.342	24053
846.478	24087
846.614	23786
846.75	23653
846.886	23638
847.022	23779
847.158	23798
847.294	23710
847.429	23699
847.565	23646
847.701	23908
847.837	23501
847.972	23227
848.108	23467
848.244	23562
848.379	23452
848.515	23299
848.65	23220
848.786	23474
848.921	23174
849.057	23379
849.192	23250
849.328	23334
849.463	23242
849.598	23223
849.734	23155
849.869	23197
850.004	23117
850.14	23094
850.275	23098
850.41	22885
850.545	23033
850.68	23056
850.815	23071
850.95	23090
851.085	23261
851.22	23094
851.355	23048
851.49	23014
851.625	23033
851.76	22991
851.895	23151
852.03	22892
852.165	23083
852.299	23178
852.434	23132
852.569	23113
852.703	23181
852.838	23105
852.973	23330
853.107	22972
853.242	23067
853.376	22850
853.511	22748
853.645	22763
853.78	22934
853.914	22923
854.048	22824
854.183	22934
854.317	22927
854.451	23056
854.585	22889
854.72	22809
854.854	22976
854.988	22824
855.122	22881
855.256	22710
855.39	22934
855.524	22938
855.658	22961
855.792	22972
855.926	22930
856.06	22946
856.194	22984
856.327	22877
856.461	22831
856.595	22782
856.729	22752
856.862	22991
856.996	22949
857.13	22923
857.263	23025
857.397	22919
857.53	22824
857.664	22953
857.797	23010
857.931	22896
858.064	22835
858.197	23155
858.331	22797
858.464	22729
858.597	22889
858.731	22866
858.864	22816
858.997	22759
859.13	22869
859.263	22835
859.396	22976
859.529	22828
859.662	22896
859.795	22877
859.928	22869
860.061	22999
860.194	23083
860.327	22873
860.46	22896
860.592	22976
860.725	23121
860.858	23037
860.99	22892
861.123	22805
861.256	22752
861.388	22858
861.521	23649
861.653	22733
861.786	22664
861.918	22744
862.05	22763
862.183	22816
862.315	22691
862.447	22854
862.58	22771
862.712	22752
862.844	22531
862.976	22634
863.108	22603
863.24	22927
863.372	22527
863.504	22592
863.636	22504
863.768	22573
863.9	22618
864.032	22580
864.164	22512
864.296	22679
864.428	22577
864.559	22580
864.691	22683
864.823	22706
864.954	22519
865.086	22546
865.217	22573
865.349	22409
865.48	22382
865.612	22432
865.743	22538
865.875	22462
866.006	22474
866.137	22409
866.269	22440
866.4	22402
866.531	22405
866.662	22303
866.793	22500
866.924	22390
867.055	22447
867.186	22485
867.317	22356
867.448	22344
867.579	22287
867.71	22287
867.841	22261
867.972	22337
868.103	22371
868.233	22306
868.364	22276
868.495	22360
868.625	22500
868.756	22603
868.886	22561
869.017	22653
869.147	22607
869.278	22782
869.408	22630
869.539	22569
869.669	22713
869.799	22550
869.929	22839
870.06	22634
870.19	22900
870.32	22885
870.45	22869
870.58	23075
870.71	23113
870.84	23079
870.97	23086
871.1	23006
871.23	23239
871.36	23174
871.489	23121
871.619	23181
871.749	23220
871.879	23102
872.008	23250
872.138	23185
872.267	23353
872.397	23174
872.526	22976
872.656	23006
872.785	23098
872.915	23296
873.044	23303
873.173	23220
873.303	23235
873.432	23288
873.561	23235
873.69	23223
873.819	23121
873.948	23330
874.077	23174
874.206	23178
874.335	23121
874.464	23368
874.593	23395
874.722	23474
874.851	23349
874.979	23562
875.108	23299
875.237	23395
875.365	23326
875.494	23425
875.623	23501
875.751	23353
875.88	23581
876.008	23608
876.136	23646
876.265	23855
876.393	24003
876.521	23935
876.65	23893
876.778	23733
876.906	23760
877.034	23722
877.162	23828
877.29	23756
877.418	23729
877.546	23863
877.674	23646
877.802	23733
877.93	23741
878.058	23676
878.185	23634
878.313	23695
878.441	23657
878.568	23596
878.696	23821
878.824	23832
878.951	23870
879.079	23904
879.206	24049
879.333	23965
879.461	23904
879.588	23824
879.715	23859
879.842	24079
879.97	23897
880.097	23790
880.224	23604
880.351	23558
880.478	23551
880.605	23585
880.732	23497
880.859	23805
880.986	23581
881.112	23653
881.239	23444
881.366	23216
881.493	23197
881.619	23079
881.746	23075
881.872	23208
881.999	23178
882.125	23136
882.252	23212
882.378	23227
882.505	23212
882.631	22923
882.757	22866
882.883	22820
883.01	22843
883.136	22740
883.262	22626
883.388	22577
883.514	22748
883.64	22778
883.766	22668
883.892	22557
884.018	22512
884.143	22702
884.269	22850
884.395	22527
884.52	22443
884.646	22432
884.772	22409
884.897	22371
885.023	22394
885.148	22592
885.274	22554
885.399	22565
885.524	22451
885.65	22527
885.775	22371
885.9	22329
886.025	22459
886.15	22428
886.275	22432
886.4	22432
886.525	22535
886.65	22382
886.775	22428
886.9	22535
887.025	22668
887.149	22382
887.274	22238
887.399	22147
887.523	22242
887.648	22181
887.773	22188
887.897	22371
888.021	22272
888.146	22120
888.27	22219
888.395	22226
888.519	22265
888.643	22173
888.767	22253
888.891	22230
889.015	21983
889.139	22086
889.263	21888
889.387	22112
889.511	22196
889.635	22211
889.759	22002
889.883	21918
890.006	22101
890.13	22059
890.254	21781
890.377	21941
890.501	21606
890.624	21679
890.748	21713
890.871	21743
890.995	21549
891.118	21553
891.241	21572
891.364	21557
891.488	21755
891.611	21515
891.734	21462
891.857	21587
891.98	21511
892.103	21515
892.226	21530
892.349	21485
892.471	21462
892.594	21511
892.717	21492
892.839	21420
892.962	21420
893.085	21545
893.207	21511
893.33	21382
893.452	21249
893.575	21443
893.697	21374
893.819	21648
893.941	21599
894.064	21424
894.186	21351
894.308	21283
894.43	21447
894.552	21397
894.674	21469
894.796	21173
894.918	21466
895.04	21397
895.161	21439
895.283	21367
895.405	21332
895.526	21412
895.648	21340
895.769	21374
895.891	21466
896.012	21462
896.134	21374
896.255	21450
896.376	21367
896.498	21370
896.619	21431
896.74	21367
896.861	21507
896.982	21648
897.103	21945
897.224	21625
897.345	21595
897.466	21511
897.587	21568
897.708	21808
897.828	21656
897.949	21393
898.07	21428
898.19	21416
898.311	21583
898.431	21523
898.552	21504
898.672	21526
898.792	21557
898.913	21576
899.033	21515
899.153	21378
899.273	21252
899.393	21325
899.513	21348
899.633	21268
899.753	21188
899.873	21055
899.993	21294
900.113	21321
900.232	21268
900.352	21211
900.472	21119
900.591	21055
900.711	21066
900.83	20986
900.95	21176
901.069	21028
901.189	20986
901.308	20724
901.427	20617
901.546	20663
901.665	20701
901.784	20655
901.904	20476
902.023	20320
902.141	20256
902.26	20119
902.379	20119
902.498	20039
902.617	20138
902.735	20161
902.854	20081
902.973	20008
903.091	19807
903.21	19750
903.328	19769
903.446	19674
903.565	19601
903.683	19556
903.801	19468
903.919	19525
904.038	19540
904.156	19350
904.274	19373
904.392	19255
904.51	19293
904.627	19346
904.745	19358
904.863	19392
904.981	19251
905.098	19053
905.216	19053
905.334	18958
905.451	19015
905.569	18935
905.686	19000
905.803	18993
905.921	18783
906.038	18897
906.155	18738
906.272	18726
906.389	18631
906.506	18513
906.623	18601
906.74	18623
906.857	18353
906.974	18471
907.091	18521
907.208	18582
907.324	18483
907.441	18441
907.557	18258
907.674	18266
907.79	18163
907.907	18129
908.023	18273
908.139	18258
908.256	18159
908.372	18121
908.488	18053
908.604	17961
908.72	17969
908.836	17790
908.952	17897
909.068	18057
909.184	18049
909.3	17870
909.415	17901
909.531	17855
909.647	17775
909.762	17638
909.878	17425
909.993	17676
910.108	17581
910.224	17535
910.339	17634
910.454	17429
910.57	17459
910.685	17349
910.8	17680
910.915	17528
911.03	17273
911.145	17189
911.259	17075
911.374	17197
911.489	17143
911.604	17025
911.718	16908
911.833	16999
911.947	16828
912.062	16812
912.176	16889
912.291	16953
912.405	16820
912.519	17105
912.633	17159
912.748	16972
912.862	16900
912.976	16668
913.09	16706
913.204	16706
913.318	16816
913.431	16881
913.545	16812
913.659	16843
913.772	16694
913.886	16504
914	16531
914.113	16531
914.226	16615
914.34	16580
914.453	16379
914.566	16550
914.68	16424
914.793	16432
914.906	16215
915.019	16109
915.132	16078
915.245	16150
915.358	16116
915.47	16105
915.583	16067
915.696	16215
915.809	16234
915.921	16207
916.034	16055
916.146	15991
916.259	15918
916.371	16105
916.483	16055
916.595	15934
916.708	15983
916.82	15880
916.932	15922
917.044	15926
917.156	15888
917.268	15793
917.38	15686
917.491	15686
917.603	15694
917.715	15755
917.826	15781
917.938	15641
918.049	15606
918.161	15644
918.272	15770
918.384	15797
918.495	15637
918.606	15439
918.717	15447
918.828	15454
918.939	15523
919.05	15332
919.161	15363
919.272	15355
919.383	15241
919.494	15481
919.604	15660
919.715	15424
919.826	15241
919.936	15500
920.047	15431
920.157	15488
920.267	15584
920.378	15420
920.488	15249
920.598	15549
920.708	15766
920.818	15477
920.928	15462
921.038	15690
921.148	15610
921.258	15370
921.368	15249
921.477	15081
921.587	15077
921.697	15001
921.806	15085
921.916	14895
922.025	14773
922.134	14773
922.244	14686
922.353	14785
922.462	14575
922.571	14541
922.68	14442
922.789	14370
922.898	14438
923.007	14355
923.116	14362
923.224	14488
923.333	14301
923.442	14233
923.55	14115
923.659	14210
923.767	14267
923.876	14103
923.984	14275
924.092	14134
924.201	14084
924.309	14138
924.417	14039
924.525	13993
924.633	14119
924.741	14762
924.849	13776
924.956	13974
925.064	13830
925.172	13731
925.279	13734
925.387	13769
925.494	13757
925.602	13845
925.709	13791
925.816	13704
925.924	13685
926.031	13700
926.138	13658
926.245	13704
926.352	13567
926.459	13746
926.566	13677
926.673	13556
926.779	13472
926.886	13419
926.993	13327
927.099	13247
927.206	13263
927.312	13232
927.419	13301
927.525	13285
927.631	13335
927.737	13190
927.843	13095
927.95	12962
928.056	13156
928.162	13084
928.267	13114
928.373	13696
928.479	13168
928.585	12905
928.69	13027
928.796	13103
928.901	12966
929.007	12840
929.112	13031
929.218	12837
929.323	12859
929.428	12848
929.533	12954
929.638	12764
929.743	12745
929.848	12791
929.953	12753
930.058	12700
930.163	12486
930.267	12517
930.372	12589
930.477	12422
930.581	12623
930.685	12471
930.79	12342
930.894	12357
930.998	12350
931.103	12410
931.207	12098
931.311	12038
931.415	11958
931.519	11798
931.623	11676
