Data from test_V78500241_2568.txt Node
Date: Fri Mar 25 15:59:35 CST 2022
User: usil
Spectrometer: V785-0024
Trigger mode: 0
Integration Time (sec): 4.000000E-1
Scans to average: 1
Nonlinearity correction enabled: false
Boxcar width: 0
Storing dark spectrum: false
XAxis mode: Wavelengths
Number of Pixels in Spectrum: 1024
>>>>>Begin Spectral Data<<<<<
801.071	28820
801.214	28702
801.356	28672
801.499	28577
801.641	28390
801.783	28474
801.926	28466
802.068	28394
802.211	28390
802.353	28261
802.496	28185
802.638	28051
802.78	27953
802.923	28032
803.065	28124
803.208	28010
803.35	28097
803.492	28306
803.635	28421
803.777	28265
803.919	28367
804.061	28691
804.204	28268
804.346	28257
804.488	28226
804.63	28352
804.773	28352
804.915	28375
805.057	28561
805.199	28375
805.341	28443
805.483	28630
805.626	28451
805.768	28341
805.91	28527
806.052	28554
806.194	28531
806.336	28672
806.478	28550
806.62	28523
806.762	28748
806.904	28896
807.046	29071
807.188	28915
807.33	28965
807.472	28987
807.614	28938
807.756	29041
807.898	28911
808.04	28675
808.182	28790
808.324	28774
808.465	28877
808.607	29052
808.749	29265
808.891	29170
809.033	29406
809.174	29356
809.316	29273
809.458	29170
809.6	29109
809.741	29299
809.883	29296
810.025	29562
810.166	29535
810.308	29539
810.45	29391
810.591	29452
810.733	29254
810.875	29379
811.016	29094
811.158	29178
811.299	29326
811.441	29444
811.582	29463
811.724	29258
811.865	29105
812.007	29239
812.148	29227
812.29	29349
812.431	29341
812.573	29573
812.714	29756
812.855	29737
812.997	29859
813.138	29771
813.279	29840
813.421	29699
813.562	29596
813.703	29581
813.845	29467
813.986	29227
814.127	29109
814.268	28934
814.41	28930
814.551	28885
814.692	29003
814.833	28869
814.974	28927
815.115	28888
815.256	28984
815.397	28866
815.539	28771
815.68	28729
815.821	28744
815.962	28702
816.103	28896
816.244	28588
816.385	28717
816.526	28607
816.666	28451
816.807	28344
816.948	28299
817.089	28382
817.23	28375
817.371	28272
817.512	28272
817.653	28265
817.793	28177
817.934	28249
818.075	28272
818.216	28405
818.356	28238
818.497	28131
818.638	27918
818.778	27934
818.919	28112
819.06	28204
819.2	28128
819.341	28238
819.481	28303
819.622	28348
819.762	28645
819.903	28580
820.043	28436
820.184	28356
820.324	28398
820.465	28500
820.605	28478
820.746	28276
820.886	28329
821.026	28348
821.167	28394
821.307	28535
821.447	28337
821.588	28181
821.728	28086
821.868	27934
822.008	27690
822.149	27755
822.289	27724
822.429	27530
822.569	27439
822.709	27405
822.849	27313
822.99	27195
823.13	27199
823.27	27207
823.41	27131
823.55	27047
823.69	27036
823.83	27173
823.97	26956
824.11	26899
824.25	26899
824.389	26819
824.529	26990
824.669	26834
824.809	26937
824.949	27005
825.089	27005
825.228	26998
825.368	26853
825.508	26872
825.648	26663
825.787	26845
825.927	26773
826.067	26895
826.206	26933
826.346	26823
826.485	26899
826.625	26663
826.765	26868
826.904	26918
827.044	26644
827.183	26689
827.323	26415
827.462	26598
827.601	26564
827.741	26545
827.88	26571
828.02	26282
828.159	26427
828.298	26427
828.437	26651
828.577	26461
828.716	26640
828.855	26328
828.994	26206
829.134	26229
829.273	26377
829.412	26210
829.551	26145
829.69	26229
829.829	26096
829.968	26294
830.107	26332
830.246	26229
830.385	26096
830.524	26084
830.663	26043
830.802	25936
830.941	25696
831.08	25826
831.219	25841
831.357	25883
831.496	25966
831.635	25784
831.774	25734
831.913	25613
832.051	25700
832.19	25521
832.329	25586
832.467	25400
832.606	25487
832.744	25381
832.883	25396
833.022	25559
833.16	25396
833.299	25514
833.437	25445
833.576	25556
833.714	25613
833.852	25540
833.991	25476
834.129	25502
834.267	25742
834.406	25518
834.544	25537
834.682	25590
834.821	25533
834.959	25734
835.097	25419
835.235	25590
835.373	25400
835.511	25464
835.65	25403
835.788	25343
835.926	25209
836.064	25099
836.202	25061
836.34	25346
836.478	25521
836.615	25365
836.753	25358
836.891	25304
837.029	25331
837.167	25263
837.305	25209
837.443	25263
837.58	25228
837.718	25255
837.856	25289
837.993	25137
838.131	25118
838.269	25015
838.406	25046
838.544	24992
838.681	24852
838.819	24783
838.956	24555
839.094	24593
839.231	24711
839.369	24760
839.506	25015
839.643	24829
839.781	24700
839.918	24635
840.055	24589
840.193	24593
840.33	24604
840.467	24623
840.604	24616
840.742	24814
840.879	24483
841.016	24441
841.153	24361
841.29	24669
841.427	24593
841.564	24563
841.701	24498
841.838	24460
841.975	24410
842.112	24323
842.249	24388
842.385	24220
842.522	24486
842.659	24338
842.796	24350
842.933	24235
843.069	24102
843.206	24251
843.343	24357
843.479	24266
843.616	24342
843.752	24045
843.889	24140
844.025	24254
844.162	24068
844.298	24205
844.435	23999
844.571	24091
844.708	24114
844.844	24334
844.98	24224
845.117	24167
845.253	24034
845.389	23897
845.525	24030
845.661	23920
845.798	23771
845.934	23832
846.07	23836
846.206	23920
846.342	23885
846.478	23741
846.614	23531
846.75	23528
846.886	23653
847.022	23676
847.158	23604
847.294	23524
847.429	23535
847.565	23486
847.701	23684
847.837	23269
847.972	23178
848.108	23364
848.244	23223
848.379	23193
848.515	23162
848.65	23174
848.786	23117
848.921	23052
849.057	23200
849.192	23193
849.328	23121
849.463	23147
849.598	23083
849.734	23052
849.869	22980
850.004	22824
850.14	22961
850.275	22949
850.41	22755
850.545	22786
850.68	22900
850.815	22896
850.95	22869
851.085	23090
851.22	23033
851.355	22854
851.49	22919
851.625	22759
851.76	22927
851.895	22885
852.03	22904
852.165	22915
852.299	22850
852.434	22949
852.569	22965
852.703	22946
852.838	23060
852.973	22984
853.107	22995
853.242	22866
853.376	22596
853.511	22634
853.645	22569
853.78	22713
853.914	22706
854.048	22592
854.183	22660
854.317	22675
854.451	22862
854.585	22615
854.72	22634
854.854	22733
854.988	22660
855.122	22698
855.256	22527
855.39	22679
855.524	22691
855.658	22672
855.792	22729
855.926	22774
856.06	22641
856.194	22873
856.327	22771
856.461	22637
856.595	22717
856.729	22664
856.862	22774
856.996	22786
857.13	22820
857.263	22816
857.397	22809
857.53	22675
857.664	22854
857.797	22759
857.931	22752
858.064	22717
858.197	22755
858.331	22664
858.464	22683
858.597	22645
858.731	22786
858.864	22634
858.997	22618
859.13	22622
859.263	22618
859.396	22816
859.529	22736
859.662	22607
859.795	22527
859.928	22713
860.061	22866
860.194	22987
860.327	22706
860.46	22679
860.592	22858
860.725	22873
860.858	22748
860.99	22755
861.123	22634
861.256	22599
861.388	22759
861.521	23326
861.653	22489
861.786	22569
861.918	22622
862.05	22660
862.183	22557
862.315	22596
862.447	22622
862.58	22660
862.712	22417
862.844	22348
862.976	22596
863.108	22474
863.24	22828
863.372	22329
863.504	22413
863.636	22367
863.768	22462
863.9	22516
864.032	22219
864.164	22280
864.296	22409
864.428	22531
864.559	22493
864.691	22432
864.823	22512
864.954	22443
865.086	22276
865.217	22405
865.349	22253
865.48	22379
865.612	22337
865.743	22493
865.875	22291
866.006	22234
866.137	22314
866.269	22253
866.4	22402
866.531	22158
866.662	22131
866.793	22131
866.924	22173
867.055	22215
867.186	22192
867.317	22101
867.448	22090
867.579	22128
867.71	22128
867.841	22291
867.972	22169
868.103	22238
868.233	22215
868.364	22246
868.495	22246
868.625	22367
868.756	22565
868.886	22322
869.017	22367
869.147	22554
869.278	22497
869.408	22413
869.539	22443
869.669	22542
869.799	22398
869.929	22538
870.06	22569
870.19	22771
870.32	22649
870.45	22850
870.58	22793
870.71	22972
870.84	22980
870.97	22847
871.1	22866
871.23	23071
871.36	22923
871.489	23041
871.619	22934
871.749	22999
871.879	23193
872.008	23132
872.138	23181
872.267	23258
872.397	22873
872.526	22801
872.656	22889
872.785	22854
872.915	22999
873.044	23140
873.173	23006
873.303	23083
873.432	23136
873.561	23231
873.69	23166
873.819	23094
873.948	23185
874.077	23029
874.206	22965
874.335	22987
874.464	23166
874.593	23208
874.722	23143
874.851	23292
874.979	23265
875.108	23269
875.237	23200
875.365	23216
875.494	23368
875.623	23242
875.751	23136
875.88	23315
876.008	23440
876.136	23459
876.265	23615
876.393	23855
876.521	23623
876.65	23627
876.778	23649
876.906	23509
877.034	23653
877.162	23589
877.29	23467
877.418	23592
877.546	23585
877.674	23668
877.802	23615
877.93	23676
878.058	23653
878.185	23425
878.313	23516
878.441	23539
878.568	23414
878.696	23539
878.824	23627
878.951	23691
879.079	23729
879.206	23904
879.333	23813
879.461	23638
879.588	23646
879.715	23680
879.842	23851
879.97	23665
880.097	23402
880.224	23516
880.351	23566
880.478	23406
880.605	23334
880.732	23410
880.859	23665
880.986	23421
881.112	23467
881.239	23311
881.366	23216
881.493	23083
881.619	22995
881.746	22995
881.872	22991
881.999	22946
882.125	23033
882.252	22972
882.378	22991
882.505	23037
882.631	22866
882.757	22706
882.883	22729
883.01	22512
883.136	22569
883.262	22588
883.388	22523
883.514	22645
883.64	22622
883.766	22542
883.892	22428
884.018	22470
884.143	22607
884.269	22713
884.395	22341
884.52	22291
884.646	22249
884.772	22226
884.897	22204
885.023	22337
885.148	22337
885.274	22447
885.399	22337
885.524	22261
885.65	22360
885.775	22363
885.9	22211
886.025	22390
886.15	22329
886.275	22188
886.4	22112
886.525	22268
886.65	22207
886.775	22207
886.9	22375
887.025	22443
887.149	22246
887.274	22154
887.399	22078
887.523	22059
887.648	22021
887.773	21865
887.897	22101
888.021	22070
888.146	22097
888.27	22070
888.395	22226
888.519	22101
888.643	22086
888.767	22082
888.891	21975
889.015	21823
889.139	22032
889.263	21911
889.387	21876
889.511	21994
889.635	21994
889.759	21804
889.883	21812
890.006	21854
890.13	21884
890.254	21793
890.377	21846
890.501	21580
890.624	21485
890.748	21641
890.871	21542
890.995	21443
891.118	21325
891.241	21317
891.364	21450
891.488	21462
891.611	21317
891.734	21416
891.857	21504
891.98	21374
892.103	21382
892.226	21370
892.349	21275
892.471	21195
892.594	21332
892.717	21325
892.839	21317
892.962	21131
893.085	21348
893.207	21260
893.33	21085
893.452	21096
893.575	21317
893.697	21123
893.819	21382
893.941	21386
894.064	21412
894.186	21173
894.308	21173
894.43	21393
894.552	21367
894.674	21272
894.796	21146
894.918	21222
895.04	21256
895.161	21313
895.283	21294
895.405	21222
895.526	21272
895.648	21192
895.769	21264
895.891	21279
896.012	21370
896.134	21287
896.255	21424
896.376	21214
896.498	21283
896.619	21310
896.74	21222
896.861	21310
896.982	21587
897.103	21606
897.224	21466
897.345	21416
897.466	21405
897.587	21469
897.708	21572
897.828	21473
897.949	21428
898.07	21329
898.19	21363
898.311	21466
898.431	21462
898.552	21367
898.672	21428
898.792	21485
898.913	21447
899.033	21348
899.153	21252
899.273	21119
899.393	21108
899.513	21188
899.633	21154
899.753	21283
899.873	21192
899.993	21138
900.113	21047
900.232	21131
900.352	21024
900.472	21108
900.591	20883
900.711	21013
900.83	20845
900.95	21085
901.069	20963
901.189	20804
901.308	20537
901.427	20583
901.546	20594
901.665	20533
901.784	20480
901.904	20374
902.023	20320
902.141	20043
902.26	20100
902.379	20100
902.498	19944
902.617	19909
902.735	19989
902.854	19875
902.973	19974
903.091	19662
903.21	19674
903.328	19681
903.446	19544
903.565	19460
903.683	19480
903.801	19282
903.919	19411
904.038	19422
904.156	19187
904.274	19327
904.392	19213
904.51	19152
904.627	19107
904.745	19236
904.863	19175
904.981	19004
905.098	18932
905.216	18825
905.334	18943
905.451	18856
905.569	18791
905.686	18844
905.803	18837
905.921	18593
906.038	18852
906.155	18711
906.272	18544
906.389	18525
906.506	18540
906.623	18323
906.74	18350
906.857	18194
906.974	18376
907.091	18426
907.208	18464
907.324	18311
907.441	18285
907.557	18106
907.674	18003
907.79	18026
907.907	18022
908.023	18121
908.139	18114
908.256	18026
908.372	17954
908.488	17893
908.604	17901
908.72	17824
908.836	17855
908.952	17798
909.068	17931
909.184	17893
909.3	17745
909.415	17832
909.531	17843
909.647	17585
909.762	17474
909.878	17440
909.993	17406
910.108	17444
910.224	17482
910.339	17444
910.454	17376
910.57	17288
910.685	17242
910.8	17566
910.915	17543
911.03	17280
911.145	17166
911.259	17064
911.374	17090
911.489	17010
911.604	16968
911.718	16824
911.833	16866
911.947	16687
912.062	16721
912.176	16793
912.291	16831
912.405	16843
912.519	17056
912.633	16972
912.748	16968
912.862	16797
912.976	16816
913.09	16523
913.204	16626
913.318	16660
913.431	16649
913.545	16736
913.659	16828
913.772	16580
913.886	16538
914	16447
914.113	16500
914.226	16592
914.34	16599
914.453	16481
914.566	16481
914.68	16341
914.793	16295
914.906	16063
915.019	16109
915.132	15987
915.245	16040
915.358	15934
915.47	16116
915.583	16067
915.696	16010
915.809	16207
915.921	16112
916.034	15945
916.146	15991
916.259	15960
916.371	15991
916.483	15987
916.595	15774
916.708	15861
916.82	15789
916.932	15789
917.044	15774
917.156	15671
917.268	15629
917.38	15629
917.491	15652
917.603	15622
917.715	15800
917.826	15766
917.938	15572
918.049	15584
918.161	15561
918.272	15728
918.384	15690
918.495	15542
918.606	15595
918.717	15344
918.828	15401
918.939	15420
919.05	15332
919.161	15340
919.272	15138
919.383	15275
919.494	15424
919.604	15538
919.715	15405
919.826	15081
919.936	15317
920.047	15401
920.157	15268
920.267	15507
920.378	15393
920.488	15214
920.598	15504
920.708	15663
920.818	15492
920.928	15412
921.038	15477
921.148	15614
921.258	15279
921.368	15192
921.477	15154
921.587	15070
921.697	14937
921.806	15036
921.916	14948
922.025	14750
922.134	14575
922.244	14674
922.353	14758
922.462	14632
922.571	14457
922.68	14423
922.789	14362
922.898	14282
923.007	14199
923.116	14393
923.224	14259
923.333	14256
923.442	14229
923.55	14130
923.659	14218
923.767	14210
923.876	14145
923.984	14149
924.092	14043
924.201	14039
924.309	14073
924.417	14073
924.525	13944
924.633	13909
924.741	14887
924.849	13696
924.956	13936
925.064	13700
925.172	13674
925.279	13666
925.387	13708
925.494	13696
925.602	13860
925.709	13734
925.816	13590
925.924	13712
926.031	13723
926.138	13548
926.245	13643
926.352	13575
926.459	13681
926.566	13693
926.673	13575
926.779	13460
926.886	13350
926.993	13221
927.099	13266
927.206	13179
927.312	13266
927.419	13266
927.525	13274
927.631	13240
927.737	13122
927.843	12993
927.95	12932
928.056	13008
928.162	13046
928.267	13042
928.373	13655
928.479	13088
928.585	12890
928.69	13015
928.796	13015
928.901	12920
929.007	12806
929.112	12916
929.218	12821
929.323	12757
929.428	12753
929.533	12886
929.638	12692
929.743	12688
929.848	12757
929.953	12654
930.058	12608
930.163	12289
930.267	12471
930.372	12574
930.477	12296
930.581	12646
930.685	12452
930.79	12285
930.894	12350
930.998	12285
931.103	12429
931.207	12019
931.311	11927
931.415	11897
931.519	11722
931.623	11691
