Data from test_V78500241_761.txt Node
Date: Fri Mar 25 15:47:04 CST 2022
User: usil
Spectrometer: V785-0024
Trigger mode: 0
Integration Time (sec): 4.000000E-1
Scans to average: 1
Nonlinearity correction enabled: false
Boxcar width: 0
Storing dark spectrum: false
XAxis mode: Wavelengths
Number of Pixels in Spectrum: 1024
>>>>>Begin Spectral Data<<<<<
801.071	28070
801.214	27842
801.356	27644
801.499	27561
801.641	27523
801.783	27542
801.926	27507
802.068	27492
802.211	27378
802.353	27249
802.496	27146
802.638	27218
802.78	27058
802.923	27108
803.065	27123
803.208	27047
803.35	27066
803.492	27214
803.635	27226
803.777	27416
803.919	27275
804.061	27629
804.204	27408
804.346	27173
804.488	27184
804.63	27298
804.773	27218
804.915	27408
805.057	27538
805.199	27386
805.341	27500
805.483	27481
805.626	27340
805.768	27275
805.91	27378
806.052	27454
806.194	27348
806.336	27667
806.478	27526
806.62	27424
806.762	27469
806.904	27762
807.046	27937
807.188	27956
807.33	27907
807.472	27987
807.614	27819
807.756	27907
807.898	27762
808.04	27648
808.182	27587
808.324	27827
808.465	27850
808.607	27934
808.749	28051
808.891	28166
809.033	28204
809.174	28310
809.316	28177
809.458	28147
809.6	28246
809.741	28303
809.883	28284
810.025	28329
810.166	28318
810.308	28443
810.45	28394
810.591	28413
810.733	28238
810.875	28219
811.016	27975
811.158	27998
811.299	28265
811.441	28280
811.582	28291
811.724	28154
811.865	28147
812.007	28166
812.148	28154
812.29	28109
812.431	28360
812.573	28577
812.714	28569
812.855	28713
812.997	28767
813.138	28987
813.279	28839
813.421	28668
813.562	28706
813.703	28512
813.845	28367
813.986	28040
814.127	27918
814.268	27759
814.41	27991
814.551	27808
814.692	27956
814.833	27899
814.974	27732
815.115	27793
815.256	27682
815.397	27675
815.539	27732
815.68	27538
815.821	27458
815.962	27660
816.103	27610
816.244	27606
816.385	27367
816.526	27348
816.666	27116
816.807	27070
816.948	27157
817.089	27112
817.23	27222
817.371	27032
817.512	27211
817.653	27070
817.793	27085
817.934	27081
818.075	27157
818.216	27100
818.356	27081
818.497	26876
818.638	26792
818.778	26845
818.919	26739
819.06	26887
819.2	27024
819.341	27005
819.481	27047
819.622	27142
819.762	27450
819.903	27340
820.043	27313
820.184	27291
820.324	27112
820.465	27226
820.605	27241
820.746	27188
820.886	27074
821.026	27203
821.167	27192
821.307	27287
821.447	27047
821.588	27070
821.728	26830
821.868	26689
822.008	26689
822.149	26701
822.289	26564
822.429	26355
822.569	26168
822.709	26164
822.849	26267
822.99	26119
823.13	26145
823.27	26039
823.41	25864
823.55	25788
823.69	25989
823.83	25997
823.97	25909
824.11	25723
824.25	25689
824.389	25578
824.529	25780
824.669	25822
824.809	25906
824.949	25875
825.089	25731
825.228	25849
825.368	25537
825.508	25582
825.648	25586
825.787	25685
825.927	25708
826.067	25529
826.206	25616
826.346	25639
826.485	25651
826.625	25632
826.765	25624
826.904	25540
827.044	25392
827.183	25308
827.323	25225
827.462	25384
827.601	25217
827.741	25198
827.88	25365
828.02	25327
828.159	25403
828.298	25316
828.437	25354
828.577	25411
828.716	25499
828.855	25137
828.994	24913
829.134	24989
829.273	25065
829.412	25080
829.551	24939
829.69	24901
829.829	24943
829.968	25031
830.107	25156
830.246	25099
830.385	25053
830.524	24897
830.663	24939
830.802	24696
830.941	24578
831.08	24597
831.219	24738
831.357	24798
831.496	24928
831.635	24578
831.774	24563
831.913	24525
832.051	24490
832.19	24342
832.329	24338
832.467	24289
832.606	24171
832.744	24266
832.883	24277
833.022	24296
833.16	24277
833.299	24224
833.437	24372
833.576	24384
833.714	24308
833.852	24467
833.991	24479
834.129	24505
834.267	24555
834.406	24380
834.544	24350
834.682	24418
834.821	24327
834.959	24422
835.097	24266
835.235	24509
835.373	24300
835.511	24437
835.65	24178
835.788	24232
835.926	24057
836.064	24083
836.202	24079
836.34	24163
836.478	24239
836.615	24205
836.753	24209
836.891	24292
837.029	24194
837.167	24182
837.305	24079
837.443	24030
837.58	23980
837.718	23984
837.856	24083
837.993	24030
838.131	24003
838.269	23954
838.406	23851
838.544	23901
838.681	23615
838.819	23653
838.956	23577
839.094	23592
839.231	23585
839.369	23600
839.506	23977
839.643	23737
839.781	23516
839.918	23471
840.055	23547
840.193	23474
840.33	23512
840.467	23463
840.604	23551
840.742	23885
840.879	23345
841.016	23395
841.153	23322
841.29	23543
841.427	23372
841.564	23455
841.701	23288
841.838	23303
841.975	23410
842.112	23235
842.249	23193
842.385	23288
842.522	23444
842.659	23337
842.796	23231
842.933	23147
843.069	23155
843.206	23121
843.343	23280
843.479	23181
843.616	23223
843.752	22980
843.889	22946
844.025	23044
844.162	22976
844.298	23075
844.435	23060
844.571	22957
844.708	22923
844.844	23132
844.98	23109
845.117	23075
845.253	22923
845.389	22820
845.525	22908
845.661	22759
845.798	22637
845.934	22782
846.07	22706
846.206	22687
846.342	22786
846.478	22592
846.614	22504
846.75	22432
846.886	22394
847.022	22417
847.158	22382
847.294	22470
847.429	22447
847.565	22459
847.701	22580
847.837	22147
847.972	22158
848.108	22238
848.244	22226
848.379	22067
848.515	22010
848.65	21960
848.786	22002
848.921	21899
849.057	22044
849.192	22147
849.328	22162
849.463	21994
849.598	22074
849.734	21941
849.869	21686
850.004	21747
850.14	21797
850.275	21709
850.41	21633
850.545	21694
850.68	21724
850.815	21831
850.95	21816
851.085	21926
851.22	21857
851.355	21732
851.49	21671
851.625	21682
851.76	21641
851.895	21842
852.03	21720
852.165	21743
852.299	21755
852.434	21937
852.569	21755
852.703	21850
852.838	21949
852.973	21998
853.107	21831
853.242	21785
853.376	21591
853.511	21492
853.645	21557
853.78	21644
853.914	21644
854.048	21511
854.183	21564
854.317	21561
854.451	21766
854.585	21580
854.72	21580
854.854	21637
854.988	21629
855.122	21504
855.256	21523
855.39	21485
855.524	21660
855.658	21641
855.792	21603
855.926	21557
856.06	21618
856.194	21686
856.327	21454
856.461	21458
856.595	21481
856.729	21648
856.862	21800
856.996	21682
857.13	21439
857.263	21660
857.397	21644
857.53	21500
857.664	21705
857.797	21603
857.931	21709
858.064	21675
858.197	21667
858.331	21606
858.464	21439
858.597	21507
858.731	21587
858.864	21466
858.997	21447
859.13	21713
859.263	21686
859.396	21827
859.529	21572
859.662	21523
859.795	21576
859.928	21610
860.061	21682
860.194	21911
860.327	21736
860.46	21682
860.592	21652
860.725	21736
860.858	21739
860.99	21751
861.123	21519
861.256	21599
861.388	21641
861.521	22196
861.653	21450
861.786	21389
861.918	21412
862.05	21469
862.183	21428
862.315	21553
862.447	21542
862.58	21492
862.712	21294
862.844	21313
862.976	21336
863.108	21367
863.24	21759
863.372	21279
863.504	21313
863.636	21161
863.768	21359
863.9	21359
864.032	21283
864.164	21222
864.296	21363
864.428	21367
864.559	21359
864.691	21386
864.823	21207
864.954	21313
865.086	21317
865.217	21291
865.349	21184
865.48	21195
865.612	21256
865.743	21279
865.875	21180
866.006	21077
866.137	21241
866.269	21207
866.4	21256
866.531	21192
866.662	21093
866.793	21104
866.924	21142
867.055	21283
867.186	21165
867.317	21032
867.448	21119
867.579	21005
867.71	20937
867.841	21131
867.972	21127
868.103	21017
868.233	21131
868.364	21066
868.495	21268
868.625	21382
868.756	21405
868.886	21226
869.017	21363
869.147	21466
869.278	21515
869.408	21488
869.539	21481
869.669	21447
869.799	21424
869.929	21542
870.06	21542
870.19	21633
870.32	21770
870.45	21614
870.58	21709
870.71	21766
870.84	21842
870.97	21736
871.1	21762
871.23	21926
871.36	21983
871.489	21846
871.619	21956
871.749	21937
871.879	21983
872.008	22048
872.138	22029
872.267	21842
872.397	21907
872.526	21865
872.656	21899
872.785	21709
872.915	21975
873.044	22055
873.173	21983
873.303	21918
873.432	21975
873.561	22112
873.69	22013
873.819	22048
873.948	21998
874.077	22131
874.206	21953
874.335	21835
874.464	22192
874.593	22169
874.722	22101
874.851	22265
874.979	22215
875.108	22242
875.237	22169
875.365	22002
875.494	22162
875.623	22280
875.751	22192
875.88	22318
876.008	22284
876.136	22318
876.265	22519
876.393	22736
876.521	22778
876.65	22630
876.778	22538
876.906	22516
877.034	22573
877.162	22573
877.29	22546
877.418	22569
877.546	22542
877.674	22508
877.802	22531
877.93	22466
878.058	22497
878.185	22485
878.313	22527
878.441	22436
878.568	22322
878.696	22394
878.824	22538
878.951	22603
879.079	22740
879.206	22843
879.333	22687
879.461	22611
879.588	22694
879.715	22694
879.842	22790
879.97	22596
880.097	22322
880.224	22481
880.351	22424
880.478	22481
880.605	22276
880.732	22367
880.859	22516
880.986	22337
881.112	22462
881.239	22226
881.366	22078
881.493	22063
881.619	21949
881.746	22002
881.872	21926
881.999	21934
882.125	21827
882.252	22059
882.378	22021
882.505	22017
882.631	21759
882.757	21538
882.883	21698
883.01	21713
883.136	21576
883.262	21507
883.388	21530
883.514	21568
883.64	21793
883.766	21454
883.892	21378
884.018	21401
884.143	21534
884.269	21679
884.395	21428
884.52	21173
884.646	21355
884.772	21180
884.897	21157
885.023	21321
885.148	21355
885.274	21447
885.399	21340
885.524	21252
885.65	21279
885.775	21325
885.9	21279
886.025	21329
886.15	21325
886.275	21199
886.4	21241
886.525	21173
886.65	21096
886.775	21184
886.9	21397
887.025	21359
887.149	21237
887.274	21157
887.399	20986
887.523	21093
887.648	21001
887.773	20910
887.897	21146
888.021	21047
888.146	21028
888.27	21135
888.395	21199
888.519	21043
888.643	21036
888.767	21066
888.891	20861
889.015	20823
889.139	20876
889.263	20792
889.387	20914
889.511	21055
889.635	20891
889.759	20823
889.883	20830
890.006	20883
890.13	20857
890.254	20819
890.377	20682
890.501	20606
890.624	20701
890.748	20625
890.871	20469
890.995	20343
891.118	20309
891.241	20400
891.364	20221
891.488	20537
891.611	20396
891.734	20339
891.857	20552
891.98	20389
892.103	20446
892.226	20393
892.349	20332
892.471	20183
892.594	20370
892.717	20381
892.839	20332
892.962	20404
893.085	20408
893.207	20301
893.33	20233
893.452	20199
893.575	20336
893.697	20263
893.819	20488
893.941	20526
894.064	20484
894.186	20233
894.308	20176
894.43	20396
894.552	20492
894.674	20362
894.796	20275
894.918	20290
895.04	20195
895.161	20324
895.283	20275
895.405	20164
895.526	20225
895.648	20263
895.769	20393
895.891	20374
896.012	20434
896.134	20328
896.255	20309
896.376	20271
896.498	20248
896.619	20408
896.74	20221
896.861	20324
896.982	20568
897.103	20705
897.224	20659
897.345	20606
897.466	20484
897.587	20533
897.708	20670
897.828	20629
897.949	20484
898.07	20282
898.19	20454
898.311	20674
898.431	20366
898.552	20560
898.672	20545
898.792	20575
898.913	20526
899.033	20526
899.153	20393
899.273	20244
899.393	20275
899.513	20271
899.633	20278
899.753	20320
899.873	20149
899.993	20259
900.113	20263
900.232	20202
900.352	20126
900.472	20031
900.591	20027
900.711	20168
900.83	20039
900.95	20073
901.069	20077
901.189	20031
901.308	19833
901.427	19620
901.546	19590
901.665	19567
901.784	19613
901.904	19521
902.023	19403
902.141	19228
902.26	19095
902.379	19202
902.498	19175
902.617	19126
902.735	19160
902.854	19061
902.973	19103
903.091	18806
903.21	18730
903.328	18802
903.446	18601
903.565	18707
903.683	18544
903.801	18445
903.919	18555
904.038	18559
904.156	18323
904.274	18452
904.392	18391
904.51	18319
904.627	18315
904.745	18403
904.863	18410
904.981	18171
905.098	17980
905.216	18034
905.334	17988
905.451	18110
905.569	18087
905.686	18136
905.803	17965
905.921	17855
906.038	18091
906.155	17866
906.272	17775
906.389	17863
906.506	17623
906.623	17680
906.74	17554
906.857	17406
906.974	17486
907.091	17649
907.208	17684
907.324	17619
907.441	17528
907.557	17360
907.674	17387
907.79	17288
907.907	17265
908.023	17406
908.139	17303
908.256	17235
908.372	17204
908.488	17250
908.604	17094
908.72	17045
908.836	17064
908.952	16953
909.068	17094
909.184	17045
909.3	17033
909.415	17071
909.531	17045
909.647	16744
909.762	16702
909.878	16725
909.993	16828
910.108	16812
910.224	16748
910.339	16687
910.454	16607
910.57	16451
910.685	16462
910.8	16736
910.915	16687
911.03	16447
911.145	16352
911.259	16249
911.374	16337
911.489	16249
911.604	16223
911.718	16154
911.833	16071
911.947	15983
912.062	15930
912.176	16093
912.291	16021
912.405	16078
912.519	16371
912.633	16382
912.748	15994
912.862	15972
912.976	15888
913.09	15766
913.204	15766
913.318	15953
913.431	16017
913.545	15960
913.659	15930
913.772	15785
913.886	15652
914	15618
914.113	15751
914.226	15732
914.34	15724
914.453	15488
914.566	15774
914.68	15591
914.793	15587
914.906	15447
915.019	15317
915.132	15370
915.245	15268
915.358	15317
915.47	15393
915.583	15294
915.696	15321
915.809	15351
915.921	15378
916.034	15264
916.146	15131
916.259	15135
916.371	15298
916.483	15306
916.595	15077
916.708	15047
916.82	15028
916.932	15138
917.044	15089
917.156	15085
917.268	14925
917.38	14914
917.491	14876
917.603	15020
917.715	14929
917.826	15081
917.938	14857
918.049	14743
918.161	14929
918.272	15039
918.384	15005
918.495	14918
918.606	14667
918.717	14674
918.828	14644
918.939	14678
919.05	14644
919.161	14754
919.272	14514
919.383	14503
919.494	14705
919.604	14868
919.715	14735
919.826	14606
919.936	14670
920.047	14678
920.157	14625
920.267	14910
920.378	14651
920.488	14724
920.598	14815
920.708	14948
920.818	14823
920.928	14796
921.038	14937
921.148	14883
921.258	14621
921.368	14518
921.477	14377
921.587	14374
921.697	14275
921.806	14259
921.916	14248
922.025	14130
922.134	14031
922.244	13997
922.353	14005
922.462	13894
922.571	13811
922.68	13674
922.789	13685
922.898	13609
923.007	13639
923.116	13708
923.224	13594
923.333	13506
923.442	13468
923.55	13510
923.659	13537
923.767	13533
923.876	13491
923.984	13548
924.092	13365
924.201	13411
924.309	13491
924.417	13350
924.525	13259
924.633	13324
924.741	14218
924.849	13122
924.956	13282
925.064	13061
925.172	13008
925.279	13034
925.387	13103
925.494	13107
925.602	13228
925.709	13084
925.816	13046
925.924	13118
926.031	13183
926.138	13088
926.245	13019
926.352	12837
926.459	13023
926.566	13156
926.673	12962
926.779	12848
926.886	12825
926.993	12738
927.099	12604
927.206	12585
927.312	12578
927.419	12684
927.525	12662
927.631	12665
927.737	12479
927.843	12486
927.95	12490
928.056	12490
928.162	12494
928.267	12464
928.373	13012
928.479	12582
928.585	12277
928.69	12433
928.796	12460
928.901	12311
929.007	12209
929.112	12315
929.218	12254
929.323	12175
929.428	12296
929.533	12243
929.638	12155
929.743	12251
929.848	12209
929.953	12041
930.058	11999
930.163	11859
930.267	11939
930.372	11973
930.477	11866
930.581	12034
930.685	11882
930.79	11699
930.894	11786
930.998	11760
931.103	11889
931.207	11474
931.311	11436
931.415	11452
931.519	11193
931.623	11235
