Data from test_V78500241_2311.txt Node
Date: Fri Mar 25 15:57:48 CST 2022
User: usil
Spectrometer: V785-0024
Trigger mode: 0
Integration Time (sec): 4.000000E-1
Scans to average: 1
Nonlinearity correction enabled: false
Boxcar width: 0
Storing dark spectrum: false
XAxis mode: Wavelengths
Number of Pixels in Spectrum: 1024
>>>>>Begin Spectral Data<<<<<
801.071	28835
801.214	28831
801.356	28740
801.499	28569
801.641	28401
801.783	28375
801.926	28504
802.068	28405
802.211	28451
802.353	28192
802.496	28124
802.638	28200
802.78	28044
802.923	28010
803.065	27960
803.208	28006
803.35	28090
803.492	28124
803.635	28287
803.777	28257
803.919	28341
804.061	28645
804.204	28318
804.346	28417
804.488	28154
804.63	28409
804.773	28200
804.915	28489
805.057	28557
805.199	28204
805.341	28508
805.483	28398
805.626	28360
805.768	28386
805.91	28516
806.052	28470
806.194	28322
806.336	28713
806.478	28584
806.62	28504
806.762	28679
806.904	28820
807.046	29037
807.188	28961
807.33	28847
807.472	28900
807.614	29041
807.756	29075
807.898	28919
808.04	28698
808.182	28816
808.324	28866
808.465	29003
808.607	29006
808.749	29151
808.891	29273
809.033	29448
809.174	29265
809.316	29178
809.458	29299
809.6	28961
809.741	29307
809.883	29326
810.025	29368
810.166	29570
810.308	29577
810.45	29368
810.591	29455
810.733	29387
810.875	29231
811.016	29098
811.158	29044
811.299	29345
811.441	29448
811.582	29433
811.724	29406
811.865	29155
812.007	29296
812.148	29181
812.29	29197
812.431	29448
812.573	29463
812.714	29630
812.855	29866
812.997	29748
813.138	29988
813.279	29950
813.421	29718
813.562	29672
813.703	29718
813.845	29486
813.986	29174
814.127	29181
814.268	28946
814.41	28797
814.551	28888
814.692	28927
814.833	28752
814.974	28820
815.115	29003
815.256	28725
815.397	28736
815.539	28908
815.68	28660
815.821	28755
815.962	28717
816.103	28729
816.244	28653
816.385	28440
816.526	28550
816.666	28280
816.807	28154
816.948	28432
817.089	28470
817.23	28295
817.371	28234
817.512	28219
817.653	28188
817.793	28158
817.934	28120
818.075	28303
818.216	28211
818.356	28143
818.497	28086
818.638	27953
818.778	27907
818.919	28032
819.06	28044
819.2	28272
819.341	28276
819.481	28173
819.622	28382
819.762	28752
819.903	28607
820.043	28622
820.184	28462
820.324	28367
820.465	28375
820.605	28493
820.746	28386
820.886	28211
821.026	28497
821.167	28443
821.307	28417
821.447	28226
821.588	28268
821.728	28097
821.868	27895
822.008	27770
822.149	27766
822.289	27671
822.429	27492
822.569	27313
822.709	27473
822.849	27135
822.99	27287
823.13	27150
823.27	27169
823.41	27157
823.55	26990
823.69	27192
823.83	27017
823.97	27066
824.11	26940
824.25	26819
824.389	26777
824.529	26960
824.669	26819
824.809	27112
824.949	26910
825.089	26921
825.228	26975
825.368	26788
825.508	26807
825.648	26838
825.787	26819
825.927	26883
826.067	26712
826.206	26788
826.346	26933
826.485	26804
826.625	26758
826.765	26876
826.904	26956
827.044	26533
827.183	26522
827.323	26259
827.462	26495
827.601	26476
827.741	26476
827.88	26446
828.02	26317
828.159	26480
828.298	26549
828.437	26533
828.577	26393
828.716	26564
828.855	26366
828.994	26221
829.134	26172
829.273	26218
829.412	26172
829.551	26122
829.69	26062
829.829	26229
829.968	26347
830.107	26225
830.246	26164
830.385	26081
830.524	25951
830.663	25936
830.802	25860
830.941	25727
831.08	25750
831.219	25765
831.357	25742
831.496	25982
831.635	25784
831.774	25696
831.913	25708
832.051	25476
832.19	25495
832.329	25563
832.467	25495
832.606	25396
832.744	25434
832.883	25487
833.022	25472
833.16	25407
833.299	25460
833.437	25510
833.576	25502
833.714	25544
833.852	25643
833.991	25582
834.129	25575
834.267	25537
834.406	25624
834.544	25453
834.682	25529
834.821	25521
834.959	25719
835.097	25384
835.235	25487
835.373	25468
835.511	25441
835.65	25324
835.788	25369
835.926	25206
836.064	25019
836.202	25164
836.34	25274
836.478	25327
836.615	25240
836.753	25232
836.891	25487
837.029	25430
837.167	25228
837.305	25308
837.443	25217
837.58	25225
837.718	25206
837.856	25110
837.993	25023
838.131	25065
838.269	25038
838.406	25023
838.544	24935
838.681	24715
838.819	24840
838.956	24566
839.094	24570
839.231	24620
839.369	24802
839.506	25118
839.643	24738
839.781	24665
839.918	24521
840.055	24582
840.193	24570
840.33	24505
840.467	24505
840.604	24650
840.742	24791
840.879	24475
841.016	24528
841.153	24369
841.29	24582
841.427	24483
841.564	24483
841.701	24593
841.838	24467
841.975	24323
842.112	24315
842.249	24300
842.385	24296
842.522	24399
842.659	24327
842.796	24296
842.933	24277
843.069	24228
843.206	24155
843.343	24220
843.479	24155
843.616	24361
843.752	24133
843.889	23996
844.025	24095
844.162	23920
844.298	24209
844.435	24049
844.571	24060
844.708	24106
844.844	24190
844.98	24209
845.117	23992
845.253	24060
845.389	23950
845.525	23977
845.661	23885
845.798	23627
845.934	23764
846.07	23687
846.206	23843
846.342	23908
846.478	23828
846.614	23543
846.75	23410
846.886	23604
847.022	23539
847.158	23562
847.294	23402
847.429	23398
847.565	23505
847.701	23653
847.837	23242
847.972	23368
848.108	23292
848.244	23227
848.379	23105
848.515	23056
848.65	23022
848.786	23147
848.921	23064
849.057	23216
849.192	23075
849.328	23102
849.463	22984
849.598	23124
849.734	22896
849.869	22980
850.004	22896
850.14	22752
850.275	22790
850.41	22778
850.545	22782
850.68	22778
850.815	22812
850.95	22790
851.085	23037
851.22	22866
851.355	22850
851.49	22725
851.625	22831
851.76	22850
851.895	22675
852.03	22786
852.165	22862
852.299	22835
852.434	22896
852.569	22790
852.703	22854
852.838	22885
852.973	22889
853.107	22991
853.242	22698
853.376	22767
853.511	22546
853.645	22550
853.78	22820
853.914	22656
854.048	22675
854.183	22649
854.317	22767
854.451	22824
854.585	22672
854.72	22653
854.854	22809
854.988	22554
855.122	22710
855.256	22485
855.39	22713
855.524	22672
855.658	22622
855.792	22679
855.926	22767
856.06	22641
856.194	22706
856.327	22675
856.461	22656
856.595	22580
856.729	22694
856.862	22717
856.996	22649
857.13	22675
857.263	22877
857.397	22729
857.53	22603
857.664	22710
857.797	22816
857.931	22828
858.064	22679
858.197	22854
858.331	22557
858.464	22512
858.597	22474
858.731	22611
858.864	22622
858.997	22645
859.13	22626
859.263	22596
859.396	22717
859.529	22637
859.662	22569
859.795	22508
859.928	22672
860.061	22786
860.194	22702
860.327	22793
860.46	22573
860.592	22744
860.725	22793
860.858	22930
860.99	22649
861.123	22607
861.256	22588
861.388	22592
861.521	23459
861.653	22481
861.786	22523
861.918	22447
862.05	22474
862.183	22580
862.315	22599
862.447	22683
862.58	22626
862.712	22386
862.844	22280
862.976	22436
863.108	22478
863.24	22881
863.372	22188
863.504	22405
863.636	22287
863.768	22421
863.9	22303
864.032	22314
864.164	22386
864.296	22402
864.428	22394
864.559	22474
864.691	22455
864.823	22348
864.954	22303
865.086	22322
865.217	22325
865.349	22207
865.48	22177
865.612	22257
865.743	22375
865.875	22223
866.006	22154
866.137	22268
866.269	22226
866.4	22135
866.531	22131
866.662	22147
866.793	22154
866.924	22169
867.055	22169
867.186	22059
867.317	22078
867.448	22051
867.579	22253
867.71	21956
867.841	22074
867.972	22139
868.103	22032
868.233	22135
868.364	22120
868.495	22246
868.625	22417
868.756	22485
868.886	22257
869.017	22417
869.147	22466
869.278	22645
869.408	22386
869.539	22504
869.669	22485
869.799	22516
869.929	22462
870.06	22409
870.19	22577
870.32	22660
870.45	22790
870.58	22710
870.71	22934
870.84	22904
870.97	22790
871.1	22805
871.23	22984
871.36	23018
871.489	22915
871.619	22946
871.749	22968
871.879	23033
872.008	23018
872.138	22949
872.267	23086
872.397	22930
872.526	22824
872.656	22702
872.785	22934
872.915	23117
873.044	23140
873.173	22923
873.303	23170
873.432	23090
873.561	23117
873.69	23185
873.819	22919
873.948	23128
874.077	22991
874.206	22953
874.335	23124
874.464	23132
874.593	23254
874.722	23178
874.851	23231
874.979	23185
875.108	23330
875.237	23117
875.365	23048
875.494	23151
875.623	23277
875.751	23197
875.88	23368
876.008	23360
876.136	23387
876.265	23630
876.393	23760
876.521	23748
876.65	23756
876.778	23661
876.906	23531
877.034	23729
877.162	23486
877.29	23429
877.418	23554
877.546	23570
877.674	23543
877.802	23535
877.93	23478
878.058	23478
878.185	23467
878.313	23452
878.441	23433
878.568	23368
878.696	23402
878.824	23665
878.951	23581
879.079	23752
879.206	23847
879.333	23703
879.461	23638
879.588	23562
879.715	23722
879.842	23775
879.97	23566
880.097	23528
880.224	23307
880.351	23353
880.478	23440
880.605	23341
880.732	23383
880.859	23642
880.986	23452
881.112	23273
881.239	23121
881.366	23174
881.493	23128
881.619	23083
881.746	22911
881.872	22911
881.999	22991
882.125	22911
882.252	22949
882.378	22854
882.505	22938
882.631	22820
882.757	22573
882.883	22672
883.01	22656
883.136	22580
883.262	22538
883.388	22478
883.514	22596
883.64	22710
883.766	22455
883.892	22207
884.018	22462
884.143	22485
884.269	22679
884.395	22246
884.52	22166
884.646	22226
884.772	22097
884.897	22135
885.023	22242
885.148	22246
885.274	22382
885.399	22280
885.524	22211
885.65	22192
885.775	22344
885.9	22181
886.025	22295
886.15	22196
886.275	22272
886.4	22215
886.525	22185
886.65	22147
886.775	22017
886.9	22291
887.025	22405
887.149	22246
887.274	22017
887.399	22010
887.523	22029
887.648	21930
887.773	21915
887.897	22040
888.021	22055
888.146	22055
888.27	22036
888.395	22059
888.519	22070
888.643	22067
888.767	22078
888.891	21861
889.015	21816
889.139	21736
889.263	21808
889.387	21956
889.511	21930
889.635	21934
889.759	21800
889.883	21797
890.006	21865
890.13	21865
890.254	21778
890.377	21736
890.501	21538
890.624	21511
890.748	21473
890.871	21389
890.995	21340
891.118	21268
891.241	21287
891.364	21386
891.488	21424
891.611	21458
891.734	21332
891.857	21466
891.98	21370
892.103	21344
892.226	21173
892.349	21317
892.471	21207
892.594	21176
892.717	21195
892.839	21180
892.962	21359
893.085	21249
893.207	21203
893.33	21180
893.452	21123
893.575	21275
893.697	21173
893.819	21310
893.941	21454
894.064	21378
894.186	21146
894.308	21169
894.43	21287
894.552	21302
894.674	21249
894.796	21028
894.918	21127
895.04	21203
895.161	21325
895.283	21195
895.405	21116
895.526	21233
895.648	21161
895.769	21169
895.891	21363
896.012	21378
896.134	21230
896.255	21176
896.376	21104
896.498	21192
896.619	21131
896.74	21199
896.861	21222
896.982	21450
897.103	21595
897.224	21389
897.345	21492
897.466	21344
897.587	21587
897.708	21488
897.828	21454
897.949	21344
898.07	21294
898.19	21344
898.311	21473
898.431	21344
898.552	21283
898.672	21496
898.792	21481
898.913	21504
899.033	21287
899.153	21135
899.273	21074
899.393	21150
899.513	21203
899.633	21058
899.753	21256
899.873	21036
899.993	21203
900.113	21131
900.232	21157
900.352	21036
900.472	20956
900.591	20891
900.711	21009
900.83	20777
900.95	20944
901.069	21028
901.189	20785
901.308	20594
901.427	20400
901.546	20492
901.665	20507
901.784	20339
901.904	20206
902.023	20313
902.141	20024
902.26	20008
902.379	20096
902.498	19887
902.617	19959
902.735	19909
902.854	19917
902.973	19898
903.091	19655
903.21	19712
903.328	19502
903.446	19518
903.565	19445
903.683	19419
903.801	19194
903.919	19415
904.038	19529
904.156	19259
904.274	19137
904.392	19137
904.51	19148
904.627	19148
904.745	19278
904.863	19198
904.981	18947
905.098	18806
905.216	18848
905.334	18798
905.451	18810
905.569	18700
905.686	18916
905.803	18806
905.921	18616
906.038	18734
906.155	18715
906.272	18593
906.389	18620
906.506	18353
906.623	18353
906.74	18422
906.857	18251
906.974	18262
907.091	18388
907.208	18483
907.324	18433
907.441	18197
907.557	18155
907.674	18072
907.79	18068
907.907	18133
908.023	18015
908.139	18079
908.256	18064
908.372	17893
908.488	17912
908.604	17843
908.72	17805
908.836	17786
908.952	17771
909.068	17722
909.184	17855
909.3	17802
909.415	17760
909.531	17741
909.647	17543
909.762	17535
909.878	17455
909.993	17467
910.108	17440
910.224	17478
910.339	17471
910.454	17311
910.57	17277
910.685	17330
910.8	17429
910.915	17406
911.03	17292
911.145	17052
911.259	17060
911.374	17113
911.489	16927
911.604	16923
911.718	16828
911.833	16729
911.947	16755
912.062	16603
912.176	16721
912.291	16904
912.405	16866
912.519	16908
912.633	16858
912.748	16771
912.862	16687
912.976	16561
913.09	16440
913.204	16561
913.318	16611
913.431	16668
913.545	16580
913.659	16653
913.772	16535
913.886	16493
914	16413
914.113	16394
914.226	16474
914.34	16519
914.453	16166
914.566	16367
914.68	16337
914.793	16242
914.906	16036
915.019	15987
915.132	15968
915.245	16021
915.358	16010
915.47	16036
915.583	16086
915.696	16010
915.809	16097
915.921	16135
916.034	15899
916.146	15827
916.259	15869
916.371	15861
916.483	15888
916.595	15804
916.708	15800
916.82	15785
916.932	15633
917.044	15690
917.156	15686
917.268	15622
917.38	15648
917.491	15759
917.603	15656
917.715	15633
917.826	15675
917.938	15485
918.049	15397
918.161	15572
918.272	15694
918.384	15538
918.495	15469
918.606	15374
918.717	15321
918.828	15393
918.939	15325
919.05	15222
919.161	15359
919.272	15116
919.383	15165
919.494	15370
919.604	15485
919.715	15260
919.826	15222
919.936	15161
920.047	15370
920.157	15340
920.267	15496
920.378	15340
920.488	15116
920.598	15435
920.708	15545
920.818	15439
920.928	15500
921.038	15584
921.148	15549
921.258	15321
921.368	15214
921.477	15047
921.587	15051
921.697	14845
921.806	15043
921.916	14857
922.025	14758
922.134	14716
922.244	14750
922.353	14678
922.462	14476
922.571	14423
922.68	14305
922.789	14221
922.898	14336
923.007	14233
923.116	14309
923.224	14290
923.333	14286
923.442	14240
923.55	14218
923.659	14100
923.767	14164
923.876	14039
923.984	14142
924.092	13951
924.201	14126
924.309	14020
924.417	14046
924.525	13936
924.633	13811
924.741	14948
924.849	13677
924.956	13837
925.064	13715
925.172	13689
925.279	13719
925.387	13719
925.494	13575
925.602	13780
925.709	13628
925.816	13594
925.924	13639
926.031	13693
926.138	13575
926.245	13601
926.352	13510
926.459	13666
926.566	13674
926.673	13586
926.779	13377
926.886	13407
926.993	13331
927.099	13297
927.206	13278
927.312	13175
927.419	13225
927.525	13228
927.631	13213
927.737	13129
927.843	13072
927.95	13015
928.056	13012
928.162	13050
928.267	13038
928.373	13624
928.479	13088
928.585	12783
928.69	12909
928.796	12973
928.901	12928
929.007	12745
929.112	12939
929.218	12829
929.323	12726
929.428	12764
929.533	12840
929.638	12627
929.743	12669
929.848	12650
929.953	12677
930.058	12517
930.163	12407
930.267	12445
930.372	12517
930.477	12277
930.581	12585
930.685	12483
930.79	12262
930.894	12273
930.998	12258
931.103	12292
931.207	12076
931.311	11977
931.415	11840
931.519	11680
931.623	11623
