Data from test_V78500241_3469.txt Node
Date: Fri Mar 25 16:05:49 CST 2022
User: usil
Spectrometer: V785-0024
Trigger mode: 0
Integration Time (sec): 4.000000E-1
Scans to average: 1
Nonlinearity correction enabled: false
Boxcar width: 0
Storing dark spectrum: false
XAxis mode: Wavelengths
Number of Pixels in Spectrum: 1024
>>>>>Begin Spectral Data<<<<<
801.071	29022
801.214	28953
801.356	28729
801.499	28740
801.641	28592
801.783	28459
801.926	28596
802.068	28542
802.211	28664
802.353	28618
802.496	28352
802.638	28299
802.78	28382
802.923	28223
803.065	28181
803.208	28303
803.35	28478
803.492	28455
803.635	28474
803.777	28519
803.919	28508
804.061	28915
804.204	28744
804.346	28637
804.488	28443
804.63	28668
804.773	28497
804.915	28653
805.057	28824
805.199	28428
805.341	28740
805.483	28752
805.626	28580
805.768	28607
805.91	28820
806.052	28782
806.194	28702
806.336	28881
806.478	28782
806.62	28725
806.762	29041
806.904	29060
807.046	29277
807.188	29296
807.33	29197
807.472	29231
807.614	29208
807.756	29296
807.898	29056
808.04	28946
808.182	29109
808.324	29113
808.465	29102
808.607	29368
808.749	29452
808.891	29562
809.033	29562
809.174	29474
809.316	29589
809.458	29505
809.6	29455
809.741	29604
809.883	29741
810.025	29748
810.166	29691
810.308	29741
810.45	29748
810.591	29493
810.733	29463
810.875	29440
811.016	29387
811.158	29372
811.299	29573
811.441	29714
811.582	29585
811.724	29433
811.865	29414
812.007	29486
812.148	29577
812.29	29554
812.431	29604
812.573	29973
812.714	29912
812.855	30064
812.997	30129
813.138	30292
813.279	30095
813.421	30106
813.562	29828
813.703	29752
813.845	29817
813.986	29467
814.127	29204
814.268	29208
814.41	29166
814.551	29223
814.692	29254
814.833	29258
814.974	29235
815.115	29200
815.256	29071
815.397	29132
815.539	29121
815.68	28942
815.821	28911
815.962	29029
816.103	28999
816.244	28778
816.385	28755
816.526	28774
816.666	28565
816.807	28500
816.948	28557
817.089	28733
817.23	28535
817.371	28675
817.512	28474
817.653	28489
817.793	28527
817.934	28599
818.075	28603
818.216	28512
818.356	28500
818.497	28428
818.638	28333
818.778	28352
818.919	28371
819.06	28337
819.2	28432
819.341	28580
819.481	28550
819.622	28683
819.762	28908
819.903	28790
820.043	28729
820.184	28713
820.324	28748
820.465	28641
820.605	28694
820.746	28577
820.886	28512
821.026	28626
821.167	28519
821.307	28580
821.447	28626
821.588	28360
821.728	28280
821.868	28086
822.008	28017
822.149	27934
822.289	28032
822.429	27747
822.569	27652
822.709	27728
822.849	27580
822.99	27572
823.13	27477
823.27	27534
823.41	27340
823.55	27180
823.69	27363
823.83	27283
823.97	27416
824.11	26998
824.25	27157
824.389	27100
824.529	27348
824.669	27131
824.809	27306
824.949	27230
825.089	27252
825.228	27275
825.368	26982
825.508	26899
825.648	27127
825.787	27157
825.927	27093
826.067	26963
826.206	27017
826.346	27188
826.485	27070
826.625	27165
826.765	27112
826.904	27096
827.044	26853
827.183	26948
827.323	26739
827.462	26895
827.601	26838
827.741	26811
827.88	26830
828.02	26644
828.159	26750
828.298	26686
828.437	26823
828.577	26575
828.716	26880
828.855	26758
828.994	26537
829.134	26419
829.273	26568
829.412	26408
829.551	26552
829.69	26514
829.829	26522
829.968	26552
830.107	26549
830.246	26381
830.385	26374
830.524	26434
830.663	26282
830.802	26225
830.941	26126
831.08	26161
831.219	26298
831.357	26176
831.496	26412
831.635	26187
831.774	25982
831.913	26050
832.051	25921
832.19	25871
832.329	25864
832.467	25776
832.606	25674
832.744	25658
832.883	25868
833.022	25715
833.16	25906
833.299	25677
833.437	25833
833.576	25856
833.714	25856
833.852	25909
833.991	25997
834.129	25856
834.267	25898
834.406	25871
834.544	25845
834.682	25868
834.821	25791
834.959	25947
835.097	25803
835.235	25723
835.373	25856
835.511	25906
835.65	25578
835.788	25696
835.926	25540
836.064	25499
836.202	25491
836.34	25658
836.478	25715
836.615	25655
836.753	25719
836.891	25689
837.029	25681
837.167	25578
837.305	25540
837.443	25479
837.58	25476
837.718	25548
837.856	25346
837.993	25521
838.131	25457
838.269	25316
838.406	25293
838.544	25228
838.681	25270
838.819	25095
838.956	24939
839.094	24894
839.231	24973
839.369	25072
839.506	25324
839.643	25175
839.781	24810
839.918	24863
840.055	24981
840.193	24943
840.33	24962
840.467	24935
840.604	24935
840.742	25057
840.879	24635
841.016	24886
841.153	24608
841.29	24878
841.427	24882
841.564	24776
841.701	24856
841.838	24711
841.975	24787
842.112	24658
842.249	24642
842.385	24559
842.522	24856
842.659	24665
842.796	24540
842.933	24722
843.069	24566
843.206	24650
843.343	24749
843.479	24635
843.616	24620
843.752	24395
843.889	24403
844.025	24372
844.162	24464
844.298	24429
844.435	24384
844.571	24350
844.708	24407
844.844	24445
844.98	24452
845.117	24467
845.253	24235
845.389	24163
845.525	24136
845.661	24155
845.798	24091
845.934	24098
846.07	24057
846.206	24228
846.342	24129
846.478	24045
846.614	23855
846.75	23828
846.886	23840
847.022	23904
847.158	23790
847.294	23809
847.429	23874
847.565	23908
847.701	24117
847.837	23551
847.972	23455
848.108	23630
848.244	23585
848.379	23318
848.515	23421
848.65	23353
848.786	23436
848.921	23368
849.057	23634
849.192	23315
849.328	23497
849.463	23395
849.598	23341
849.734	23341
849.869	23277
850.004	23102
850.14	23132
850.275	23105
850.41	23204
850.545	23109
850.68	23117
850.815	23315
850.95	23212
851.085	23379
851.22	23372
851.355	23121
851.49	23223
851.625	23220
851.76	23132
851.895	23044
852.03	23060
852.165	23159
852.299	23250
852.434	23094
852.569	23166
852.703	23102
852.838	23315
852.973	23337
853.107	23269
853.242	23003
853.376	23003
853.511	22782
853.645	22953
853.78	23079
853.914	22999
854.048	22984
854.183	23067
854.317	23048
854.451	23098
854.585	23022
854.72	23022
854.854	23075
854.988	22972
855.122	23018
855.256	22915
855.39	22892
855.524	23022
855.658	23071
855.792	22999
855.926	22972
856.06	23044
856.194	22946
856.327	22877
856.461	22885
856.595	23025
856.729	22942
856.862	22957
856.996	22995
857.13	22953
857.263	23041
857.397	23128
857.53	22892
857.664	22995
857.797	22987
857.931	23041
858.064	22976
858.197	23121
858.331	23014
858.464	22911
858.597	22778
858.731	22915
858.864	22904
858.997	22858
859.13	23064
859.263	22972
859.396	23003
859.529	23037
859.662	22854
859.795	22873
859.928	22938
860.061	23143
860.194	23216
860.327	23086
860.46	23033
860.592	23132
860.725	23098
860.858	23166
860.99	23003
861.123	22900
861.256	22911
861.388	22976
861.521	23600
861.653	22847
861.786	22816
861.918	22862
862.05	22930
862.183	22976
862.315	22946
862.447	22927
862.58	22873
862.712	22668
862.844	22596
862.976	22733
863.108	22744
863.24	22987
863.372	22615
863.504	22634
863.636	22527
863.768	22736
863.9	22706
864.032	22698
864.164	22557
864.296	22736
864.428	22790
864.559	22710
864.691	22748
864.823	22702
864.954	22683
865.086	22584
865.217	22599
865.349	22561
865.48	22535
865.612	22706
865.743	22660
865.875	22569
866.006	22523
866.137	22607
866.269	22569
866.4	22573
866.531	22424
866.662	22481
866.793	22523
866.924	22459
867.055	22451
867.186	22493
867.317	22398
867.448	22405
867.579	22390
867.71	22451
867.841	22489
867.972	22497
868.103	22523
868.233	22580
868.364	22485
868.495	22691
868.625	22733
868.756	22767
868.886	22577
869.017	22687
869.147	22725
869.278	22786
869.408	22710
869.539	22763
869.669	22805
869.799	22752
869.929	22839
870.06	22839
870.19	22904
870.32	22957
870.45	23075
870.58	23041
870.71	23128
870.84	23204
870.97	23189
871.1	23128
871.23	23208
871.36	23379
871.489	23170
871.619	23235
871.749	23318
871.879	23299
872.008	23265
872.138	23417
872.267	23307
872.397	23166
872.526	23178
872.656	23079
872.785	23273
872.915	23307
873.044	23425
873.173	23345
873.303	23341
873.432	23425
873.561	23391
873.69	23448
873.819	23326
873.948	23322
874.077	23353
874.206	23334
874.335	23398
874.464	23478
874.593	23531
874.722	23493
874.851	23547
874.979	23539
875.108	23528
875.237	23570
875.365	23467
875.494	23558
875.623	23433
875.751	23516
875.88	23547
876.008	23680
876.136	23722
876.265	23874
876.393	24079
876.521	23996
876.65	24125
876.778	23901
876.906	23733
877.034	23836
877.162	23824
877.29	23832
877.418	23977
877.546	23786
877.674	23984
877.802	23824
877.93	23840
878.058	23916
878.185	23824
878.313	23889
878.441	23752
878.568	23779
878.696	23657
878.824	23984
878.951	23988
879.079	24072
879.206	24228
879.333	24045
879.461	23969
879.588	23939
879.715	24026
879.842	24106
879.97	23897
880.097	23767
880.224	23809
880.351	23767
880.478	23707
880.605	23646
880.732	23805
880.859	23965
880.986	23699
881.112	23668
881.239	23551
881.366	23406
881.493	23330
881.619	23265
881.746	23303
881.872	23204
881.999	23189
882.125	23231
882.252	23220
882.378	23265
882.505	23360
882.631	23121
882.757	22984
882.883	23056
883.01	22972
883.136	22930
883.262	22725
883.388	22809
883.514	22923
883.64	22904
883.766	22793
883.892	22736
884.018	22862
884.143	22858
884.269	22972
884.395	22679
884.52	22470
884.646	22493
884.772	22409
884.897	22459
885.023	22519
885.148	22580
885.274	22573
885.399	22550
885.524	22573
885.65	22546
885.775	22478
885.9	22489
886.025	22569
886.15	22645
886.275	22561
886.4	22447
886.525	22478
886.65	22424
886.775	22413
886.9	22630
887.025	22653
887.149	22443
887.274	22318
887.399	22303
887.523	22337
887.648	22284
887.773	22253
887.897	22299
888.021	22348
888.146	22223
888.27	22344
888.395	22443
888.519	22402
888.643	22200
888.767	22337
888.891	22173
889.015	22021
889.139	22131
889.263	22059
889.387	22154
889.511	22291
889.635	22310
889.759	22017
889.883	21979
890.006	22063
890.13	22226
890.254	22002
890.377	21983
890.501	21789
890.624	21926
890.748	21880
890.871	21701
890.995	21694
891.118	21595
891.241	21618
891.364	21682
891.488	21717
891.611	21545
891.734	21679
891.857	21736
891.98	21580
892.103	21618
892.226	21690
892.349	21576
892.471	21488
892.594	21511
892.717	21530
892.839	21504
892.962	21530
893.085	21481
893.207	21549
893.33	21454
893.452	21439
893.575	21526
893.697	21473
893.819	21633
893.941	21831
894.064	21648
894.186	21500
894.308	21416
894.43	21545
894.552	21690
894.674	21481
894.796	21416
894.918	21462
895.04	21393
895.161	21572
895.283	21496
895.405	21348
895.526	21393
895.648	21469
895.769	21450
895.891	21553
896.012	21469
896.134	21454
896.255	21401
896.376	21420
896.498	21534
896.619	21515
896.74	21454
896.861	21530
896.982	21644
897.103	21774
897.224	21888
897.345	21694
897.466	21637
897.587	21698
897.708	21751
897.828	21766
897.949	21637
898.07	21500
898.19	21663
898.311	21846
898.431	21682
898.552	21587
898.672	21717
898.792	21755
898.913	21671
899.033	21561
899.153	21412
899.273	21412
899.393	21435
899.513	21382
899.633	21313
899.753	21485
899.873	21374
899.993	21325
900.113	21256
900.232	21351
900.352	21279
900.472	21214
900.591	21116
900.711	21096
900.83	21104
900.95	21165
901.069	21222
901.189	21039
901.308	20781
901.427	20587
901.546	20686
901.665	20781
901.784	20735
901.904	20587
902.023	20514
902.141	20328
902.26	20248
902.379	20290
902.498	20237
902.617	20191
902.735	20305
902.854	20142
902.973	20122
903.091	19909
903.21	19822
903.328	19849
903.446	19795
903.565	19704
903.683	19696
903.801	19438
903.919	19548
904.038	19639
904.156	19293
904.274	19426
904.392	19316
904.51	19403
904.627	19449
904.745	19483
904.863	19438
904.981	19187
905.098	19080
905.216	19027
905.334	19110
905.451	19088
905.569	19091
905.686	19187
905.803	19088
905.921	18928
906.038	18886
906.155	18852
906.272	18798
906.389	18703
906.506	18566
906.623	18665
906.74	18726
906.857	18479
906.974	18623
907.091	18608
907.208	18665
907.324	18692
907.441	18528
907.557	18395
907.674	18369
907.79	18266
907.907	18327
908.023	18289
908.139	18388
908.256	18239
908.372	18228
908.488	18220
908.604	18057
908.72	18076
908.836	18091
908.952	18019
909.068	18106
909.184	18129
909.3	17984
909.415	18125
909.531	18034
909.647	17707
909.762	17691
909.878	17703
909.993	17756
910.108	17737
910.224	17646
910.339	17592
910.454	17573
910.57	17501
910.685	17615
910.8	17817
910.915	17691
911.03	17512
911.145	17353
911.259	17364
911.374	17307
911.489	17299
911.604	17239
911.718	17105
911.833	17094
911.947	17029
912.062	16869
912.176	17086
912.291	17071
912.405	16995
912.519	17235
912.633	17200
912.748	17220
912.862	16987
912.976	16923
913.09	16801
913.204	16831
913.318	16915
913.431	16892
913.545	16934
913.659	16953
913.772	16801
913.886	16691
914	16599
914.113	16645
914.226	16721
914.34	16729
914.453	16569
914.566	16801
914.68	16508
914.793	16622
914.906	16421
915.019	16238
915.132	16135
915.245	16234
915.358	16268
915.47	16242
915.583	16238
915.696	16253
915.809	16284
915.921	16306
916.034	16207
916.146	16120
916.259	16177
916.371	16207
916.483	16158
916.595	16154
916.708	16116
916.82	16112
916.932	16029
917.044	15964
917.156	15854
917.268	15907
917.38	15903
917.491	15732
917.603	15880
917.715	15812
917.826	15911
917.938	15789
918.049	15720
918.161	15808
918.272	15903
918.384	15880
918.495	15766
918.606	15656
918.717	15447
918.828	15549
918.939	15656
919.05	15351
919.161	15454
919.272	15412
919.383	15420
919.494	15584
919.604	15755
919.715	15568
919.826	15340
919.936	15477
920.047	15568
920.157	15500
920.267	15713
920.378	15572
920.488	15431
920.598	15724
920.708	15869
920.818	15648
920.928	15580
921.038	15846
921.148	15720
921.258	15496
921.368	15344
921.477	15245
921.587	15252
921.697	15169
921.806	15184
921.916	15058
922.025	14872
922.134	14807
922.244	14792
922.353	14914
922.462	14731
922.571	14731
922.68	14590
922.789	14514
922.898	14511
923.007	14374
923.116	14469
923.224	14488
923.333	14503
923.442	14393
923.55	14275
923.659	14393
923.767	14404
923.876	14362
923.984	14393
924.092	14237
924.201	14240
924.309	14195
924.417	14195
924.525	14088
924.633	14157
924.741	14815
924.849	13868
924.956	14073
925.064	13849
925.172	13811
925.279	13902
925.387	13849
925.494	13894
925.602	14005
925.709	13978
925.816	13666
925.924	13887
926.031	13875
926.138	13769
926.245	13875
926.352	13753
926.459	13849
926.566	13883
926.673	13674
926.779	13601
926.886	13552
926.993	13388
927.099	13476
927.206	13362
927.312	13339
927.419	13396
927.525	13381
927.631	13411
927.737	13255
927.843	13266
927.95	13050
928.056	13202
928.162	13194
928.267	13129
928.373	13849
928.479	13213
928.585	13069
928.69	13137
928.796	13137
928.901	13004
929.007	12867
929.112	13069
929.218	12966
929.323	12996
929.428	12840
929.533	13004
929.638	12795
929.743	12806
929.848	12772
929.953	12745
930.058	12738
930.163	12593
930.267	12555
930.372	12665
930.477	12559
930.581	12764
930.685	12681
930.79	12437
930.894	12479
930.998	12445
931.103	12506
931.207	12186
931.311	12133
931.415	11999
931.519	11882
931.623	11889
