Data from test_V78500241_1447.txt Node
Date: Fri Mar 25 15:51:49 CST 2022
User: usil
Spectrometer: V785-0024
Trigger mode: 0
Integration Time (sec): 4.000000E-1
Scans to average: 1
Nonlinearity correction enabled: false
Boxcar width: 0
Storing dark spectrum: false
XAxis mode: Wavelengths
Number of Pixels in Spectrum: 1024
>>>>>Begin Spectral Data<<<<<
801.071	28356
801.214	28379
801.356	28032
801.499	27991
801.641	27876
801.783	27930
801.926	28181
802.068	27979
802.211	27949
802.353	27956
802.496	27679
802.638	27625
802.78	27610
802.923	27572
803.065	27625
803.208	27629
803.35	27808
803.492	27781
803.635	27774
803.777	27876
803.919	27732
804.061	28120
804.204	27964
804.346	27850
804.488	27675
804.63	27850
804.773	27755
804.915	27895
805.057	28032
805.199	27972
805.341	27888
805.483	28051
805.626	28196
805.768	27968
805.91	27991
806.052	28063
806.194	28036
806.336	28173
806.478	28017
806.62	28017
806.762	28150
806.904	28188
807.046	28679
807.188	28478
807.33	28436
807.472	28516
807.614	28291
807.756	28390
807.898	28268
808.04	28329
808.182	28234
808.324	28356
808.465	28554
808.607	28565
808.749	28759
808.891	28896
809.033	28854
809.174	28786
809.316	28710
809.458	28649
809.6	28622
809.741	28782
809.883	28942
810.025	29128
810.166	28824
810.308	29132
810.45	29018
810.591	28957
810.733	28710
810.875	28812
811.016	28653
811.158	28592
811.299	28881
811.441	28923
811.582	28915
811.724	28698
811.865	28717
812.007	28736
812.148	28611
812.29	28683
812.431	28949
812.573	29018
812.714	29181
812.855	29227
812.997	29265
813.138	29471
813.279	29414
813.421	29155
813.562	29166
813.703	29098
813.845	29022
813.986	28679
814.127	28675
814.268	28428
814.41	28375
814.551	28489
814.692	28592
814.833	28284
814.974	28371
815.115	28466
815.256	28268
815.397	28280
815.539	28440
815.68	28272
815.821	28242
815.962	28242
816.103	28101
816.244	28242
816.385	28101
816.526	28051
816.666	27698
816.807	27949
816.948	27854
817.089	27823
817.23	27747
817.371	27587
817.512	27778
817.653	27751
817.793	27660
817.934	27580
818.075	27595
818.216	27759
818.356	27542
818.497	27641
818.638	27462
818.778	27435
818.919	27401
819.06	27561
819.2	27660
819.341	27720
819.481	27766
819.622	27945
819.762	27994
819.903	27918
820.043	27979
820.184	27899
820.324	27808
820.465	28067
820.605	27854
820.746	27846
820.886	27838
821.026	27812
821.167	27785
821.307	27793
821.447	27827
821.588	27625
821.728	27595
821.868	27488
822.008	27279
822.149	27192
822.289	27150
822.429	26994
822.569	26880
822.709	26864
822.849	26682
822.99	26842
823.13	26826
823.27	26781
823.41	26552
823.55	26583
823.69	26549
823.83	26480
823.97	26480
824.11	26347
824.25	26298
824.389	26358
824.529	26438
824.669	26469
824.809	26530
824.949	26495
825.089	26396
825.228	26317
825.368	26385
825.508	26221
825.648	26271
825.787	26298
825.927	26351
826.067	26172
826.206	26248
826.346	26221
826.485	26248
826.625	26210
826.765	26320
826.904	26347
827.044	26001
827.183	26130
827.323	25982
827.462	25902
827.601	26027
827.741	25833
827.88	25997
828.02	25772
828.159	25887
828.298	25841
828.437	26153
828.577	25822
828.716	26119
828.855	25868
828.994	25674
829.134	25712
829.273	25681
829.412	25594
829.551	25529
829.69	25811
829.829	25734
829.968	25628
830.107	25578
830.246	25647
830.385	25544
830.524	25502
830.663	25426
830.802	25479
830.941	25293
831.08	25335
831.219	25190
831.357	25453
831.496	25491
831.635	25137
831.774	25160
831.913	25187
832.051	24882
832.19	25099
832.329	25145
832.467	25019
832.606	24894
832.744	24901
832.883	24939
833.022	24973
833.16	24890
833.299	25027
833.437	24943
833.576	25015
833.714	24901
833.852	24951
833.991	25008
834.129	25076
834.267	24939
834.406	25004
834.544	25107
834.682	24905
834.821	24886
834.959	25187
835.097	24848
835.235	25023
835.373	24989
835.511	25126
835.65	24932
835.788	24878
835.926	24696
836.064	24635
836.202	24757
836.34	24764
836.478	24981
836.615	24817
836.753	24901
836.891	24791
837.029	24916
837.167	24745
837.305	24741
837.443	24711
837.58	24646
837.718	24703
837.856	24650
837.993	24563
838.131	24684
838.269	24509
838.406	24525
838.544	24490
838.681	24277
838.819	24228
838.956	24117
839.094	24216
839.231	24171
839.369	24296
839.506	24627
839.643	24251
839.781	24243
839.918	23927
840.055	24110
840.193	24015
840.33	24087
840.467	24079
840.604	24197
840.742	24197
840.879	23882
841.016	23920
841.153	23916
841.29	24102
841.427	24022
841.564	24003
841.701	24117
841.838	23973
841.975	23916
842.112	23946
842.249	23817
842.385	23809
842.522	23897
842.659	23878
842.796	23661
842.933	23813
843.069	23558
843.206	23798
843.343	23760
843.479	23718
843.616	23775
843.752	23604
843.889	23687
844.025	23680
844.162	23585
844.298	23642
844.435	23448
844.571	23444
844.708	23501
844.844	23577
844.98	23646
845.117	23680
845.253	23501
845.389	23337
845.525	23372
845.661	23395
845.798	23216
845.934	23261
846.07	23208
846.206	23322
846.342	23368
846.478	23140
846.614	23067
846.75	22957
846.886	22911
847.022	23083
847.158	22968
847.294	23033
847.429	22927
847.565	23003
847.701	23227
847.837	22763
847.972	22740
848.108	22900
848.244	22710
848.379	22702
848.515	22554
848.65	22508
848.786	22672
848.921	22569
849.057	22702
849.192	22664
849.328	22675
849.463	22637
849.598	22535
849.734	22443
849.869	22535
850.004	22398
850.14	22405
850.275	22451
850.41	22185
850.545	22306
850.68	22253
850.815	22405
850.95	22398
851.085	22577
851.22	22417
851.355	22367
851.49	22310
851.625	22344
851.76	22310
851.895	22230
852.03	22314
852.165	22394
852.299	22299
852.434	22432
852.569	22337
852.703	22402
852.838	22478
852.973	22481
853.107	22455
853.242	22268
853.376	22226
853.511	22036
853.645	22109
853.78	22268
853.914	22181
854.048	22185
854.183	22147
854.317	22120
854.451	22318
854.585	22230
854.72	22105
854.854	22246
854.988	22150
855.122	22101
855.256	22055
855.39	22120
855.524	22177
855.658	22215
855.792	22249
855.926	22253
856.06	22200
856.194	22219
856.327	22101
856.461	22059
856.595	22147
856.729	22059
856.862	22272
856.996	22204
857.13	22226
857.263	22265
857.397	22337
857.53	22173
857.664	22219
857.797	22207
857.931	22314
858.064	22162
858.197	22306
858.331	22181
858.464	22131
858.597	22147
858.731	22010
858.864	22093
858.997	22090
859.13	22093
859.263	22116
859.396	22215
859.529	22101
859.662	22093
859.795	22242
859.928	22196
860.061	22360
860.194	22310
860.327	22097
860.46	22204
860.592	22310
860.725	22337
860.858	22246
860.99	22257
861.123	21994
861.256	22051
861.388	22173
861.521	22923
861.653	22059
861.786	22070
861.918	21926
862.05	22029
862.183	22124
862.315	22147
862.447	22265
862.58	21949
862.712	21873
862.844	21922
862.976	21983
863.108	21949
863.24	22249
863.372	21835
863.504	21960
863.636	21892
863.768	21949
863.9	21937
864.032	21846
864.164	21778
864.296	21880
864.428	21991
864.559	21895
864.691	21854
864.823	21895
864.954	21960
865.086	21770
865.217	21713
865.349	21781
865.48	21789
865.612	21690
865.743	21926
865.875	21759
866.006	21751
866.137	21736
866.269	21743
866.4	21732
866.531	21774
866.662	21515
866.793	21583
866.924	21591
867.055	21625
867.186	21694
867.317	21766
867.448	21595
867.579	21629
867.71	21641
867.841	21595
867.972	21724
868.103	21675
868.233	21618
868.364	21675
868.495	21751
868.625	21838
868.756	21998
868.886	21724
869.017	21819
869.147	22097
869.278	21994
869.408	21994
869.539	22093
869.669	22032
869.799	22128
869.929	22093
870.06	22021
870.19	22268
870.32	22177
870.45	22131
870.58	22318
870.71	22459
870.84	22459
870.97	22344
871.1	22325
871.23	22607
871.36	22588
871.489	22523
871.619	22493
871.749	22691
871.879	22527
872.008	22519
872.138	22596
872.267	22577
872.397	22405
872.526	22303
872.656	22390
872.785	22455
872.915	22580
873.044	22634
873.173	22698
873.303	22599
873.432	22675
873.561	22660
873.69	22603
873.819	22478
873.948	22615
874.077	22592
874.206	22478
874.335	22554
874.464	22721
874.593	22850
874.722	22755
874.851	22908
874.979	22748
875.108	23010
875.237	22790
875.365	22702
875.494	22805
875.623	22748
875.751	22881
875.88	22790
876.008	22908
876.136	22957
876.265	23307
876.393	23242
876.521	23322
876.65	23311
876.778	23151
876.906	23109
877.034	23185
877.162	23083
877.29	23105
877.418	23143
877.546	23216
877.674	23200
877.802	23208
877.93	23086
878.058	23022
878.185	23022
878.313	23128
878.441	23208
878.568	22991
878.696	23079
878.824	23159
878.951	23216
879.079	23307
879.206	23406
879.333	23398
879.461	23258
879.588	23132
879.715	23368
879.842	23391
879.97	23208
880.097	22957
880.224	22987
880.351	22942
880.478	22923
880.605	23025
880.732	22946
880.859	23109
880.986	22919
881.112	23048
881.239	22740
881.366	22748
881.493	22683
881.619	22500
881.746	22535
881.872	22443
881.999	22440
882.125	22546
882.252	22565
882.378	22508
882.505	22573
882.631	22394
882.757	22329
882.883	22306
883.01	22147
883.136	22135
883.262	21998
883.388	22044
883.514	22162
883.64	22249
883.766	22010
883.892	22013
884.018	21972
884.143	22131
884.269	22261
884.395	21903
884.52	22006
884.646	21835
884.772	21770
884.897	21705
885.023	21915
885.148	21979
885.274	21937
885.399	21819
885.524	21865
885.65	21854
885.775	21793
885.9	21755
886.025	21960
886.15	21983
886.275	21812
886.4	21793
886.525	21850
886.65	21701
886.775	21717
886.9	22002
887.025	22036
887.149	21823
887.274	21682
887.399	21618
887.523	21610
887.648	21580
887.773	21386
887.897	21648
888.021	21717
888.146	21549
888.27	21583
888.395	21675
888.519	21644
888.643	21610
888.767	21564
888.891	21458
889.015	21291
889.139	21458
889.263	21450
889.387	21511
889.511	21622
889.635	21473
889.759	21317
889.883	21367
890.006	21462
890.13	21530
890.254	21310
890.377	21370
890.501	21192
890.624	20944
890.748	21313
890.871	21055
890.995	20921
891.118	20979
891.241	21085
891.364	20861
891.488	21074
891.611	20986
891.734	20914
891.857	20986
891.98	20948
892.103	20929
892.226	20872
892.349	20933
892.471	20796
892.594	20849
892.717	20864
892.839	20777
892.962	20819
893.085	20868
893.207	20834
893.33	20670
893.452	20807
893.575	20880
893.697	20864
893.819	20864
893.941	21058
894.064	20963
894.186	20899
894.308	20670
894.43	20937
894.552	20929
894.674	20948
894.796	20727
894.918	20686
895.04	20823
895.161	20956
895.283	20906
895.405	20735
895.526	20967
895.648	20743
895.769	20891
895.891	20971
896.012	20941
896.134	20910
896.255	20773
896.376	20842
896.498	20849
896.619	20941
896.74	20781
896.861	20899
896.982	21184
897.103	21294
897.224	21039
897.345	21066
897.466	20963
897.587	20998
897.708	21154
897.828	21093
897.949	20994
898.07	20902
898.19	20868
898.311	21150
898.431	20994
898.552	21062
898.672	21055
898.792	21127
898.913	21093
899.033	20994
899.153	20910
899.273	20708
899.393	20815
899.513	20830
899.633	20731
899.753	20815
899.873	20701
899.993	20853
900.113	20678
900.232	20663
900.352	20602
900.472	20560
900.591	20556
900.711	20446
900.83	20511
900.95	20598
901.069	20705
901.189	20423
901.308	20138
901.427	20081
901.546	20119
901.665	20145
901.784	20103
901.904	19917
902.023	19932
902.141	19731
902.26	19651
902.379	19753
902.498	19681
902.617	19582
902.735	19544
902.854	19571
902.973	19563
903.091	19221
903.21	19301
903.328	19240
903.446	19244
903.565	19069
903.683	19175
903.801	18989
903.919	19038
904.038	19023
904.156	18897
904.274	18943
904.392	18878
904.51	18810
904.627	18837
904.745	18894
904.863	18848
904.981	18570
905.098	18475
905.216	18475
905.334	18551
905.451	18414
905.569	18315
905.686	18593
905.803	18525
905.921	18228
906.038	18506
906.155	18357
906.272	18235
906.389	18277
906.506	18034
906.623	18129
906.74	18076
906.857	17889
906.974	17908
907.091	18159
907.208	18159
907.324	18072
907.441	17878
907.557	17817
907.674	17718
907.79	17684
907.907	17802
908.023	17752
908.139	17783
908.256	17783
908.372	17573
908.488	17642
908.604	17452
908.72	17455
908.836	17474
908.952	17421
909.068	17551
909.184	17448
909.3	17337
909.415	17501
909.531	17486
909.647	17254
909.762	17083
909.878	17075
909.993	17075
910.108	17098
910.224	17121
910.339	17132
910.454	17014
910.57	16953
910.685	16972
910.8	17193
910.915	17064
911.03	16965
911.145	16824
911.259	16656
911.374	16725
911.489	16546
911.604	16618
911.718	16516
911.833	16504
911.947	16375
912.062	16348
912.176	16516
912.291	16489
912.405	16527
912.519	16615
912.633	16653
912.748	16508
912.862	16462
912.976	16230
913.09	16246
913.204	16272
913.318	16276
913.431	16337
913.545	16394
913.659	16417
913.772	16181
913.886	16051
914	16051
914.113	16158
914.226	16344
914.34	16105
914.453	16135
914.566	16124
914.68	15937
914.793	15964
914.906	15816
915.019	15656
915.132	15599
915.245	15671
915.358	15690
915.47	15660
915.583	15717
915.696	15603
915.809	15766
915.921	15846
916.034	15553
916.146	15568
916.259	15511
916.371	15671
916.483	15542
916.595	15523
916.708	15492
916.82	15485
916.932	15420
917.044	15462
917.156	15443
917.268	15306
917.38	15340
917.491	15249
917.603	15272
917.715	15443
917.826	15332
917.938	15188
918.049	15154
918.161	15180
918.272	15291
918.384	15378
918.495	15302
918.606	15081
918.717	15005
918.828	15161
918.939	15119
919.05	14906
919.161	15024
919.272	14834
919.383	14895
919.494	15108
919.604	15256
919.715	14971
919.826	14975
919.936	15017
920.047	15074
920.157	14994
920.267	15138
920.378	14979
920.488	14929
920.598	15184
920.708	15294
920.818	15142
920.928	15112
921.038	15302
921.148	15245
921.258	14883
921.368	14929
921.477	14800
921.587	14792
921.697	14606
921.806	14769
921.916	14583
922.025	14412
922.134	14400
922.244	14305
922.353	14461
922.462	14275
922.571	14164
922.68	14001
922.789	14084
922.898	13940
923.007	13959
923.116	14027
923.224	13951
923.333	13921
923.442	13947
923.55	13875
923.659	13822
923.767	13849
923.876	13746
923.984	13761
924.092	13662
924.201	13784
924.309	13727
924.417	13757
924.525	13655
924.633	13712
924.741	14408
924.849	13464
924.956	13544
925.064	13411
925.172	13308
925.279	13384
925.387	13453
925.494	13422
925.602	13521
925.709	13468
925.816	13308
925.924	13373
926.031	13430
926.138	13297
926.245	13278
926.352	13228
926.459	13415
926.566	13384
926.673	13221
926.779	13228
926.886	13095
926.993	13023
927.099	12901
927.206	12875
927.312	12897
927.419	12932
927.525	12916
927.631	12966
927.737	12817
927.843	12772
927.95	12681
928.056	12749
928.162	12700
928.267	12890
928.373	13403
928.479	12856
928.585	12574
928.69	12696
928.796	12802
928.901	12585
929.007	12395
929.112	12654
929.218	12604
929.323	12506
929.428	12513
929.533	12639
929.638	12460
929.743	12452
929.848	12452
929.953	12380
930.058	12281
930.163	12197
930.267	12155
930.372	12277
930.477	12098
930.581	12308
930.685	12220
930.79	12003
930.894	11973
930.998	11961
931.103	12091
931.207	11809
931.311	11726
931.415	11604
931.519	11356
931.623	11429
