Data from test_V78500241_881.txt Node
Date: Fri Mar 25 15:47:54 CST 2022
User: usil
Spectrometer: V785-0024
Trigger mode: 0
Integration Time (sec): 4.000000E-1
Scans to average: 1
Nonlinearity correction enabled: false
Boxcar width: 0
Storing dark spectrum: false
XAxis mode: Wavelengths
Number of Pixels in Spectrum: 1024
>>>>>Begin Spectral Data<<<<<
801.071	28010
801.214	27899
801.356	27629
801.499	27572
801.641	27287
801.783	27325
801.926	27572
802.068	27408
802.211	27469
802.353	27283
802.496	27203
802.638	27096
802.78	27123
802.923	27036
803.065	26929
803.208	27085
803.35	27131
803.492	27154
803.635	27370
803.777	27062
803.919	27351
804.061	27561
804.204	27329
804.346	27245
804.488	27287
804.63	27226
804.773	27241
804.915	27363
805.057	27523
805.199	27477
805.341	27367
805.483	27534
805.626	27447
805.768	27378
805.91	27427
806.052	27386
806.194	27447
806.336	27641
806.478	27454
806.62	27580
806.762	27587
806.904	27717
807.046	27968
807.188	27835
807.33	27975
807.472	27899
807.614	27956
807.756	27873
807.898	27770
808.04	27701
808.182	27759
808.324	27789
808.465	27816
808.607	28021
808.749	28177
808.891	28257
809.033	28344
809.174	28207
809.316	28131
809.458	28112
809.6	28090
809.741	28352
809.883	28249
810.025	28421
810.166	28291
810.308	28363
810.45	28318
810.591	28147
810.733	28188
810.875	28013
811.016	27903
811.158	28082
811.299	28128
811.441	28367
811.582	28242
811.724	28150
811.865	28128
812.007	28150
812.148	27960
812.29	28196
812.431	28223
812.573	28493
812.714	28550
812.855	28618
812.997	28771
813.138	28877
813.279	28858
813.421	28729
813.562	28573
813.703	28470
813.845	28557
813.986	28105
814.127	28006
814.268	27797
814.41	27743
814.551	27705
814.692	27739
814.833	27610
814.974	27663
815.115	27770
815.256	27641
815.397	27656
815.539	27732
815.68	27557
815.821	27564
815.962	27507
816.103	27564
816.244	27454
816.385	27424
816.526	27386
816.666	27310
816.807	27085
816.948	27291
817.089	27226
817.23	27066
817.371	27066
817.512	27230
817.653	27135
817.793	27104
817.934	27142
818.075	27062
818.216	26933
818.356	27070
818.497	26887
818.638	26777
818.778	26727
818.919	26971
819.06	26967
819.2	27028
819.341	27176
819.481	27070
819.622	27321
819.762	27416
819.903	27374
820.043	27367
820.184	27291
820.324	27211
820.465	27294
820.605	27199
820.746	27150
820.886	27032
821.026	27119
821.167	27199
821.307	27256
821.447	27150
821.588	27150
821.728	26838
821.868	26689
822.008	26705
822.149	26552
822.289	26579
822.429	26278
822.569	26210
822.709	26271
822.849	26035
822.99	26069
823.13	26043
823.27	25936
823.41	25890
823.55	25890
823.69	25974
823.83	25970
823.97	25936
824.11	25837
824.25	25807
824.389	25746
824.529	25856
824.669	25761
824.809	25757
824.949	25830
825.089	25822
825.228	25704
825.368	25548
825.508	25635
825.648	25616
825.787	25632
825.927	25700
826.067	25537
826.206	25567
826.346	25578
826.485	25502
826.625	25586
826.765	25769
826.904	25689
827.044	25430
827.183	25365
827.323	25320
827.462	25445
827.601	25384
827.741	25343
827.88	25240
828.02	25251
828.159	25255
828.298	25377
828.437	25411
828.577	25152
828.716	25483
828.855	25209
828.994	25069
829.134	24966
829.273	25228
829.412	24924
829.551	24909
829.69	25122
829.829	25065
829.968	25046
830.107	25065
830.246	25053
830.385	25065
830.524	24928
830.663	24783
830.802	24772
830.941	24525
831.08	24616
831.219	24741
831.357	24627
831.496	24856
831.635	24464
831.774	24452
831.913	24597
832.051	24437
832.19	24372
832.329	24338
832.467	24369
832.606	24273
832.744	24201
832.883	24395
833.022	24285
833.16	24395
833.299	24296
833.437	24308
833.576	24399
833.714	24437
833.852	24376
833.991	24437
834.129	24414
834.267	24551
834.406	24262
834.544	24490
834.682	24353
834.821	24403
834.959	24498
835.097	24209
835.235	24285
835.373	24376
835.511	24410
835.65	24197
835.788	24148
835.926	23942
836.064	24049
836.202	24110
836.34	24083
836.478	24216
836.615	24114
836.753	24273
836.891	24308
837.029	24224
837.167	24213
837.305	24182
837.443	24026
837.58	23992
837.718	24076
837.856	24125
837.993	23950
838.131	23961
838.269	23828
838.406	23942
838.544	23912
838.681	23695
838.819	23619
838.956	23478
839.094	23436
839.231	23619
839.369	23726
839.506	23901
839.643	23790
839.781	23524
839.918	23440
840.055	23349
840.193	23414
840.33	23337
840.467	23421
840.604	23573
840.742	23657
840.879	23315
841.016	23414
841.153	23349
841.29	23509
841.427	23417
841.564	23410
841.701	23322
841.838	23315
841.975	23383
842.112	23334
842.249	23296
842.385	23132
842.522	23288
842.659	23250
842.796	23067
842.933	23075
843.069	23143
843.206	23143
843.343	23223
843.479	23220
843.616	23178
843.752	22972
843.889	22995
844.025	22892
844.162	22828
844.298	22942
844.435	22911
844.571	22919
844.708	23033
844.844	23109
844.98	23075
845.117	22995
845.253	22930
845.389	22733
845.525	22908
845.661	22641
845.798	22733
845.934	22824
846.07	22694
846.206	22683
846.342	22835
846.478	22622
846.614	22428
846.75	22394
846.886	22200
847.022	22493
847.158	22424
847.294	22421
847.429	22409
847.565	22333
847.701	22603
847.837	22147
847.972	22044
848.108	22291
848.244	22196
848.379	21926
848.515	21956
848.65	21907
848.786	22048
848.921	22017
849.057	22242
849.192	22101
849.328	21987
849.463	22021
849.598	21880
849.734	21850
849.869	21808
850.004	21732
850.14	21743
850.275	21766
850.41	21652
850.545	21816
850.68	21698
850.815	21827
850.95	21778
851.085	21838
851.22	21770
851.355	21724
851.49	21591
851.625	21743
851.76	21720
851.895	21736
852.03	21682
852.165	21720
852.299	21720
852.434	21907
852.569	21793
852.703	21709
852.838	21869
852.973	21838
853.107	21800
853.242	21732
853.376	21576
853.511	21466
853.645	21469
853.78	21625
853.914	21469
854.048	21488
854.183	21549
854.317	21485
854.451	21713
854.585	21583
854.72	21469
854.854	21675
854.988	21504
855.122	21568
855.256	21408
855.39	21443
855.524	21720
855.658	21675
855.792	21557
855.926	21606
856.06	21652
856.194	21736
856.327	21492
856.461	21431
856.595	21526
856.729	21648
856.862	21762
856.996	21736
857.13	21622
857.263	21732
857.397	21629
857.53	21553
857.664	21682
857.797	21572
857.931	21606
858.064	21663
858.197	21698
858.331	21538
858.464	21485
858.597	21458
858.731	21526
858.864	21504
858.997	21587
859.13	21500
859.263	21568
859.396	21652
859.529	21549
859.662	21591
859.795	21511
859.928	21595
860.061	21713
860.194	21728
860.327	21679
860.46	21720
860.592	21713
860.725	21660
860.858	21652
860.99	21519
861.123	21603
861.256	21431
861.388	21618
861.521	22200
861.653	21454
861.786	21488
861.918	21374
862.05	21378
862.183	21644
862.315	21576
862.447	21610
862.58	21367
862.712	21195
862.844	21249
862.976	21378
863.108	21367
863.24	21785
863.372	21241
863.504	21298
863.636	21287
863.768	21336
863.9	21260
864.032	21332
864.164	21203
864.296	21412
864.428	21370
864.559	21260
864.691	21355
864.823	21291
864.954	21279
865.086	21218
865.217	21192
865.349	21192
865.48	21176
865.612	21359
865.743	21363
865.875	21298
866.006	21188
866.137	21169
866.269	21108
866.4	21173
866.531	20967
866.662	20963
866.793	21146
866.924	21150
867.055	21039
867.186	21146
867.317	21058
867.448	20998
867.579	21146
867.71	21116
867.841	21081
867.972	21131
868.103	21112
868.233	21077
868.364	21135
868.495	21093
868.625	21348
868.756	21424
868.886	21252
869.017	21405
869.147	21450
869.278	21458
869.408	21374
869.539	21466
869.669	21439
869.799	21397
869.929	21416
870.06	21500
870.19	21724
870.32	21561
870.45	21633
870.58	21675
870.71	21789
870.84	21755
870.97	21622
871.1	21781
871.23	21873
871.36	21975
871.489	21831
871.619	21907
871.749	21979
871.879	21926
872.008	22101
872.138	21953
872.267	22002
872.397	21838
872.526	21781
872.656	21880
872.785	21736
872.915	21953
873.044	22074
873.173	22021
873.303	22040
873.432	22128
873.561	21983
873.69	22002
873.819	21937
873.948	21873
874.077	21895
874.206	21937
874.335	21994
874.464	22086
874.593	22135
874.722	22143
874.851	22150
874.979	22135
875.108	22234
875.237	22226
875.365	22029
875.494	22006
875.623	22333
875.751	22192
875.88	22200
876.008	22409
876.136	22497
876.265	22694
876.393	22675
876.521	22607
876.65	22683
876.778	22607
876.906	22618
877.034	22546
877.162	22603
877.29	22481
877.418	22470
877.546	22523
877.674	22535
877.802	22565
877.93	22603
878.058	22546
878.185	22363
878.313	22489
878.441	22557
878.568	22291
878.696	22508
878.824	22603
878.951	22672
879.079	22713
879.206	22892
879.333	22790
879.461	22451
879.588	22580
879.715	22763
879.842	22877
879.97	22565
880.097	22459
880.224	22390
880.351	22352
880.478	22322
880.605	22329
880.732	22268
880.859	22508
880.986	22329
881.112	22375
881.239	22314
881.366	22143
881.493	21972
881.619	21991
881.746	21911
881.872	21934
881.999	21895
882.125	21892
882.252	21941
882.378	21915
882.505	22010
882.631	21732
882.757	21675
882.883	21610
883.01	21682
883.136	21648
883.262	21652
883.388	21526
883.514	21568
883.64	21652
883.766	21462
883.892	21462
884.018	21504
884.143	21538
884.269	21686
884.395	21306
884.52	21154
884.646	21325
884.772	21146
884.897	21146
885.023	21287
885.148	21443
885.274	21408
885.399	21237
885.524	21336
885.65	21207
885.775	21321
885.9	21211
886.025	21439
886.15	21420
886.275	21237
886.4	21268
886.525	21317
886.65	21180
886.775	21119
886.9	21363
887.025	21485
887.149	21199
887.274	21104
887.399	21020
887.523	21081
887.648	21005
887.773	20967
887.897	21020
888.021	21119
888.146	21036
888.27	21146
888.395	21226
888.519	21070
888.643	21055
888.767	21089
888.891	20944
889.015	20788
889.139	20956
889.263	20857
889.387	20857
889.511	20998
889.635	20944
889.759	20765
889.883	20785
890.006	20815
890.13	20914
890.254	20785
890.377	20693
890.501	20469
890.624	20537
890.748	20549
890.871	20473
890.995	20461
891.118	20446
891.241	20381
891.364	20442
891.488	20488
891.611	20366
891.734	20377
891.857	20347
891.98	20358
892.103	20423
892.226	20244
892.349	20347
892.471	20362
892.594	20362
892.717	20541
892.839	20286
892.962	20336
893.085	20419
893.207	20286
893.33	20172
893.452	20168
893.575	20309
893.697	20271
893.819	20431
893.941	20492
894.064	20450
894.186	20263
894.308	20317
894.43	20408
894.552	20492
894.674	20317
894.796	20221
894.918	20199
895.04	20389
895.161	20301
895.283	20301
895.405	20180
895.526	20324
895.648	20267
895.769	20271
895.891	20191
896.012	20336
896.134	20370
896.255	20263
896.376	20218
896.498	20176
896.619	20210
896.74	20358
896.861	20450
896.982	20575
897.103	20667
897.224	20507
897.345	20564
897.466	20552
897.587	20488
897.708	20659
897.828	20609
897.949	20507
898.07	20374
898.19	20450
898.311	20495
898.431	20480
898.552	20511
898.672	20533
898.792	20644
898.913	20461
899.033	20389
899.153	20336
899.273	20084
899.393	20210
899.513	20347
899.633	20309
899.753	20347
899.873	20195
899.993	20221
900.113	20206
900.232	20172
900.352	20126
900.472	20142
900.591	19993
900.711	20024
900.83	20103
900.95	20012
901.069	20065
901.189	19887
901.308	19799
901.427	19639
901.546	19624
901.665	19681
901.784	19590
901.904	19499
902.023	19445
902.141	19236
902.26	19141
902.379	19171
902.498	19171
902.617	19080
902.735	19206
902.854	19099
902.973	19053
903.091	18700
903.21	18817
903.328	18753
903.446	18768
903.565	18604
903.683	18574
903.801	18536
903.919	18688
904.038	18551
904.156	18361
904.274	18498
904.392	18372
904.51	18353
904.627	18365
904.745	18365
904.863	18399
904.981	18030
905.098	18068
905.216	18015
905.334	18026
905.451	18125
905.569	17999
905.686	18129
905.803	17927
905.921	17863
906.038	18030
906.155	17855
906.272	17707
906.389	17771
906.506	17573
906.623	17520
906.74	17554
906.857	17452
906.974	17436
907.091	17615
907.208	17691
907.324	17611
907.441	17520
907.557	17311
907.674	17220
907.79	17181
907.907	17303
908.023	17303
908.139	17220
908.256	17277
908.372	17189
908.488	17181
908.604	17033
908.72	16999
908.836	17018
908.952	16930
909.068	16919
909.184	17140
909.3	16927
909.415	17056
909.531	16915
909.647	16744
909.762	16824
909.878	16668
909.993	16706
910.108	16736
910.224	16622
910.339	16725
910.454	16577
910.57	16485
910.685	16447
910.8	16721
910.915	16611
911.03	16569
911.145	16394
911.259	16303
911.374	16276
911.489	16200
911.604	16185
911.718	16128
911.833	16040
911.947	16002
912.062	15838
912.176	16067
912.291	16063
912.405	16040
912.519	16329
912.633	16150
912.748	15998
912.862	15987
912.976	15785
913.09	15823
913.204	15838
913.318	15937
913.431	15873
913.545	15926
913.659	15956
913.772	15911
913.886	15679
914	15610
914.113	15720
914.226	15785
914.34	15884
914.453	15477
914.566	15667
914.68	15545
914.793	15507
914.906	15439
915.019	15203
915.132	15241
915.245	15226
915.358	15344
915.47	15287
915.583	15249
915.696	15287
915.809	15351
915.921	15416
916.034	15184
916.146	15039
916.259	15161
916.371	15313
916.483	15272
916.595	15138
916.708	15085
916.82	15104
916.932	15058
917.044	14986
917.156	15070
917.268	14823
917.38	14967
917.491	14845
917.603	14986
917.715	14876
917.826	15024
917.938	14895
918.049	14754
918.161	14902
918.272	14910
918.384	14910
918.495	14765
918.606	14632
918.717	14693
918.828	14629
918.939	14727
919.05	14556
919.161	14655
919.272	14408
919.383	14503
919.494	14640
919.604	14872
919.715	14708
919.826	14587
919.936	14518
920.047	14682
920.157	14682
920.267	14762
920.378	14625
920.488	14476
920.598	14777
920.708	14887
920.818	14788
920.928	14743
921.038	14925
921.148	14906
921.258	14579
921.368	14518
921.477	14393
921.587	14385
921.697	14248
921.806	14423
921.916	14233
922.025	14096
922.134	14031
922.244	13963
922.353	14016
922.462	13989
922.571	13814
922.68	13658
922.789	13590
922.898	13750
923.007	13636
923.116	13700
923.224	13681
923.333	13605
923.442	13449
923.55	13499
923.659	13540
923.767	13506
923.876	13411
923.984	13552
924.092	13362
924.201	13445
924.309	13327
924.417	13377
924.525	13304
924.633	13285
924.741	14210
924.849	12977
924.956	13255
925.064	13141
925.172	12985
925.279	13000
925.387	13019
925.494	13099
925.602	13187
925.709	13088
925.816	13023
925.924	13034
926.031	13141
926.138	12966
926.245	13023
926.352	12840
926.459	13019
926.566	13072
926.673	12958
926.779	12837
926.886	12798
926.993	12673
927.099	12696
927.206	12509
927.312	12585
927.419	12631
927.525	12555
927.631	12623
927.737	12502
927.843	12395
927.95	12372
928.056	12464
928.162	12426
928.267	12498
928.373	12973
928.479	12536
928.585	12228
928.69	12422
928.796	12502
928.901	12296
929.007	12224
929.112	12353
929.218	12152
929.323	12201
929.428	12186
929.533	12251
929.638	12148
929.743	12163
929.848	12136
929.953	12030
930.058	11988
930.163	11859
930.267	11958
930.372	11988
930.477	11779
930.581	11942
930.685	11927
930.79	11752
930.894	11790
930.998	11676
931.103	11745
931.207	11547
931.311	11345
931.415	11318
931.519	11079
931.623	11105
