Data from test_V78500241_2697.txt Node
Date: Fri Mar 25 16:00:29 CST 2022
User: usil
Spectrometer: V785-0024
Trigger mode: 0
Integration Time (sec): 4.000000E-1
Scans to average: 1
Nonlinearity correction enabled: false
Boxcar width: 0
Storing dark spectrum: false
XAxis mode: Wavelengths
Number of Pixels in Spectrum: 1024
>>>>>Begin Spectral Data<<<<<
801.071	28713
801.214	28451
801.356	28207
801.499	28367
801.641	28204
801.783	28379
801.926	28211
802.068	28211
802.211	28078
802.353	28067
802.496	27934
802.638	27964
802.78	27945
802.923	27739
803.065	27816
803.208	27835
803.35	27918
803.492	27994
803.635	28105
803.777	27956
803.919	28207
804.061	28512
804.204	28048
804.346	28021
804.488	28074
804.63	28166
804.773	27911
804.915	28207
805.057	28284
805.199	28265
805.341	28177
805.483	28325
805.626	28207
805.768	28291
805.91	28375
806.052	28341
806.194	28246
806.336	28455
806.478	28329
806.62	28344
806.762	28337
806.904	28618
807.046	28854
807.188	28717
807.33	28694
807.472	28763
807.614	28733
807.756	28672
807.898	28645
808.04	28504
808.182	28409
808.324	28557
808.465	28763
808.607	28881
808.749	28927
808.891	28957
809.033	29208
809.174	29094
809.316	28949
809.458	29029
809.6	28930
809.741	29147
809.883	29037
810.025	29223
810.166	29360
810.308	29273
810.45	29242
810.591	29212
810.733	29056
810.875	29044
811.016	28934
811.158	28900
811.299	29083
811.441	29052
811.582	29117
811.724	28885
811.865	29071
812.007	28987
812.148	28946
812.29	29041
812.431	29181
812.573	29341
812.714	29410
812.855	29482
812.997	29573
813.138	29570
813.279	29585
813.421	29558
813.562	29398
813.703	29417
813.845	29330
813.986	28972
814.127	28733
814.268	28740
814.41	28721
814.551	28626
814.692	28656
814.833	28649
814.974	28778
815.115	28645
815.256	28573
815.397	28592
815.539	28519
815.68	28497
815.821	28401
815.962	28557
816.103	28485
816.244	28455
816.385	28284
816.526	28318
816.666	28048
816.807	28105
816.948	28090
817.089	28036
817.23	27998
817.371	28010
817.512	27991
817.653	27991
817.793	27869
817.934	28006
818.075	28013
818.216	28010
818.356	27880
818.497	27869
818.638	27724
818.778	27705
818.919	27850
819.06	27808
819.2	27888
819.341	28067
819.481	27953
819.622	28226
819.762	28253
819.903	28219
820.043	28169
820.184	28166
820.324	28150
820.465	28150
820.605	28017
820.746	28200
820.886	27968
821.026	28010
821.167	28093
821.307	28207
821.447	28070
821.588	27964
821.728	27778
821.868	27561
822.008	27515
822.149	27603
822.289	27458
822.429	27211
822.569	27089
822.709	27119
822.849	27028
822.99	27032
823.13	26994
823.27	27051
823.41	26781
823.55	26670
823.69	26864
823.83	26792
823.97	26724
824.11	26583
824.25	26541
824.389	26701
824.529	26788
824.669	26693
824.809	26800
824.949	26914
825.089	26781
825.228	26708
825.368	26480
825.508	26469
825.648	26484
825.787	26499
825.927	26682
826.067	26476
826.206	26556
826.346	26598
826.485	26511
826.625	26571
826.765	26663
826.904	26629
827.044	26362
827.183	26358
827.323	26195
827.462	26351
827.601	26332
827.741	26248
827.88	26240
828.02	26221
828.159	26233
828.298	26282
828.437	26271
828.577	26202
828.716	26267
828.855	26183
828.994	25940
829.134	25989
829.273	26069
829.412	25887
829.551	25978
829.69	25940
829.829	25811
829.968	26031
830.107	25982
830.246	25955
830.385	25795
830.524	25845
830.663	25769
830.802	25556
830.941	25597
831.08	25438
831.219	25582
831.357	25582
831.496	25799
831.635	25476
831.774	25518
831.913	25419
832.051	25320
832.19	25343
832.329	25187
832.467	25297
832.606	25251
832.744	25251
832.883	25202
833.022	25069
833.16	25247
833.299	25251
833.437	25308
833.576	25251
833.714	25324
833.852	25278
833.991	25354
834.129	25449
834.267	25384
834.406	25274
834.544	25244
834.682	25274
834.821	25335
834.959	25407
835.097	25171
835.235	25297
835.373	25285
835.511	25202
835.65	25034
835.788	25053
835.926	24951
836.064	24943
836.202	24924
836.34	25050
836.478	25072
836.615	25023
836.753	25103
836.891	25160
837.029	25061
837.167	25000
837.305	25012
837.443	24932
837.58	24981
837.718	24935
837.856	24958
837.993	24757
838.131	24840
838.269	24711
838.406	24825
838.544	24821
838.681	24532
838.819	24338
838.956	24384
839.094	24460
839.231	24395
839.369	24627
839.506	24753
839.643	24574
839.781	24277
839.918	24414
840.055	24388
840.193	24251
840.33	24292
840.467	24369
840.604	24323
840.742	24589
840.879	24304
841.016	24152
841.153	24171
841.29	24441
841.427	24330
841.564	24338
841.701	24224
841.838	24167
841.975	24182
842.112	24209
842.249	24068
842.385	24030
842.522	24330
842.659	24034
842.796	24068
842.933	24095
843.069	23923
843.206	24034
843.343	24163
843.479	24030
843.616	24144
843.752	23767
843.889	23904
844.025	23935
844.162	23809
844.298	23836
844.435	23786
844.571	23767
844.708	23790
844.844	24038
844.98	23958
845.117	24045
845.253	23672
845.389	23657
845.525	23638
845.661	23611
845.798	23623
845.934	23634
846.07	23455
846.206	23531
846.342	23623
846.478	23516
846.614	23490
846.75	23208
846.886	23395
847.022	23387
847.158	23250
847.294	23280
847.429	23273
847.565	23261
847.701	23478
847.837	22885
847.972	22953
848.108	23075
848.244	23064
848.379	22767
848.515	22790
848.65	22816
848.786	22946
848.921	22866
849.057	23037
849.192	22953
849.328	22816
849.463	22771
849.598	22854
849.734	22706
849.869	22729
850.004	22577
850.14	22637
850.275	22641
850.41	22569
850.545	22618
850.68	22512
850.815	22577
850.95	22588
851.085	22847
851.22	22816
851.355	22649
851.49	22603
851.625	22493
851.76	22702
851.895	22550
852.03	22626
852.165	22668
852.299	22656
852.434	22717
852.569	22622
852.703	22500
852.838	22569
852.973	22733
853.107	22713
853.242	22478
853.376	22462
853.511	22409
853.645	22341
853.78	22485
853.914	22436
854.048	22379
854.183	22314
854.317	22588
854.451	22637
854.585	22363
854.72	22329
854.854	22489
854.988	22360
855.122	22493
855.256	22371
855.39	22409
855.524	22447
855.658	22474
855.792	22493
855.926	22318
856.06	22371
856.194	22481
856.327	22409
856.461	22386
856.595	22337
856.729	22382
856.862	22603
856.996	22402
857.13	22432
857.263	22497
857.397	22504
857.53	22428
857.664	22500
857.797	22573
857.931	22580
858.064	22432
858.197	22421
858.331	22459
858.464	22356
858.597	22451
858.731	22291
858.864	22356
858.997	22417
859.13	22451
859.263	22508
859.396	22421
859.529	22409
859.662	22447
859.795	22447
859.928	22470
860.061	22588
860.194	22653
860.327	22436
860.46	22607
860.592	22554
860.725	22687
860.858	22569
860.99	22413
861.123	22272
861.256	22436
861.388	22470
861.521	23147
861.653	22192
861.786	22284
861.918	22261
862.05	22196
862.183	22352
862.315	22489
862.447	22508
862.58	22382
862.712	22192
862.844	22128
862.976	22162
863.108	22120
863.24	22592
863.372	22078
863.504	22120
863.636	22147
863.768	22154
863.9	22226
864.032	22032
864.164	22090
864.296	22207
864.428	22204
864.559	22147
864.691	22215
864.823	22131
864.954	22044
865.086	22017
865.217	21960
865.349	21861
865.48	22097
865.612	22002
865.743	22299
865.875	22097
866.006	21991
866.137	21979
866.269	22055
866.4	21960
866.531	21922
866.662	21945
866.793	21949
866.924	22021
867.055	21968
867.186	21956
867.317	21987
867.448	21960
867.579	21869
867.71	21895
867.841	21903
867.972	21987
868.103	21884
868.233	22010
868.364	21998
868.495	22074
868.625	22048
868.756	22379
868.886	21968
869.017	22226
869.147	22367
869.278	22341
869.408	22306
869.539	22158
869.669	22215
869.799	22272
869.929	22341
870.06	22352
870.19	22588
870.32	22367
870.45	22561
870.58	22637
870.71	22759
870.84	22736
870.97	22565
871.1	22603
871.23	22622
871.36	22782
871.489	22778
871.619	22809
871.749	22797
871.879	22793
872.008	22812
872.138	22831
872.267	22801
872.397	22599
872.526	22603
872.656	22892
872.785	22584
872.915	22835
873.044	22938
873.173	22900
873.303	22892
873.432	22938
873.561	22904
873.69	22915
873.819	22698
873.948	22927
874.077	22927
874.206	22744
874.335	22698
874.464	22850
874.593	22915
874.722	22816
874.851	22972
874.979	23083
875.108	22949
875.237	23022
875.365	22991
875.494	23010
875.623	23151
875.751	22980
875.88	23121
876.008	23048
876.136	23288
876.265	23326
876.393	23573
876.521	23486
876.65	23444
876.778	23452
876.906	23337
877.034	23391
877.162	23311
877.29	23140
877.418	23250
877.546	23334
877.674	23402
877.802	23406
877.93	23318
878.058	23311
878.185	23349
878.313	23288
878.441	23296
878.568	23227
878.696	23223
878.824	23379
878.951	23501
879.079	23497
879.206	23581
879.333	23493
879.461	23364
879.588	23455
879.715	23592
879.842	23592
879.97	23638
880.097	23178
880.224	23083
880.351	23250
880.478	23212
880.605	23010
880.732	23113
880.859	23216
880.986	23273
881.112	23212
881.239	22934
881.366	23041
881.493	22862
881.619	22736
881.746	22824
881.872	22812
881.999	22710
882.125	22702
882.252	22721
882.378	22607
882.505	22763
882.631	22618
882.757	22462
882.883	22584
883.01	22413
883.136	22459
883.262	22291
883.388	22192
883.514	22379
883.64	22310
883.766	22295
883.892	22109
884.018	22249
884.143	22417
884.269	22390
884.395	22150
884.52	22006
884.646	22078
884.772	21960
884.897	21876
885.023	22109
885.148	22192
885.274	22306
885.399	22032
885.524	21994
885.65	22086
885.775	22032
885.9	21991
886.025	22078
886.15	22109
886.275	21945
886.4	21991
886.525	21907
886.65	21979
886.775	21869
886.9	22162
887.025	22284
887.149	21899
887.274	21838
887.399	21899
887.523	21876
887.648	21770
887.773	21747
887.897	21793
888.021	21884
888.146	21751
888.27	21857
888.395	21915
888.519	21755
888.643	21838
888.767	21857
888.891	21823
889.015	21671
889.139	21667
889.263	21587
889.387	21606
889.511	21774
889.635	21747
889.759	21690
889.883	21568
890.006	21637
890.13	21793
890.254	21648
890.377	21450
890.501	21386
890.624	21351
890.748	21488
890.871	21298
890.995	21116
891.118	21108
891.241	21127
891.364	21142
891.488	21283
891.611	21127
891.734	21237
891.857	21279
891.98	21123
892.103	21157
892.226	21218
892.349	21096
892.471	21028
892.594	21100
892.717	21024
892.839	20998
892.962	21077
893.085	21138
893.207	21096
893.33	20883
893.452	20998
893.575	21074
893.697	21032
893.819	21264
893.941	21245
894.064	21203
894.186	21005
894.308	20948
894.43	21157
894.552	21055
894.674	21093
894.796	21009
894.918	21093
895.04	21062
895.161	21116
895.283	21104
895.405	20975
895.526	20998
895.648	21043
895.769	21089
895.891	21093
896.012	21207
896.134	21096
896.255	21070
896.376	21005
896.498	21051
896.619	21077
896.74	20914
896.861	21028
896.982	21317
897.103	21538
897.224	21283
897.345	21264
897.466	21252
897.587	21203
897.708	21279
897.828	21245
897.949	21211
898.07	20994
898.19	21161
898.311	21260
898.431	21138
898.552	21287
898.672	21329
898.792	21192
898.913	21279
899.033	21093
899.153	21077
899.273	20864
899.393	20937
899.513	21062
899.633	20994
899.753	20982
899.873	20796
899.993	21055
900.113	20891
900.232	20868
900.352	20861
900.472	20842
900.591	20838
900.711	20750
900.83	20686
900.95	20800
901.069	20872
901.189	20716
901.308	20404
901.427	20298
901.546	20252
901.665	20305
901.784	20351
901.904	20134
902.023	20096
902.141	19856
902.26	19887
902.379	19906
902.498	19868
902.617	19757
902.735	19780
902.854	19765
902.973	19780
903.091	19464
903.21	19544
903.328	19491
903.446	19373
903.565	19297
903.683	19206
903.801	19118
903.919	19263
904.038	19190
904.156	19046
904.274	19156
904.392	18977
904.51	18977
904.627	18909
904.745	19057
904.863	19015
904.981	18859
905.098	18563
905.216	18681
905.334	18764
905.451	18620
905.569	18551
905.686	18741
905.803	18661
905.921	18479
906.038	18551
906.155	18517
906.272	18448
906.389	18445
906.506	18258
906.623	18205
906.74	18258
906.857	18098
906.974	18155
907.091	18216
907.208	18285
907.324	18224
907.441	18079
907.557	17893
907.674	17870
907.79	17851
907.907	17802
908.023	17893
908.139	17885
908.256	17870
908.372	17851
908.488	17737
908.604	17615
908.72	17634
908.836	17615
908.952	17520
909.068	17623
909.184	17627
909.3	17722
909.415	17661
909.531	17642
909.647	17345
909.762	17474
909.878	17341
909.993	17311
910.108	17288
910.224	17250
910.339	17258
910.454	17117
910.57	17174
910.685	16976
910.8	17288
910.915	17330
911.03	17094
911.145	16919
911.259	16892
911.374	16828
911.489	16805
911.604	16687
911.718	16660
911.833	16721
911.947	16531
912.062	16546
912.176	16603
912.291	16641
912.405	16607
912.519	16755
912.633	16782
912.748	16622
912.862	16538
912.976	16675
913.09	16280
913.204	16493
913.318	16436
913.431	16470
913.545	16474
913.659	16523
913.772	16379
913.886	16242
914	16257
914.113	16367
914.226	16337
914.34	16265
914.453	16093
914.566	16337
914.68	16158
914.793	16086
914.906	15888
915.019	15911
915.132	15793
915.245	15747
915.358	15907
915.47	15823
915.583	15728
915.696	15854
915.809	15892
915.921	15956
916.034	15774
916.146	15728
916.259	15755
916.371	15797
916.483	15755
916.595	15610
916.708	15709
916.82	15637
916.932	15572
917.044	15584
917.156	15564
917.268	15412
917.38	15412
917.491	15428
917.603	15435
917.715	15466
917.826	15561
917.938	15306
918.049	15298
918.161	15389
918.272	15485
918.384	15485
918.495	15325
918.606	15214
918.717	15142
918.828	15321
918.939	15317
919.05	15097
919.161	15195
919.272	15043
919.383	15085
919.494	15230
919.604	15317
919.715	15184
919.826	15047
919.936	15074
920.047	15203
920.157	15154
920.267	15310
920.378	15157
920.488	15081
920.598	15283
920.708	15378
920.818	15340
920.928	15237
921.038	15397
921.148	15355
921.258	15131
921.368	14929
921.477	14929
921.587	14861
921.697	14773
921.806	14895
921.916	14777
922.025	14655
922.134	14465
922.244	14568
922.353	14522
922.462	14415
922.571	14343
922.68	14153
922.789	14115
922.898	14221
923.007	14149
923.116	14187
923.224	14035
923.333	14096
923.442	14119
923.55	13868
923.659	14081
923.767	14020
923.876	13967
923.984	14012
924.092	13860
924.201	13852
924.309	13868
924.417	13883
924.525	13753
924.633	13883
924.741	14743
924.849	13616
924.956	13822
925.064	13639
925.172	13491
925.279	13597
925.387	13628
925.494	13529
925.602	13632
925.709	13636
925.816	13491
925.924	13495
926.031	13533
926.138	13487
926.245	13521
926.352	13392
926.459	13525
926.566	13483
926.673	13362
926.779	13289
926.886	13217
926.993	13194
927.099	13069
927.206	13008
927.312	13004
927.419	13133
927.525	13034
927.631	13065
927.737	12996
927.843	12909
927.95	12875
928.056	12886
928.162	12886
928.267	12894
928.373	13487
928.479	12901
928.585	12768
928.69	12916
928.796	12856
928.901	12745
929.007	12582
929.112	12783
929.218	12681
929.323	12616
929.428	12601
929.533	12673
929.638	12506
929.743	12589
929.848	12601
929.953	12627
930.058	12315
930.163	12281
930.267	12209
930.372	12388
930.477	12243
930.581	12452
930.685	12315
930.79	12159
930.894	12110
930.998	12114
931.103	12251
931.207	11878
931.311	11783
931.415	11733
931.519	11490
931.623	11478
