Data from test_V78500241_290.txt Node
Date: Fri Mar 25 15:43:48 CST 2022
User: usil
Spectrometer: V785-0024
Trigger mode: 0
Integration Time (sec): 4.000000E-1
Scans to average: 1
Nonlinearity correction enabled: false
Boxcar width: 0
Storing dark spectrum: false
XAxis mode: Wavelengths
Number of Pixels in Spectrum: 1024
>>>>>Begin Spectral Data<<<<<
801.071	29379
801.214	29501
801.356	29292
801.499	29117
801.641	29147
801.783	29006
801.926	29128
802.068	29086
802.211	28984
802.353	29010
802.496	28786
802.638	28881
802.78	28786
802.923	28763
803.065	28550
803.208	28729
803.35	28862
803.492	28904
803.635	28972
803.777	28774
803.919	28881
804.061	29246
804.204	28995
804.346	28801
804.488	28801
804.63	28843
804.773	28828
804.915	28877
805.057	29105
805.199	28885
805.341	28987
805.483	28999
805.626	29006
805.768	28866
805.91	28942
806.052	28896
806.194	28999
806.336	29075
806.478	29067
806.62	29124
806.762	29166
806.904	29330
807.046	29547
807.188	29421
807.33	29448
807.472	29623
807.614	29436
807.756	29360
807.898	29258
808.04	29174
808.182	29140
808.324	29189
808.465	29235
808.607	29391
808.749	29577
808.891	29752
809.033	29748
809.174	29646
809.316	29646
809.458	29684
809.6	29543
809.741	29592
809.883	29642
810.025	29878
810.166	29977
810.308	29958
810.45	29760
810.591	29847
810.733	29615
810.875	29668
811.016	29596
811.158	29581
811.299	29726
811.441	29802
811.582	29680
811.724	29592
811.865	29539
812.007	29535
812.148	29623
812.29	29672
812.431	29882
812.573	29954
812.714	30007
812.855	30114
812.997	30281
813.138	30357
813.279	30216
813.421	30117
813.562	29992
813.703	29931
813.845	29783
813.986	29448
814.127	29337
814.268	29349
814.41	29246
814.551	29185
814.692	29322
814.833	29193
814.974	29143
815.115	29288
815.256	29102
815.397	29094
815.539	29147
815.68	29003
815.821	28949
815.962	29037
816.103	28995
816.244	29010
816.385	28869
816.526	28672
816.666	28706
816.807	28401
816.948	28611
817.089	28672
817.23	28478
817.371	28550
817.512	28512
817.653	28470
817.793	28432
817.934	28497
818.075	28451
818.216	28527
818.356	28474
818.497	28390
818.638	28249
818.778	28074
818.919	28230
819.06	28295
819.2	28287
819.341	28394
819.481	28447
819.622	28607
819.762	28793
819.903	28664
820.043	28542
820.184	28497
820.324	28546
820.465	28649
820.605	28546
820.746	28459
820.886	28436
821.026	28527
821.167	28535
821.307	28580
821.447	28333
821.588	28299
821.728	28105
821.868	28150
822.008	27960
822.149	27972
822.289	27861
822.429	27469
822.569	27545
822.709	27603
822.849	27427
822.99	27416
823.13	27291
823.27	27344
823.41	27127
823.55	27085
823.69	27135
823.83	27199
823.97	27055
824.11	26933
824.25	26971
824.389	27017
824.529	27039
824.669	27058
824.809	27066
824.949	27195
825.089	27070
825.228	27028
825.368	26845
825.508	26838
825.648	26876
825.787	26845
825.927	26872
826.067	26838
826.206	26792
826.346	26914
826.485	26940
826.625	26883
826.765	27074
826.904	26796
827.044	26583
827.183	26587
827.323	26503
827.462	26579
827.601	26693
827.741	26473
827.88	26522
828.02	26400
828.159	26317
828.298	26625
828.437	26507
828.577	26343
828.716	26651
828.855	26446
828.994	26221
829.134	26142
829.273	26385
829.412	25970
829.551	26084
829.69	26031
829.829	26100
829.968	26210
830.107	26267
830.246	26103
830.385	26088
830.524	25947
830.663	25856
830.802	25841
830.941	25643
831.08	25651
831.219	25803
831.357	25765
831.496	25982
831.635	25586
831.774	25655
831.913	25712
832.051	25613
832.19	25445
832.329	25601
832.467	25396
832.606	25274
832.744	25304
832.883	25373
833.022	25289
833.16	25308
833.299	25369
833.437	25441
833.576	25426
833.714	25506
833.852	25540
833.991	25552
834.129	25491
834.267	25369
834.406	25415
834.544	25415
834.682	25354
834.821	25312
834.959	25518
835.097	25335
835.235	25403
835.373	25525
835.511	25297
835.65	25206
835.788	25183
835.926	25122
836.064	25148
836.202	25091
836.34	25259
836.478	25297
836.615	25209
836.753	25244
836.891	25255
837.029	25236
837.167	25103
837.305	25183
837.443	25057
837.58	25042
837.718	25187
837.856	25076
837.993	24985
838.131	24970
838.269	24863
838.406	24901
838.544	24833
838.681	24665
838.819	24620
838.956	24559
839.094	24304
839.231	24456
839.369	24688
839.506	24768
839.643	24753
839.781	24505
839.918	24342
840.055	24502
840.193	24247
840.33	24296
840.467	24365
840.604	24502
840.742	24566
840.879	24285
841.016	24270
841.153	24239
841.29	24433
841.427	24338
841.564	24334
841.701	24220
841.838	24247
841.975	24262
842.112	24178
842.249	24072
842.385	24254
842.522	24281
842.659	24125
842.796	24064
842.933	24095
843.069	24041
843.206	23984
843.343	24213
843.479	24045
843.616	24018
843.752	23923
843.889	23703
844.025	23901
844.162	23767
844.298	23927
844.435	23752
844.571	23729
844.708	23802
844.844	23942
844.98	23870
845.117	23828
845.253	23661
845.389	23668
845.525	23718
845.661	23539
845.798	23551
845.934	23558
846.07	23414
846.206	23524
846.342	23600
846.478	23493
846.614	23315
846.75	23204
846.886	23159
847.022	23239
847.158	23269
847.294	23261
847.429	23364
847.565	23178
847.701	23531
847.837	23014
847.972	22949
848.108	23006
848.244	22980
848.379	22862
848.515	22816
848.65	22782
848.786	22812
848.921	22869
849.057	22793
849.192	22915
849.328	22904
849.463	22847
849.598	22869
849.734	22546
849.869	22592
850.004	22474
850.14	22637
850.275	22523
850.41	22443
850.545	22417
850.68	22489
850.815	22561
850.95	22390
851.085	22672
851.22	22569
851.355	22497
851.49	22443
851.625	22596
851.76	22546
851.895	22542
852.03	22462
852.165	22493
852.299	22523
852.434	22645
852.569	22538
852.703	22649
852.838	22542
852.973	22523
853.107	22664
853.242	22432
853.376	22394
853.511	22257
853.645	22284
853.78	22523
853.914	22249
854.048	22363
854.183	22356
854.317	22272
854.451	22580
854.585	22341
854.72	22333
854.854	22443
854.988	22325
855.122	22409
855.256	22249
855.39	22428
855.524	22386
855.658	22299
855.792	22341
855.926	22417
856.06	22462
856.194	22459
856.327	22242
856.461	22291
856.595	22158
856.729	22356
856.862	22440
856.996	22390
857.13	22428
857.263	22561
857.397	22481
857.53	22268
857.664	22299
857.797	22329
857.931	22432
858.064	22322
858.197	22455
858.331	22280
858.464	22154
858.597	22188
858.731	22291
858.864	22226
858.997	22303
859.13	22223
859.263	22242
859.396	22344
859.529	22318
859.662	22382
859.795	22116
859.928	22272
860.061	22405
860.194	22447
860.327	22379
860.46	22333
860.592	22497
860.725	22417
860.858	22344
860.99	22318
861.123	22166
861.256	22196
861.388	22242
861.521	22995
861.653	22143
861.786	22147
861.918	22230
862.05	22287
862.183	22291
862.315	22299
862.447	22268
862.58	22344
862.712	21926
862.844	22048
862.976	21903
863.108	21994
863.24	22352
863.372	21831
863.504	21975
863.636	21800
863.768	22002
863.9	21930
864.032	21888
864.164	21869
864.296	22086
864.428	22074
864.559	22055
864.691	22010
864.823	21895
864.954	21956
865.086	21911
865.217	21922
865.349	21759
865.48	21899
865.612	21884
865.743	22021
865.875	21941
866.006	21846
866.137	21876
866.269	21880
866.4	21755
866.531	21785
866.662	21762
866.793	21838
866.924	21774
867.055	21888
867.186	21960
867.317	21827
867.448	21671
867.579	21774
867.71	21675
867.841	21819
867.972	21766
868.103	21835
868.233	21816
868.364	21808
868.495	21778
868.625	21964
868.756	22143
868.886	21884
869.017	22040
869.147	22143
869.278	22181
869.408	21968
869.539	21941
869.669	22074
869.799	22025
869.929	21983
870.06	22112
870.19	22386
870.32	22253
870.45	22333
870.58	22352
870.71	22481
870.84	22493
870.97	22360
871.1	22459
871.23	22577
871.36	22519
871.489	22466
871.619	22493
871.749	22550
871.879	22645
872.008	22656
872.138	22500
872.267	22668
872.397	22440
872.526	22447
872.656	22318
872.785	22436
872.915	22588
873.044	22618
873.173	22630
873.303	22546
873.432	22615
873.561	22713
873.69	22554
873.819	22596
873.948	22588
874.077	22637
874.206	22577
874.335	22649
874.464	22725
874.593	22938
874.722	22858
874.851	22854
874.979	22923
875.108	22900
875.237	22801
875.365	22702
875.494	22744
875.623	22942
875.751	22771
875.88	22771
876.008	23060
876.136	22911
876.265	23170
876.393	23273
876.521	23174
876.65	23417
876.778	23212
876.906	23117
877.034	23166
877.162	23326
877.29	23109
877.418	23193
877.546	23200
877.674	23174
877.802	23204
877.93	23124
878.058	23075
878.185	23067
878.313	23200
878.441	23341
878.568	22953
878.696	23113
878.824	23132
878.951	23250
879.079	23345
879.206	23531
879.333	23296
879.461	23178
879.588	23269
879.715	23433
879.842	23566
879.97	23162
880.097	23022
880.224	23018
880.351	23067
880.478	22976
880.605	22816
880.732	23025
880.859	23303
880.986	23018
881.112	22980
881.239	22923
881.366	22702
881.493	22645
881.619	22527
881.746	22653
881.872	22733
881.999	22516
882.125	22500
882.252	22580
882.378	22649
882.505	22531
882.631	22481
882.757	22341
882.883	22268
883.01	22272
883.136	22299
883.262	22143
883.388	22086
883.514	22382
883.64	22265
883.766	22169
883.892	21975
884.018	22086
884.143	22226
884.269	22306
884.395	21899
884.52	21960
884.646	21888
884.772	21926
884.897	21755
885.023	21869
885.148	21842
885.274	22078
885.399	21960
885.524	21903
885.65	21869
885.775	21880
885.9	21915
886.025	21835
886.15	21960
886.275	21930
886.4	21724
886.525	21774
886.65	21812
886.775	21869
886.9	22070
887.025	22207
887.149	21880
887.274	21595
887.399	21690
887.523	21492
887.648	21580
887.773	21572
887.897	21720
888.021	21717
888.146	21610
888.27	21724
888.395	21766
888.519	21663
888.643	21576
888.767	21690
888.891	21553
889.015	21416
889.139	21534
889.263	21481
889.387	21454
889.511	21591
889.635	21561
889.759	21389
889.883	21416
890.006	21435
890.13	21504
890.254	21306
890.377	21348
890.501	21173
890.624	21195
890.748	21218
890.871	21199
890.995	20910
891.118	20895
891.241	20971
891.364	21028
891.488	21089
891.611	20990
891.734	20941
891.857	20937
891.98	21013
892.103	20967
892.226	21123
892.349	20914
892.471	20716
892.594	20975
892.717	20948
892.839	20845
892.962	20872
893.085	20906
893.207	20941
893.33	20743
893.452	20727
893.575	20998
893.697	20902
893.819	20971
893.941	21077
894.064	20933
894.186	20857
894.308	20750
894.43	20864
894.552	20960
894.674	20944
894.796	20663
894.918	20796
895.04	20804
895.161	20910
895.283	20918
895.405	20868
895.526	20880
895.648	20785
895.769	20895
895.891	20910
896.012	20899
896.134	20918
896.255	20990
896.376	20811
896.498	20853
896.619	20944
896.74	20998
896.861	20929
896.982	21214
897.103	21351
897.224	21142
897.345	21074
897.466	21058
897.587	21104
897.708	21291
897.828	21211
897.949	20925
898.07	20899
898.19	20998
898.311	21085
898.431	20986
898.552	20990
898.672	21096
898.792	21142
898.913	21055
899.033	20769
899.153	20769
899.273	20716
899.393	20667
899.513	20864
899.633	20739
899.753	20876
899.873	20670
899.993	20762
900.113	20686
900.232	20826
900.352	20697
900.472	20545
900.591	20476
900.711	20507
900.83	20454
900.95	20651
901.069	20636
901.189	20454
901.308	20240
901.427	20050
901.546	20149
901.665	20229
901.784	20035
901.904	20031
902.023	19868
902.141	19605
902.26	19601
902.379	19597
902.498	19548
902.617	19544
902.735	19643
902.854	19525
902.973	19377
903.091	19266
903.21	19316
903.328	19228
903.446	19213
903.565	19019
903.683	19000
903.801	18871
903.919	18859
904.038	19008
904.156	18798
904.274	18875
904.392	18635
904.51	18745
904.627	18886
904.745	18901
904.863	18875
904.981	18532
905.098	18464
905.216	18513
905.334	18498
905.451	18490
905.569	18441
905.686	18528
905.803	18467
905.921	18346
906.038	18330
906.155	18258
906.272	18106
906.389	18091
906.506	18049
906.623	17912
906.74	17840
906.857	17840
906.974	17935
907.091	17931
907.208	18178
907.324	18060
907.441	17878
907.557	17741
907.674	17668
907.79	17642
907.907	17577
908.023	17600
908.139	17699
908.256	17608
908.372	17562
908.488	17459
908.604	17322
908.72	17402
908.836	17322
908.952	17273
909.068	17406
909.184	17376
909.3	17334
909.415	17414
909.531	17235
909.647	17181
909.762	17147
909.878	17151
909.993	17045
910.108	17006
910.224	17067
910.339	17048
910.454	16831
910.57	16919
910.685	16740
910.8	17022
910.915	16930
911.03	16858
911.145	16664
911.259	16554
911.374	16725
911.489	16531
911.604	16531
911.718	16310
911.833	16432
911.947	16284
912.062	16226
912.176	16337
912.291	16409
912.405	16371
912.519	16542
912.633	16554
912.748	16417
912.862	16318
912.976	16211
913.09	15987
913.204	16078
913.318	16265
913.431	16200
913.545	16204
913.659	16219
913.772	16040
913.886	16029
914	16017
914.113	16090
914.226	16051
914.34	15960
914.453	15793
914.566	16044
914.68	15819
914.793	15816
914.906	15667
915.019	15614
915.132	15481
915.245	15523
915.358	15526
915.47	15538
915.583	15549
915.696	15534
915.809	15663
915.921	15709
916.034	15572
916.146	15424
916.259	15519
916.371	15538
916.483	15542
916.595	15336
916.708	15393
916.82	15393
916.932	15344
917.044	15389
917.156	15351
917.268	15169
917.38	15237
917.491	15176
917.603	15165
917.715	15294
917.826	15283
917.938	15169
918.049	14918
918.161	15146
918.272	15374
918.384	15291
918.495	15108
918.606	14929
918.717	14880
918.828	14956
918.939	14849
919.05	14826
919.161	14956
919.272	14670
919.383	14800
919.494	14918
919.604	15104
919.715	14853
919.826	14788
919.936	14823
920.047	14925
920.157	14937
920.267	14979
920.378	14967
920.488	14693
920.598	15024
920.708	15237
920.818	14986
920.928	14887
921.038	15123
921.148	15047
921.258	14804
921.368	14754
921.477	14636
921.587	14522
921.697	14568
921.806	14613
921.916	14404
922.025	14305
922.134	14233
922.244	14210
922.353	14309
922.462	14157
922.571	14020
922.68	13909
922.789	13849
922.898	13898
923.007	13879
923.116	13837
923.224	13761
923.333	13734
923.442	13742
923.55	13700
923.659	13597
923.767	13791
923.876	13609
923.984	13647
924.092	13556
924.201	13597
924.309	13636
924.417	13620
924.525	13563
924.633	13487
924.741	14446
924.849	13320
924.956	13343
925.064	13278
925.172	13236
925.279	13206
925.387	13324
925.494	13244
925.602	13335
925.709	13274
925.816	13152
925.924	13152
926.031	13259
926.138	13206
926.245	13228
926.352	13080
926.459	13266
926.566	13236
926.673	13149
926.779	12973
926.886	12966
926.993	12913
927.099	12848
927.206	12707
927.312	12734
927.419	12852
927.525	12700
927.631	12719
927.737	12665
927.843	12589
927.95	12471
928.056	12536
928.162	12684
928.267	12642
928.373	13236
928.479	12700
928.585	12456
928.69	12547
928.796	12582
928.901	12513
929.007	12372
929.112	12410
929.218	12399
929.323	12365
929.428	12346
929.533	12494
929.638	12338
929.743	12194
929.848	12350
929.953	12262
930.058	12175
930.163	12011
930.267	12026
930.372	12159
930.477	11996
930.581	12224
930.685	12022
930.79	11832
930.894	11821
930.998	11802
931.103	12038
931.207	11665
931.311	11520
931.415	11471
931.519	11292
931.623	11250
