Data from test_V78500241_2812.txt Node
Date: Fri Mar 25 16:01:16 CST 2022
User: usil
Spectrometer: V785-0024
Trigger mode: 0
Integration Time (sec): 4.000000E-1
Scans to average: 1
Nonlinearity correction enabled: false
Boxcar width: 0
Storing dark spectrum: false
XAxis mode: Wavelengths
Number of Pixels in Spectrum: 1024
>>>>>Begin Spectral Data<<<<<
801.071	29048
801.214	28968
801.356	28748
801.499	28660
801.641	28615
801.783	28516
801.926	28630
802.068	28763
802.211	28580
802.353	28584
802.496	28451
802.638	28459
802.78	28086
802.923	28219
803.065	28249
803.208	28363
803.35	28295
803.492	28440
803.635	28565
803.777	28360
803.919	28694
804.061	28881
804.204	28675
804.346	28504
804.488	28607
804.63	28512
804.773	28516
804.915	28634
805.057	28763
805.199	28691
805.341	28835
805.483	28828
805.626	28637
805.768	28607
805.91	28736
806.052	28733
806.194	28630
806.336	28999
806.478	28736
806.62	28778
806.762	28972
806.904	29105
807.046	29360
807.188	29109
807.33	29208
807.472	29349
807.614	29136
807.756	29113
807.898	29151
808.04	29003
808.182	29052
808.324	29162
808.465	29162
808.607	29402
808.749	29493
808.891	29585
809.033	29577
809.174	29627
809.316	29482
809.458	29505
809.6	29543
809.741	29467
809.883	29604
810.025	29779
810.166	29733
810.308	29805
810.45	29718
810.591	29733
810.733	29668
810.875	29467
811.016	29528
811.158	29398
811.299	29718
811.441	29764
811.582	29630
811.724	29566
811.865	29562
812.007	29547
812.148	29402
812.29	29497
812.431	29615
812.573	29889
812.714	29980
812.855	30136
812.997	30235
813.138	30376
813.279	30205
813.421	30163
813.562	29935
813.703	29859
813.845	29714
813.986	29402
814.127	29341
814.268	29181
814.41	29151
814.551	29330
814.692	29204
814.833	29052
814.974	29216
815.115	29246
815.256	29250
815.397	29090
815.539	29159
815.68	29033
815.821	28972
815.962	28934
816.103	29041
816.244	28854
816.385	28782
816.526	28767
816.666	28599
816.807	28489
816.948	28580
817.089	28759
817.23	28546
817.371	28588
817.512	28645
817.653	28626
817.793	28451
817.934	28607
818.075	28645
818.216	28588
818.356	28489
818.497	28398
818.638	28306
818.778	28280
818.919	28280
819.06	28272
819.2	28531
819.341	28478
819.481	28561
819.622	28805
819.762	28953
819.903	28790
820.043	28713
820.184	28763
820.324	28733
820.465	28767
820.605	28767
820.746	28763
820.886	28653
821.026	28698
821.167	28607
821.307	28596
821.447	28736
821.588	28417
821.728	28341
821.868	28204
822.008	28021
822.149	28124
822.289	27937
822.429	27975
822.569	27770
822.709	27682
822.849	27496
822.99	27633
823.13	27564
823.27	27485
823.41	27374
823.55	27249
823.69	27405
823.83	27397
823.97	27367
824.11	27203
824.25	27302
824.389	27351
824.529	27340
824.669	27329
824.809	27363
824.949	27439
825.089	27310
825.228	27325
825.368	26944
825.508	27096
825.648	27058
825.787	27157
825.927	27211
826.067	27005
826.206	27062
826.346	27146
826.485	27226
826.625	27017
826.765	27188
826.904	27226
827.044	26838
827.183	26842
827.323	26849
827.462	26864
827.601	26918
827.741	26743
827.88	26891
828.02	26769
828.159	26796
828.298	26842
828.437	26834
828.577	26785
828.716	26948
828.855	26636
828.994	26579
829.134	26579
829.273	26541
829.412	26465
829.551	26396
829.69	26351
829.829	26457
829.968	26648
830.107	26541
830.246	26541
830.385	26347
830.524	26370
830.663	26374
830.802	26282
830.941	26020
831.08	26138
831.219	26244
831.357	26218
831.496	26301
831.635	26058
831.774	25978
831.913	26062
832.051	25795
832.19	25830
832.329	26035
832.467	25845
832.606	25871
832.744	25788
832.883	25807
833.022	25727
833.16	25833
833.299	25761
833.437	25753
833.576	25879
833.714	25795
833.852	25830
833.991	26024
834.129	25966
834.267	25959
834.406	25917
834.544	25887
834.682	25818
834.821	25871
834.959	26031
835.097	25814
835.235	25837
835.373	25731
835.511	25772
835.65	25670
835.788	25643
835.926	25575
836.064	25483
836.202	25578
836.34	25803
836.478	25674
836.615	25639
836.753	25689
836.891	25727
837.029	25620
837.167	25590
837.305	25407
837.443	25537
837.58	25472
837.718	25479
837.856	25460
837.993	25293
838.131	25514
838.269	25373
838.406	25282
838.544	25285
838.681	25160
838.819	25160
838.956	24939
839.094	24928
839.231	25015
839.369	25084
839.506	25301
839.643	25145
839.781	24973
839.918	24882
840.055	25061
840.193	24878
840.33	24909
840.467	24829
840.604	24901
840.742	24954
840.879	24749
841.016	24684
841.153	24688
841.29	25000
841.427	24745
841.564	24840
841.701	24814
841.838	24863
841.975	24585
842.112	24867
842.249	24654
842.385	24642
842.522	24764
842.659	24684
842.796	24582
842.933	24589
843.069	24589
843.206	24509
843.343	24684
843.479	24627
843.616	24555
843.752	24388
843.889	24369
844.025	24566
844.162	24448
844.298	24494
844.435	24395
844.571	24365
844.708	24296
844.844	24612
844.98	24563
845.117	24456
845.253	24384
845.389	24235
845.525	24216
845.661	24174
845.798	24224
845.934	24155
846.07	24159
846.206	24178
846.342	24247
846.478	23931
846.614	23824
846.75	23798
846.886	23756
847.022	23901
847.158	23874
847.294	23866
847.429	23771
847.565	23817
847.701	23923
847.837	23440
847.972	23528
848.108	23581
848.244	23512
848.379	23531
848.515	23433
848.65	23440
848.786	23334
848.921	23486
849.057	23623
849.192	23459
849.328	23493
849.463	23376
849.598	23410
849.734	23322
849.869	23170
850.004	23170
850.14	23292
850.275	23208
850.41	23128
850.545	23151
850.68	23204
850.815	23261
850.95	23296
851.085	23486
851.22	23208
851.355	23189
851.49	23083
851.625	23273
851.76	23113
851.895	23044
852.03	23117
852.165	23254
852.299	23166
852.434	23322
852.569	23280
852.703	23140
852.838	23181
852.973	23368
853.107	23246
853.242	23155
853.376	22915
853.511	22797
853.645	23048
853.78	23178
853.914	22972
854.048	22786
854.183	23014
854.317	23033
854.451	23189
854.585	22957
854.72	23025
854.854	22968
854.988	23033
855.122	23033
855.256	22835
855.39	22949
855.524	23014
855.658	23067
855.792	22991
855.926	23029
856.06	22911
856.194	23018
856.327	22984
856.461	23003
856.595	22869
856.729	22885
856.862	23067
856.996	23121
857.13	22995
857.263	23033
857.397	23155
857.53	23048
857.664	23086
857.797	23117
857.931	23136
858.064	22911
858.197	23094
858.331	22854
858.464	22850
858.597	22850
858.731	22961
858.864	22934
858.997	22976
859.13	22949
859.263	23105
859.396	23117
859.529	22965
859.662	22987
859.795	23014
859.928	23052
860.061	23132
860.194	23197
860.327	23090
860.46	22957
860.592	23147
860.725	23162
860.858	23124
860.99	23033
861.123	22999
861.256	23010
861.388	22961
861.521	23726
861.653	22892
861.786	22812
861.918	22702
862.05	22862
862.183	22919
862.315	22946
862.447	22915
862.58	22873
862.712	22698
862.844	22641
862.976	22839
863.108	22809
863.24	22961
863.372	22653
863.504	22729
863.636	22672
863.768	22767
863.9	22641
864.032	22679
864.164	22630
864.296	22828
864.428	22736
864.559	22698
864.691	22839
864.823	22687
864.954	22668
865.086	22649
865.217	22550
865.349	22596
865.48	22542
865.612	22489
865.743	22706
865.875	22588
866.006	22516
866.137	22618
866.269	22588
866.4	22535
866.531	22607
866.662	22466
866.793	22584
866.924	22527
867.055	22497
867.186	22550
867.317	22432
867.448	22428
867.579	22398
867.71	22485
867.841	22386
867.972	22489
868.103	22489
868.233	22455
868.364	22474
868.495	22637
868.625	22660
868.756	22820
868.886	22630
869.017	22740
869.147	22786
869.278	22850
869.408	22607
869.539	22729
869.669	22831
869.799	22721
869.929	22858
870.06	22869
870.19	23094
870.32	23052
870.45	23086
870.58	23022
870.71	23147
870.84	23170
870.97	23235
871.1	23212
871.23	23284
871.36	23254
871.489	23235
871.619	23330
871.749	23299
871.879	23383
872.008	23471
872.138	23239
872.267	23372
872.397	23212
872.526	23151
872.656	23151
872.785	23128
872.915	23376
873.044	23410
873.173	23303
873.303	23337
873.432	23478
873.561	23471
873.69	23406
873.819	23337
873.948	23436
874.077	23349
874.206	23318
874.335	23322
874.464	23349
874.593	23649
874.722	23482
874.851	23509
874.979	23516
875.108	23455
875.237	23387
875.365	23455
875.494	23486
875.623	23608
875.751	23528
875.88	23539
876.008	23642
876.136	23771
876.265	23961
876.393	24072
876.521	23897
876.65	23988
876.778	23901
876.906	23878
877.034	23840
877.162	23912
877.29	23859
877.418	23965
877.546	23805
877.674	23847
877.802	23783
877.93	23847
878.058	23805
878.185	23691
878.313	23920
878.441	23984
878.568	23619
878.696	23824
878.824	23916
878.951	23935
879.079	24076
879.206	24330
879.333	23980
879.461	23908
879.588	24015
879.715	24057
879.842	24232
879.97	23939
880.097	23729
880.224	23718
880.351	23794
880.478	23676
880.605	23623
880.732	23649
880.859	23893
880.986	23805
881.112	23729
881.239	23615
881.366	23528
881.493	23368
881.619	23208
881.746	23220
881.872	23246
881.999	23143
882.125	23223
882.252	23364
882.378	23216
882.505	23353
882.631	23258
882.757	23067
882.883	22980
883.01	22850
883.136	23018
883.262	22900
883.388	22828
883.514	22927
883.64	22892
883.766	22908
883.892	22634
884.018	22828
884.143	22889
884.269	22797
884.395	22683
884.52	22618
884.646	22554
884.772	22565
884.897	22424
885.023	22440
885.148	22637
885.274	22691
885.399	22691
885.524	22531
885.65	22637
885.775	22618
885.9	22413
886.025	22706
886.15	22596
886.275	22516
886.4	22421
886.525	22485
886.65	22470
886.775	22428
886.9	22691
887.025	22645
887.149	22485
887.274	22367
887.399	22173
887.523	22375
887.648	22325
887.773	22185
887.897	22417
888.021	22344
888.146	22272
888.27	22367
888.395	22314
888.519	22322
888.643	22417
888.767	22310
888.891	22257
889.015	22063
889.139	22257
889.263	22029
889.387	22211
889.511	22291
889.635	22234
889.759	22040
889.883	22105
890.006	22120
890.13	22124
890.254	21941
890.377	22154
890.501	21972
890.624	21907
890.748	21884
890.871	21766
890.995	21618
891.118	21606
891.241	21663
891.364	21724
891.488	21770
891.611	21709
891.734	21603
891.857	21804
891.98	21675
892.103	21705
892.226	21583
892.349	21587
892.471	21428
892.594	21485
892.717	21625
892.839	21511
892.962	21504
893.085	21568
893.207	21507
893.33	21332
893.452	21545
893.575	21679
893.697	21599
893.819	21622
893.941	21686
894.064	21629
894.186	21454
894.308	21386
894.43	21557
894.552	21644
894.674	21580
894.796	21500
894.918	21374
895.04	21462
895.161	21549
895.283	21614
895.405	21424
895.526	21595
895.648	21325
895.769	21500
895.891	21553
896.012	21572
896.134	21561
896.255	21530
896.376	21401
896.498	21599
896.619	21568
896.74	21386
896.861	21534
896.982	21899
897.103	21831
897.224	21629
897.345	21842
897.466	21637
897.587	21694
897.708	21717
897.828	21679
897.949	21614
898.07	21614
898.19	21690
898.311	21850
898.431	21511
898.552	21667
898.672	21656
898.792	21682
898.913	21667
899.033	21644
899.153	21580
899.273	21355
899.393	21397
899.513	21416
899.633	21477
899.753	21473
899.873	21370
899.993	21515
900.113	21310
900.232	21313
900.352	21348
900.472	21279
900.591	21081
900.711	21199
900.83	21085
900.95	21218
901.069	21272
901.189	20986
901.308	20880
901.427	20674
901.546	20785
901.665	20773
901.784	20788
901.904	20590
902.023	20602
902.141	20275
902.26	20256
902.379	20267
902.498	20214
902.617	20153
902.735	20286
902.854	20252
902.973	20142
903.091	19894
903.21	19898
903.328	19906
903.446	19784
903.565	19731
903.683	19704
903.801	19647
903.919	19441
904.038	19723
904.156	19411
904.274	19514
904.392	19438
904.51	19358
904.627	19544
904.745	19559
904.863	19464
904.981	19228
905.098	19152
905.216	19065
905.334	19129
905.451	19110
905.569	19000
905.686	19187
905.803	19168
905.921	18821
906.038	19088
906.155	18913
906.272	18825
906.389	18776
906.506	18696
906.623	18623
906.74	18608
906.857	18536
906.974	18494
907.091	18661
907.208	18642
907.324	18604
907.441	18483
907.557	18270
907.674	18399
907.79	18133
907.907	18315
908.023	18391
908.139	18361
908.256	18296
908.372	18327
908.488	18216
908.604	18155
908.72	18045
908.836	17977
908.952	17999
909.068	18091
909.184	18197
909.3	18026
909.415	18106
909.531	18030
909.647	17813
909.762	17752
909.878	17691
909.993	17722
910.108	17627
910.224	17570
910.339	17741
910.454	17543
910.57	17539
910.685	17436
910.8	17722
910.915	17741
911.03	17585
911.145	17326
911.259	17242
911.374	17356
911.489	17208
911.604	17284
911.718	17041
911.833	16965
911.947	16953
912.062	16824
912.176	16987
912.291	17052
912.405	17014
912.519	17181
912.633	17212
912.748	17094
912.862	17010
912.976	16984
913.09	16729
913.204	16843
913.318	16805
913.431	16949
913.545	16923
913.659	16885
913.772	16774
913.886	16736
914	16622
914.113	16740
914.226	16740
914.34	16668
914.453	16466
914.566	16634
914.68	16516
914.793	16386
914.906	16291
915.019	16299
915.132	16173
915.245	16196
915.358	16150
915.47	16230
915.583	16143
915.696	16169
915.809	16223
915.921	16329
916.034	16093
916.146	16143
916.259	16044
916.371	16162
916.483	16086
916.595	16006
916.708	16002
916.82	16017
916.932	15930
917.044	15972
917.156	15987
917.268	15838
917.38	15778
917.491	15793
917.603	15876
917.715	15816
917.826	15915
917.938	15827
918.049	15732
918.161	15785
918.272	15922
918.384	15827
918.495	15690
918.606	15618
918.717	15557
918.828	15595
918.939	15671
919.05	15355
919.161	15481
919.272	15291
919.383	15458
919.494	15591
919.604	15736
919.715	15519
919.826	15481
919.936	15462
920.047	15572
920.157	15450
920.267	15698
920.378	15443
920.488	15496
920.598	15644
920.708	15930
920.818	15717
920.928	15561
921.038	15759
921.148	15667
921.258	15401
921.368	15386
921.477	15222
921.587	15252
921.697	14963
921.806	15173
921.916	15032
922.025	14948
922.134	14857
922.244	14830
922.353	14868
922.462	14617
922.571	14617
922.68	14427
922.789	14545
922.898	14514
923.007	14473
923.116	14499
923.224	14457
923.333	14457
923.442	14317
923.55	14298
923.659	14343
923.767	14320
923.876	14214
923.984	14351
924.092	14191
924.201	14180
924.309	14100
924.417	14229
924.525	14107
924.633	14065
924.741	15009
924.849	13959
924.956	13963
925.064	13864
925.172	13883
925.279	13723
925.387	13982
925.494	13791
925.602	13837
925.709	13852
925.816	13746
925.924	13753
926.031	13852
926.138	13685
926.245	13738
926.352	13693
926.459	13677
926.566	13811
926.673	13605
926.779	13586
926.886	13567
926.993	13282
927.099	13392
927.206	13331
927.312	13289
927.419	13457
927.525	13419
927.631	13369
927.737	13316
927.843	13259
927.95	13118
928.056	13129
928.162	13228
928.267	13206
928.373	13647
928.479	13289
928.585	13015
928.69	13034
928.796	13171
928.901	13088
929.007	12798
929.112	12981
929.218	13031
929.323	12913
929.428	12913
929.533	12943
929.638	12867
929.743	12856
929.848	12825
929.953	12871
930.058	12703
930.163	12547
930.267	12593
930.372	12692
930.477	12464
930.581	12730
930.685	12593
930.79	12479
930.894	12372
930.998	12209
931.103	12490
931.207	12155
931.311	12106
931.415	11901
931.519	11798
931.623	11745
