Data from test_V78500241_2494.txt Node
Date: Fri Mar 25 15:59:04 CST 2022
User: usil
Spectrometer: V785-0024
Trigger mode: 0
Integration Time (sec): 4.000000E-1
Scans to average: 1
Nonlinearity correction enabled: false
Boxcar width: 0
Storing dark spectrum: false
XAxis mode: Wavelengths
Number of Pixels in Spectrum: 1024
>>>>>Begin Spectral Data<<<<<
801.071	28592
801.214	28580
801.356	28341
801.499	28181
801.641	28268
801.783	28093
801.926	28177
802.068	28128
802.211	28143
802.353	28154
802.496	27831
802.638	27739
802.78	27873
802.923	27759
803.065	27762
803.208	27789
803.35	27842
803.492	27953
803.635	28173
803.777	28143
803.919	28078
804.061	28451
804.204	28181
804.346	28070
804.488	27884
804.63	28040
804.773	28040
804.915	28101
805.057	28265
805.199	28207
805.341	28344
805.483	28173
805.626	28173
805.768	28070
805.91	28299
806.052	28268
806.194	28261
806.336	28421
806.478	28318
806.62	28211
806.762	28428
806.904	28550
807.046	28717
807.188	28653
807.33	28698
807.472	28736
807.614	28653
807.756	28675
807.898	28554
808.04	28508
808.182	28436
808.324	28596
808.465	28706
808.607	28820
808.749	28923
808.891	29109
809.033	29067
809.174	28961
809.316	28805
809.458	28873
809.6	28759
809.741	29132
809.883	29056
810.025	29284
810.166	29341
810.308	29258
810.45	28957
810.591	29117
810.733	29056
810.875	28885
811.016	28900
811.158	28824
811.299	29022
811.441	29155
811.582	28999
811.724	28892
811.865	28896
812.007	28923
812.148	28946
812.29	28953
812.431	29006
812.573	29239
812.714	29330
812.855	29410
812.997	29528
813.138	29760
813.279	29680
813.421	29497
813.562	29185
813.703	29296
813.845	29094
813.986	28919
814.127	28793
814.268	28573
814.41	28512
814.551	28668
814.692	28782
814.833	28443
814.974	28546
815.115	28752
815.256	28432
815.397	28542
815.539	28599
815.68	28493
815.821	28352
815.962	28550
816.103	28497
816.244	28405
816.385	28299
816.526	28211
816.666	27949
816.807	27838
816.948	27861
817.089	28147
817.23	28032
817.371	28029
817.512	27953
817.653	27895
817.793	28067
817.934	27793
818.075	28044
818.216	27869
818.356	27793
818.497	27850
818.638	27781
818.778	27732
818.919	27884
819.06	27838
819.2	27842
819.341	27914
819.481	27869
819.622	28112
819.762	28223
819.903	28314
820.043	28226
820.184	28177
820.324	28105
820.465	28021
820.605	28105
820.746	28101
820.886	27922
821.026	28070
821.167	28143
821.307	28150
821.447	27987
821.588	27945
821.728	27686
821.868	27557
822.008	27450
822.149	27534
822.289	27420
822.429	27188
822.569	27237
822.709	27020
822.849	26963
822.99	27005
823.13	26914
823.27	26777
823.41	26689
823.55	26617
823.69	26621
823.83	26758
823.97	26724
824.11	26594
824.25	26556
824.389	26617
824.529	26621
824.669	26670
824.809	26727
824.949	26720
825.089	26648
825.228	26453
825.368	26419
825.508	26564
825.648	26473
825.787	26564
825.927	26514
826.067	26476
826.206	26393
826.346	26644
826.485	26514
826.625	26446
826.765	26594
826.904	26495
827.044	26180
827.183	26259
827.323	26100
827.462	26278
827.601	26134
827.741	26050
827.88	26259
828.02	25974
828.159	26172
828.298	26180
828.437	26259
828.577	26001
828.716	26248
828.855	26145
828.994	25921
829.134	25860
829.273	25993
829.412	25845
829.551	25765
829.69	25913
829.829	25864
829.968	25871
830.107	25966
830.246	25757
830.385	25837
830.524	25658
830.663	25746
830.802	25662
830.941	25346
831.08	25411
831.219	25567
831.357	25491
831.496	25632
831.635	25651
831.774	25479
831.913	25377
832.051	25297
832.19	25236
832.329	25346
832.467	25187
832.606	25145
832.744	25099
832.883	25145
833.022	25061
833.16	25187
833.299	25107
833.437	25274
833.576	25213
833.714	25122
833.852	25232
833.991	25263
834.129	25362
834.267	25327
834.406	25312
834.544	25259
834.682	25190
834.821	25206
834.959	25449
835.097	25171
835.235	25339
835.373	25282
835.511	25164
835.65	24947
835.788	24943
835.926	24973
836.064	24814
836.202	24981
836.34	25042
836.478	24996
836.615	24928
836.753	24985
836.891	24947
837.029	25084
837.167	24996
837.305	25019
837.443	24901
837.58	24905
837.718	24920
837.856	24954
837.993	24840
838.131	24859
838.269	24627
838.406	24772
838.544	24703
838.681	24540
838.819	24456
838.956	24414
839.094	24247
839.231	24437
839.369	24532
839.506	24703
839.643	24547
839.781	24426
839.918	24213
840.055	24254
840.193	24384
840.33	24433
840.467	24159
840.604	24330
840.742	24456
840.879	24102
841.016	24178
841.153	24026
841.29	24334
841.427	24155
841.564	24266
841.701	24174
841.838	24186
841.975	24068
842.112	24163
842.249	24007
842.385	23935
842.522	24292
842.659	23999
842.796	24045
842.933	23935
843.069	23977
843.206	24022
843.343	24102
843.479	23874
843.616	23984
843.752	23752
843.889	23863
844.025	24015
844.162	23630
844.298	23870
844.435	23764
844.571	23661
844.708	23802
844.844	23939
844.98	23958
845.117	23859
845.253	23707
845.389	23691
845.525	23554
845.661	23619
845.798	23547
845.934	23493
846.07	23520
846.206	23433
846.342	23615
846.478	23467
846.614	23265
846.75	23151
846.886	23235
847.022	23235
847.158	23197
847.294	23239
847.429	23261
847.565	23155
847.701	23376
847.837	22976
847.972	22816
848.108	22949
848.244	22919
848.379	22793
848.515	22835
848.65	22748
848.786	22828
848.921	22767
849.057	22869
849.192	22892
849.328	22858
849.463	22869
849.598	22744
849.734	22713
849.869	22565
850.004	22523
850.14	22649
850.275	22596
850.41	22459
850.545	22542
850.68	22462
850.815	22577
850.95	22512
851.085	22687
851.22	22736
851.355	22546
851.49	22592
851.625	22516
851.76	22637
851.895	22390
852.03	22493
852.165	22474
852.299	22569
852.434	22679
852.569	22596
852.703	22577
852.838	22565
852.973	22653
853.107	22755
853.242	22542
853.376	22409
853.511	22344
853.645	22341
853.78	22455
853.914	22436
854.048	22360
854.183	22382
854.317	22344
854.451	22637
854.585	22329
854.72	22459
854.854	22497
854.988	22230
855.122	22428
855.256	22207
855.39	22443
855.524	22363
855.658	22462
855.792	22352
855.926	22333
856.06	22428
856.194	22447
856.327	22295
856.461	22386
856.595	22226
856.729	22291
856.862	22455
856.996	22398
857.13	22390
857.263	22497
857.397	22466
857.53	22455
857.664	22500
857.797	22470
857.931	22504
858.064	22367
858.197	22508
858.331	22329
858.464	22386
858.597	22299
858.731	22428
858.864	22367
858.997	22440
859.13	22299
859.263	22428
859.396	22478
859.529	22409
859.662	22322
859.795	22310
859.928	22318
860.061	22421
860.194	22683
860.327	22348
860.46	22569
860.592	22641
860.725	22573
860.858	22470
860.99	22417
861.123	22379
861.256	22402
861.388	22409
861.521	23155
861.653	22211
861.786	22109
861.918	22230
862.05	22318
862.183	22276
862.315	22341
862.447	22379
862.58	22341
862.712	22128
862.844	22063
862.976	22188
863.108	22249
863.24	22436
863.372	21945
863.504	22124
863.636	22063
863.768	22097
863.9	22185
864.032	21915
864.164	22124
864.296	22032
864.428	22131
864.559	22078
864.691	22150
864.823	21991
864.954	22048
865.086	22048
865.217	21930
865.349	21854
865.48	21922
865.612	21979
865.743	22093
865.875	21956
866.006	21915
866.137	22051
866.269	22006
866.4	22025
866.531	21873
866.662	21827
866.793	21937
866.924	21903
867.055	21949
867.186	21842
867.317	21880
867.448	21857
867.579	21880
867.71	21823
867.841	21812
867.972	21846
868.103	21667
868.233	21968
868.364	22010
868.495	21975
868.625	22135
868.756	22150
868.886	22059
869.017	21975
869.147	22341
869.278	22303
869.408	22173
869.539	22169
869.669	22215
869.799	22162
869.929	22188
870.06	22166
870.19	22561
870.32	22375
870.45	22470
870.58	22546
870.71	22675
870.84	22611
870.97	22538
871.1	22527
871.23	22698
871.36	22683
871.489	22573
871.619	22812
871.749	22850
871.879	22691
872.008	22927
872.138	22733
872.267	22641
872.397	22626
872.526	22535
872.656	22740
872.785	22478
872.915	22771
873.044	22885
873.173	22771
873.303	22881
873.432	22755
873.561	22858
873.69	22896
873.819	22812
873.948	22831
874.077	22793
874.206	22797
874.335	22744
874.464	22889
874.593	23132
874.722	22904
874.851	23006
874.979	22976
875.108	23044
875.237	22968
875.365	22831
875.494	22847
875.623	23113
875.751	22835
875.88	23060
876.008	23052
876.136	23318
876.265	23364
876.393	23433
876.521	23486
876.65	23570
876.778	23429
876.906	23318
877.034	23250
877.162	23292
877.29	23345
877.418	23345
877.546	23391
877.674	23254
877.802	23311
877.93	23303
878.058	23303
878.185	23151
878.313	23337
878.441	23307
878.568	23166
878.696	23303
878.824	23326
878.951	23406
879.079	23547
879.206	23630
879.333	23448
879.461	23356
879.588	23383
879.715	23414
879.842	23562
879.97	23406
880.097	23269
880.224	23033
880.351	23155
880.478	23140
880.605	23181
880.732	23094
880.859	23383
880.986	23075
881.112	23128
881.239	22953
881.366	22911
881.493	22778
881.619	22733
881.746	22869
881.872	22710
881.999	22740
882.125	22622
882.252	22599
882.378	22698
882.505	22786
882.631	22565
882.757	22428
882.883	22519
883.01	22409
883.136	22234
883.262	22219
883.388	22200
883.514	22405
883.64	22470
883.766	22272
883.892	22196
884.018	22215
884.143	22287
884.269	22341
884.395	22086
884.52	22013
884.646	22143
884.772	22002
884.897	21922
885.023	22063
885.148	22044
885.274	22204
885.399	22246
885.524	22105
885.65	22147
885.775	22010
885.9	21979
886.025	22082
886.15	22032
886.275	22048
886.4	22021
886.525	22006
886.65	21857
886.775	21884
886.9	22093
887.025	22223
887.149	22002
887.274	21865
887.399	21774
887.523	21755
887.648	21675
887.773	21751
887.897	21907
888.021	21705
888.146	21603
888.27	21880
888.395	21861
888.519	21724
888.643	21785
888.767	21838
888.891	21648
889.015	21618
889.139	21690
889.263	21538
889.387	21732
889.511	21774
889.635	21633
889.759	21564
889.883	21538
890.006	21523
890.13	21644
890.254	21568
890.377	21511
890.501	21340
890.624	21176
890.748	21363
890.871	21108
890.995	21165
891.118	21009
891.241	21108
891.364	21089
891.488	21218
891.611	21222
891.734	21161
891.857	21138
891.98	21173
892.103	21222
892.226	20982
892.349	21032
892.471	20933
892.594	21043
892.717	21135
892.839	21051
892.962	21074
893.085	21043
893.207	20994
893.33	20891
893.452	21013
893.575	21066
893.697	20929
893.819	21169
893.941	21192
894.064	21176
894.186	20853
894.308	20960
894.43	21051
894.552	21081
894.674	21028
894.796	20868
894.918	20921
895.04	21089
895.161	20921
895.283	20994
895.405	20952
895.526	20979
895.648	21032
895.769	21001
895.891	21017
896.012	21085
896.134	20971
896.255	21017
896.376	20910
896.498	21081
896.619	21081
896.74	20986
896.861	21017
896.982	21241
897.103	21572
897.224	21150
897.345	21237
897.466	21161
897.587	21222
897.708	21321
897.828	21260
897.949	21184
898.07	21055
898.19	21169
898.311	21184
898.431	21173
898.552	21222
898.672	21363
898.792	21214
898.913	21294
899.033	21119
899.153	20967
899.273	20902
899.393	20868
899.513	20933
899.633	20963
899.753	20876
899.873	20781
899.993	20971
900.113	20921
900.232	20861
900.352	20845
900.472	20693
900.591	20735
900.711	20697
900.83	20606
900.95	20857
901.069	20693
901.189	20556
901.308	20377
901.427	20233
901.546	20320
901.665	20237
901.784	20229
901.904	20180
902.023	19993
902.141	19822
902.26	19738
902.379	19868
902.498	19757
902.617	19803
902.735	19727
902.854	19753
902.973	19738
903.091	19472
903.21	19426
903.328	19274
903.446	19343
903.565	19221
903.683	19331
903.801	19129
903.919	19171
904.038	19118
904.156	18901
904.274	19023
904.392	19084
904.51	18924
904.627	19027
904.745	19046
904.863	19042
904.981	18802
905.098	18669
905.216	18734
905.334	18673
905.451	18658
905.569	18570
905.686	18665
905.803	18585
905.921	18426
906.038	18532
906.155	18502
906.272	18262
906.389	18418
906.506	18243
906.623	18258
906.74	18254
906.857	18072
906.974	18136
907.091	18194
907.208	18315
907.324	18159
907.441	18095
907.557	17935
907.674	17904
907.79	17771
907.907	17771
908.023	17901
908.139	17935
908.256	17805
908.372	17859
908.488	17764
908.604	17726
908.72	17490
908.836	17554
908.952	17596
909.068	17604
909.184	17676
909.3	17600
909.415	17687
909.531	17566
909.647	17337
909.762	17315
909.878	17220
909.993	17197
910.108	17288
910.224	17223
910.339	17303
910.454	17189
910.57	17064
910.685	17018
910.8	17299
910.915	17143
911.03	17109
911.145	16900
911.259	16774
911.374	16923
911.489	16797
911.604	16630
911.718	16573
911.833	16558
911.947	16577
912.062	16382
912.176	16622
912.291	16660
912.405	16641
912.519	16816
912.633	16858
912.748	16607
912.862	16561
912.976	16405
913.09	16291
913.204	16432
913.318	16504
913.431	16538
913.545	16500
913.659	16508
913.772	16337
913.886	16318
914	16219
914.113	16268
914.226	16421
914.34	16265
914.453	16105
914.566	16169
914.68	16074
914.793	15964
914.906	15861
915.019	15880
915.132	15751
915.245	15728
915.358	15827
915.47	15842
915.583	15698
915.696	15865
915.809	15915
915.921	15941
916.034	15816
916.146	15610
916.259	15698
916.371	15747
916.483	15663
916.595	15564
916.708	15705
916.82	15648
916.932	15679
917.044	15526
917.156	15526
917.268	15367
917.38	15523
917.491	15477
917.603	15412
917.715	15450
917.826	15511
917.938	15310
918.049	15283
918.161	15389
918.272	15488
918.384	15492
918.495	15412
918.606	15154
918.717	15013
918.828	15188
918.939	15264
919.05	15104
919.161	15093
919.272	14982
919.383	15009
919.494	15169
919.604	15374
919.715	15112
919.826	15039
919.936	15093
920.047	15195
920.157	15188
920.267	15294
920.378	15165
920.488	15142
920.598	15332
920.708	15378
920.818	15199
920.928	15245
921.038	15378
921.148	15405
921.258	15085
921.368	14994
921.477	14838
921.587	14811
921.697	14659
921.806	14838
921.916	14663
922.025	14636
922.134	14473
922.244	14336
922.353	14484
922.462	14374
922.571	14374
922.68	14176
922.789	14096
922.898	14111
923.007	13967
923.116	14206
923.224	14123
923.333	13993
923.442	13940
923.55	13959
923.659	13928
923.767	14031
923.876	13978
923.984	13921
924.092	13811
924.201	13879
924.309	13879
924.417	13890
924.525	13807
924.633	13769
924.741	14541
924.849	13643
924.956	13597
925.064	13552
925.172	13449
925.279	13518
925.387	13616
925.494	13468
925.602	13609
925.709	13552
925.816	13384
925.924	13483
926.031	13525
926.138	13411
926.245	13457
926.352	13324
926.459	13468
926.566	13518
926.673	13266
926.779	13293
926.886	13301
926.993	13160
927.099	13118
927.206	12996
927.312	12947
927.419	13110
927.525	13110
927.631	12989
927.737	12989
927.843	12859
927.95	12745
928.056	12863
928.162	12829
928.267	12905
928.373	13460
928.479	12886
928.585	12658
928.69	12779
928.796	12833
928.901	12658
929.007	12490
929.112	12665
929.218	12639
929.323	12631
929.428	12684
929.533	12806
929.638	12513
929.743	12475
929.848	12608
929.953	12509
930.058	12334
930.163	12266
930.267	12220
930.372	12384
930.477	12129
930.581	12433
930.685	12194
930.79	12087
930.894	12117
930.998	12083
931.103	12266
931.207	11821
931.311	11889
931.415	11630
931.519	11520
931.623	11482
