Data from test_V78500241_2882.txt Node
Date: Fri Mar 25 16:01:45 CST 2022
User: usil
Spectrometer: V785-0024
Trigger mode: 0
Integration Time (sec): 4.000000E-1
Scans to average: 1
Nonlinearity correction enabled: false
Boxcar width: 0
Storing dark spectrum: false
XAxis mode: Wavelengths
Number of Pixels in Spectrum: 1024
>>>>>Begin Spectral Data<<<<<
801.071	28660
801.214	28512
801.356	28265
801.499	28379
801.641	28162
801.783	28131
801.926	28284
802.068	28215
802.211	28078
802.353	27934
802.496	27926
802.638	27884
802.78	27823
802.923	27873
803.065	27724
803.208	27770
803.35	27926
803.492	28067
803.635	28097
803.777	27964
803.919	28055
804.061	28314
804.204	28036
804.346	28013
804.488	27934
804.63	28082
804.773	27937
804.915	28135
805.057	28177
805.199	28017
805.341	28109
805.483	28238
805.626	28219
805.768	28109
805.91	28261
806.052	28230
806.194	28131
806.336	28394
806.478	28261
806.62	28044
806.762	28485
806.904	28596
807.046	28733
807.188	28687
807.33	28611
807.472	28687
807.614	28577
807.756	28573
807.898	28474
808.04	28489
808.182	28485
808.324	28557
808.465	28668
808.607	28908
808.749	28862
808.891	28946
809.033	29064
809.174	28904
809.316	28965
809.458	28820
809.6	28919
809.741	28934
809.883	29079
810.025	29216
810.166	29212
810.308	29231
810.45	29239
810.591	29048
810.733	28885
810.875	28984
811.016	28820
811.158	28858
811.299	29044
811.441	29022
811.582	28911
811.724	28869
811.865	28805
812.007	29033
812.148	28942
812.29	28908
812.431	29060
812.573	29235
812.714	29303
812.855	29311
812.997	29482
813.138	29585
813.279	29463
813.421	29395
813.562	29410
813.703	29197
813.845	29208
813.986	28911
814.127	28820
814.268	28736
814.41	28626
814.551	28527
814.692	28645
814.833	28573
814.974	28523
815.115	28672
815.256	28512
815.397	28550
815.539	28478
815.68	28291
815.821	28363
815.962	28322
816.103	28470
816.244	28310
816.385	28204
816.526	28249
816.666	27960
816.807	27937
816.948	28025
817.089	28082
817.23	28048
817.371	27922
817.512	27968
817.653	27869
817.793	27880
817.934	27918
818.075	27926
818.216	27899
818.356	27949
818.497	27759
818.638	27648
818.778	27770
818.919	27747
819.06	27644
819.2	27953
819.341	27781
819.481	27892
819.622	28112
819.762	28272
819.903	28242
820.043	28112
820.184	28017
820.324	28025
820.465	28082
820.605	28147
820.746	27930
820.886	27823
821.026	28059
821.167	28032
821.307	27941
821.447	28002
821.588	27991
821.728	27717
821.868	27606
822.008	27386
822.149	27507
822.289	27321
822.429	27119
822.569	27119
822.709	27119
822.849	26990
822.99	27036
823.13	26853
823.27	26785
823.41	26697
823.55	26670
823.69	26746
823.83	26815
823.97	26773
824.11	26499
824.25	26590
824.389	26590
824.529	26621
824.669	26537
824.809	26731
824.949	26632
825.089	26632
825.228	26522
825.368	26400
825.508	26438
825.648	26438
825.787	26431
825.927	26568
826.067	26396
826.206	26396
826.346	26492
826.485	26495
826.625	26442
826.765	26617
826.904	26568
827.044	26351
827.183	26134
827.323	26199
827.462	26358
827.601	26206
827.741	26218
827.88	26347
828.02	26012
828.159	26043
828.298	26221
828.437	26046
828.577	25947
828.716	26259
828.855	26168
828.994	25879
829.134	25822
829.273	25875
829.412	25959
829.551	25925
829.69	25788
829.829	25791
829.968	25917
830.107	25875
830.246	25856
830.385	25837
830.524	25738
830.663	25643
830.802	25479
830.941	25521
831.08	25457
831.219	25594
831.357	25502
831.496	25750
831.635	25540
831.774	25476
831.913	25460
832.051	25346
832.19	25244
832.329	25198
832.467	25228
832.606	25061
832.744	25209
832.883	25122
833.022	25145
833.16	25110
833.299	25171
833.437	25213
833.576	25225
833.714	25293
833.852	25107
833.991	25209
834.129	25335
834.267	25282
834.406	25221
834.544	25217
834.682	25091
834.821	25137
834.959	25358
835.097	25088
835.235	25228
835.373	25202
835.511	25114
835.65	25156
835.788	25126
835.926	25076
836.064	24821
836.202	24882
836.34	25114
836.478	25053
836.615	25008
836.753	25019
836.891	25152
837.029	25046
837.167	24992
837.305	25000
837.443	24897
837.58	24878
837.718	24932
837.856	24913
837.993	24703
838.131	24711
838.269	24757
838.406	24745
838.544	24711
838.681	24521
838.819	24559
838.956	24311
839.094	24433
839.231	24433
839.369	24471
839.506	24654
839.643	24604
839.781	24308
839.918	24292
840.055	24330
840.193	24235
840.33	24258
840.467	24247
840.604	24262
840.742	24547
840.879	24026
841.016	24133
841.153	24064
841.29	24247
841.427	24277
841.564	24270
841.701	24258
841.838	24254
841.975	24076
842.112	24079
842.249	23965
842.385	24007
842.522	24148
842.659	24038
842.796	24018
842.933	23942
843.069	24007
843.206	23942
843.343	24007
843.479	23920
843.616	24022
843.752	23824
843.889	23889
844.025	24003
844.162	23767
844.298	23779
844.435	23665
844.571	23783
844.708	23874
844.844	23939
844.98	23863
845.117	23866
845.253	23745
845.389	23623
845.525	23566
845.661	23623
845.798	23516
845.934	23440
846.07	23490
846.206	23547
846.342	23604
846.478	23372
846.614	23280
846.75	23140
846.886	23174
847.022	23280
847.158	23204
847.294	23159
847.429	23349
847.565	23174
847.701	23429
847.837	22961
847.972	22957
848.108	22987
848.244	23044
848.379	22984
848.515	22828
848.65	22752
848.786	22698
848.921	22653
849.057	22946
849.192	22972
849.328	22862
849.463	22820
849.598	22889
849.734	22664
849.869	22733
850.004	22523
850.14	22580
850.275	22493
850.41	22459
850.545	22550
850.68	22542
850.815	22675
850.95	22523
851.085	22801
851.22	22767
851.355	22531
851.49	22500
851.625	22478
851.76	22599
851.895	22360
852.03	22481
852.165	22630
852.299	22573
852.434	22535
852.569	22584
852.703	22451
852.838	22565
852.973	22675
853.107	22733
853.242	22554
853.376	22417
853.511	22325
853.645	22348
853.78	22493
853.914	22428
854.048	22447
854.183	22352
854.317	22287
854.451	22447
854.585	22375
854.72	22402
854.854	22455
854.988	22242
855.122	22341
855.256	22215
855.39	22295
855.524	22436
855.658	22481
855.792	22344
855.926	22382
856.06	22462
856.194	22546
856.327	22363
856.461	22318
856.595	22329
856.729	22352
856.862	22428
856.996	22432
857.13	22443
857.263	22493
857.397	22519
857.53	22367
857.664	22398
857.797	22417
857.931	22554
858.064	22284
858.197	22386
858.331	22409
858.464	22196
858.597	22185
858.731	22409
858.864	22402
858.997	22268
859.13	22306
859.263	22367
859.396	22424
859.529	22344
859.662	22318
859.795	22341
859.928	22409
860.061	22497
860.194	22485
860.327	22440
860.46	22379
860.592	22443
860.725	22596
860.858	22592
860.99	22318
861.123	22379
861.256	22318
861.388	22402
861.521	23128
861.653	22249
861.786	22219
861.918	22322
862.05	22287
862.183	22306
862.315	22299
862.447	22402
862.58	22257
862.712	22067
862.844	21972
862.976	22097
863.108	22204
863.24	22535
863.372	21941
863.504	22074
863.636	21895
863.768	22135
863.9	22040
864.032	21915
864.164	22105
864.296	22261
864.428	22242
864.559	22192
864.691	22109
864.823	21915
864.954	22082
865.086	22082
865.217	21873
865.349	21937
865.48	21918
865.612	21964
865.743	21915
865.875	21979
866.006	21918
866.137	21869
866.269	21873
866.4	21895
866.531	21873
866.662	21759
866.793	21930
866.924	21808
867.055	21861
867.186	21926
867.317	21956
867.448	21884
867.579	21895
867.71	21793
867.841	21892
867.972	21892
868.103	21793
868.233	21915
868.364	21873
868.495	21937
868.625	22131
868.756	22261
868.886	22078
869.017	22055
869.147	22219
869.278	22188
869.408	22086
869.539	22116
869.669	22112
869.799	22204
869.929	22284
870.06	22265
870.19	22462
870.32	22421
870.45	22500
870.58	22500
870.71	22546
870.84	22557
870.97	22557
871.1	22596
871.23	22801
871.36	22687
871.489	22565
871.619	22839
871.749	22656
871.879	22710
872.008	22771
872.138	22778
872.267	22687
872.397	22474
872.526	22466
872.656	22687
872.785	22493
872.915	22820
873.044	22812
873.173	22824
873.303	22809
873.432	22831
873.561	22908
873.69	22812
873.819	22725
873.948	22877
874.077	22820
874.206	22630
874.335	22752
874.464	22854
874.593	22889
874.722	22942
874.851	22957
874.979	22934
875.108	23102
875.237	23014
875.365	22816
875.494	22923
875.623	22984
875.751	22927
875.88	22942
876.008	23060
876.136	23204
876.265	23265
876.393	23497
876.521	23349
876.65	23376
876.778	23387
876.906	23265
877.034	23315
877.162	23303
877.29	23292
877.418	23246
877.546	23273
877.674	23353
877.802	23204
877.93	23132
878.058	23200
878.185	23151
878.313	23265
878.441	23284
878.568	23124
878.696	23155
878.824	23292
878.951	23440
879.079	23448
879.206	23680
879.333	23448
879.461	23265
879.588	23433
879.715	23512
879.842	23497
879.97	23455
880.097	23105
880.224	23083
880.351	23174
880.478	23204
880.605	23102
880.732	23048
880.859	23406
880.986	23223
881.112	23242
881.239	22942
881.366	22725
881.493	22786
881.619	22668
881.746	22755
881.872	22664
881.999	22645
882.125	22664
882.252	22873
882.378	22626
882.505	22755
882.631	22561
882.757	22382
882.883	22455
883.01	22303
883.136	22253
883.262	22223
883.388	22181
883.514	22375
883.64	22398
883.766	22238
883.892	22158
884.018	22207
884.143	22303
884.269	22306
884.395	22074
884.52	21873
884.646	22013
884.772	21876
884.897	21915
885.023	21850
885.148	22112
885.274	22204
885.399	22101
885.524	21888
885.65	22002
885.775	21926
885.9	21945
886.025	22059
886.15	22036
886.275	22074
886.4	21987
886.525	22002
886.65	21979
886.775	21888
886.9	22051
887.025	22253
887.149	21991
887.274	21743
887.399	21778
887.523	21701
887.648	21709
887.773	21667
887.897	21831
888.021	21888
888.146	21682
888.27	21857
888.395	22010
888.519	21751
888.643	21728
888.767	21789
888.891	21606
889.015	21557
889.139	21618
889.263	21469
889.387	21671
889.511	21709
889.635	21583
889.759	21443
889.883	21500
890.006	21648
890.13	21538
890.254	21458
890.377	21447
890.501	21268
890.624	21359
890.748	21287
890.871	21131
890.995	21058
891.118	21013
891.241	21112
891.364	21081
891.488	21226
891.611	20948
891.734	21074
891.857	21108
891.98	21036
892.103	21108
892.226	21043
892.349	21055
892.471	20902
892.594	20960
892.717	21089
892.839	21051
892.962	20929
893.085	21112
893.207	20975
893.33	20815
893.452	20941
893.575	21051
893.697	21036
893.819	21146
893.941	21108
894.064	21165
894.186	20948
894.308	20811
894.43	21036
894.552	21108
894.674	21074
894.796	20948
894.918	20925
895.04	20880
895.161	20979
895.283	21112
895.405	20872
895.526	20929
895.648	20990
895.769	20956
895.891	20975
896.012	21028
896.134	21028
896.255	20948
896.376	20880
896.498	20956
896.619	20883
896.74	20941
896.861	21138
896.982	21291
897.103	21325
897.224	21249
897.345	21089
897.466	21047
897.587	21104
897.708	21283
897.828	21146
897.949	21077
898.07	20975
898.19	21180
898.311	21264
898.431	21108
898.552	21066
898.672	21119
898.792	21203
898.913	21165
899.033	21093
899.153	21062
899.273	20765
899.393	20967
899.513	20891
899.633	20826
899.753	20887
899.873	20785
899.993	20845
900.113	20925
900.232	20830
900.352	20811
900.472	20769
900.591	20682
900.711	20849
900.83	20556
900.95	20724
901.069	20743
901.189	20636
901.308	20351
901.427	20267
901.546	20305
901.665	20199
901.784	20164
901.904	20138
902.023	20016
902.141	19708
902.26	19734
902.379	19852
902.498	19799
902.617	19776
902.735	19635
902.854	19655
902.973	19582
903.091	19476
903.21	19396
903.328	19419
903.446	19384
903.565	19206
903.683	19118
903.801	19080
903.919	19061
904.038	19141
904.156	19050
904.274	19148
904.392	19004
904.51	18947
904.627	18852
904.745	18989
904.863	19031
904.981	18821
905.098	18642
905.216	18692
905.334	18616
905.451	18715
905.569	18551
905.686	18696
905.803	18585
905.921	18532
906.038	18528
906.155	18494
906.272	18319
906.389	18285
906.506	18289
906.623	18102
906.74	18106
906.857	18022
906.974	18019
907.091	18117
907.208	18205
907.324	18083
907.441	18106
907.557	17942
907.674	17939
907.79	17726
907.907	17802
908.023	17939
908.139	17748
908.256	17764
908.372	17710
908.488	17657
908.604	17585
908.72	17520
908.836	17646
908.952	17505
909.068	17703
909.184	17718
909.3	17608
909.415	17512
909.531	17554
909.647	17379
909.762	17277
909.878	17353
909.993	17246
910.108	17204
910.224	17159
910.339	17246
910.454	17140
910.57	17052
910.685	16984
910.8	17197
910.915	17174
911.03	17006
911.145	16919
911.259	16801
911.374	16889
911.489	16858
911.604	16713
911.718	16645
911.833	16542
911.947	16596
912.062	16447
912.176	16580
912.291	16580
912.405	16630
912.519	16679
912.633	16877
912.748	16664
912.862	16577
912.976	16371
913.09	16348
913.204	16348
913.318	16443
913.431	16542
913.545	16630
913.659	16459
913.772	16333
913.886	16303
914	16246
914.113	16261
914.226	16188
914.34	16272
914.453	16150
914.566	16215
914.68	16192
914.793	16048
914.906	15854
915.019	15835
915.132	15797
915.245	15694
915.358	15781
915.47	15762
915.583	15835
915.696	15755
915.809	15850
915.921	15945
916.034	15698
916.146	15705
916.259	15690
916.371	15797
916.483	15743
916.595	15698
916.708	15641
916.82	15603
916.932	15500
917.044	15671
917.156	15496
917.268	15351
917.38	15363
917.491	15496
917.603	15416
917.715	15557
917.826	15530
917.938	15420
918.049	15275
918.161	15443
918.272	15355
918.384	15378
918.495	15378
918.606	15123
918.717	15055
918.828	15214
918.939	15146
919.05	15085
919.161	15085
919.272	14937
919.383	14982
919.494	15184
919.604	15306
919.715	15188
919.826	15039
919.936	15070
920.047	15214
920.157	15108
920.267	15226
920.378	15070
920.488	15028
920.598	15294
920.708	15405
920.818	15165
920.928	15291
921.038	15294
921.148	15351
921.258	15161
921.368	14899
921.477	14819
921.587	14788
921.697	14636
921.806	14899
921.916	14564
922.025	14499
922.134	14480
922.244	14415
922.353	14476
922.462	14248
922.571	14389
922.68	14138
922.789	14020
922.898	14130
923.007	13978
923.116	14096
923.224	14149
923.333	14092
923.442	13921
923.55	13982
923.659	13944
923.767	13982
923.876	13852
923.984	13947
924.092	13811
924.201	13830
924.309	13849
924.417	13788
924.525	13700
924.633	13719
924.741	14701
924.849	13552
924.956	13616
925.064	13521
925.172	13369
925.279	13514
925.387	13632
925.494	13510
925.602	13445
925.709	13575
925.816	13411
925.924	13483
926.031	13502
926.138	13362
926.245	13533
926.352	13324
926.459	13502
926.566	13468
926.673	13324
926.779	13194
926.886	13160
926.993	13072
927.099	13065
927.206	13000
927.312	12962
927.419	13008
927.525	13031
927.631	13080
927.737	12886
927.843	12882
927.95	12798
928.056	12909
928.162	12890
928.267	12871
928.373	13609
928.479	12875
928.585	12772
928.69	12783
928.796	12863
928.901	12726
929.007	12506
929.112	12768
929.218	12654
929.323	12506
929.428	12521
929.533	12707
929.638	12403
929.743	12555
929.848	12506
929.953	12437
930.058	12369
930.163	12197
930.267	12247
930.372	12357
930.477	12235
930.581	12437
930.685	12205
930.79	12076
930.894	12194
930.998	12133
931.103	12213
931.207	11809
931.311	11798
931.415	11638
931.519	11532
931.623	11474
