Data from test_V78500241_3191.txt Node
Date: Fri Mar 25 16:03:54 CST 2022
User: usil
Spectrometer: V785-0024
Trigger mode: 0
Integration Time (sec): 4.000000E-1
Scans to average: 1
Nonlinearity correction enabled: false
Boxcar width: 0
Storing dark spectrum: false
XAxis mode: Wavelengths
Number of Pixels in Spectrum: 1024
>>>>>Begin Spectral Data<<<<<
801.071	28413
801.214	28352
801.356	28223
801.499	28147
801.641	28154
801.783	28109
801.926	28120
802.068	28048
802.211	28006
802.353	27781
802.496	27949
802.638	27549
802.78	27717
802.923	27705
803.065	27652
803.208	27652
803.35	27743
803.492	27808
803.635	27888
803.777	27793
803.919	27842
804.061	28223
804.204	27914
804.346	27934
804.488	27759
804.63	27873
804.773	27732
804.915	28097
805.057	28204
805.199	27884
805.341	28002
805.483	28048
805.626	27987
805.768	27831
805.91	28116
806.052	28230
806.194	27918
806.336	28173
806.478	28006
806.62	28150
806.762	28223
806.904	28455
807.046	28554
807.188	28523
807.33	28596
807.472	28668
807.614	28379
807.756	28508
807.898	28424
808.04	28295
808.182	28417
808.324	28303
808.465	28413
808.607	28542
808.749	28713
808.891	28782
809.033	28976
809.174	28904
809.316	28763
809.458	28603
809.6	28569
809.741	28801
809.883	28835
810.025	28854
810.166	29025
810.308	29071
810.45	28942
810.591	28999
810.733	28820
810.875	28740
811.016	28698
811.158	28675
811.299	28847
811.441	28911
811.582	28957
811.724	28820
811.865	28759
812.007	28847
812.148	28793
812.29	28930
812.431	28900
812.573	28957
812.714	29383
812.855	29345
812.997	29356
813.138	29520
813.279	29391
813.421	29258
813.562	29258
813.703	29025
813.845	29006
813.986	28710
814.127	28535
814.268	28478
814.41	28546
814.551	28276
814.692	28569
814.833	28607
814.974	28474
815.115	28478
815.256	28333
815.397	28291
815.539	28329
815.68	28299
815.821	28139
815.962	28299
816.103	28375
816.244	28181
816.385	28044
816.526	28230
816.666	27873
816.807	27914
816.948	27797
817.089	27778
817.23	27747
817.371	27694
817.512	27698
817.653	27770
817.793	27728
817.934	27675
818.075	27888
818.216	27797
818.356	27774
818.497	27652
818.638	27580
818.778	27538
818.919	27534
819.06	27477
819.2	27572
819.341	27819
819.481	27728
819.622	27991
819.762	28059
819.903	27972
820.043	27983
820.184	27934
820.324	27922
820.465	27895
820.605	27949
820.746	27880
820.886	27804
821.026	27797
821.167	27816
821.307	27781
821.447	27842
821.588	27873
821.728	27492
821.868	27340
822.008	27340
822.149	27237
822.289	27233
822.429	26975
822.569	26975
822.709	26937
822.849	26693
822.99	26674
823.13	26564
823.27	26606
823.41	26598
823.55	26427
823.69	26564
823.83	26678
823.97	26492
824.11	26408
824.25	26244
824.389	26427
824.529	26488
824.669	26408
824.809	26514
824.949	26495
825.089	26415
825.228	26396
825.368	26290
825.508	26252
825.648	26355
825.787	26267
825.927	26298
826.067	26385
826.206	26244
826.346	26263
826.485	26434
826.625	26377
826.765	26336
826.904	26457
827.044	26073
827.183	26065
827.323	26024
827.462	26024
827.601	25978
827.741	25947
827.88	25986
828.02	25951
828.159	25940
828.298	25982
828.437	25974
828.577	25928
828.716	26077
828.855	25894
828.994	25616
829.134	25655
829.273	25662
829.412	25662
829.551	25704
829.69	25643
829.829	25814
829.968	25795
830.107	25818
830.246	25731
830.385	25670
830.524	25609
830.663	25460
830.802	25331
830.941	25381
831.08	25274
831.219	25297
831.357	25343
831.496	25441
831.635	25259
831.774	25282
831.913	25213
832.051	25114
832.19	25038
832.329	25053
832.467	25004
832.606	24852
832.744	25008
832.883	24844
833.022	25038
833.16	25061
833.299	25061
833.437	24996
833.576	25038
833.714	25046
833.852	24992
833.991	25141
834.129	25080
834.267	25118
834.406	25069
834.544	24894
834.682	25004
834.821	25015
834.959	25122
835.097	24939
835.235	25084
835.373	25107
835.511	25015
835.65	24859
835.788	24817
835.926	24791
836.064	24658
836.202	24597
836.34	24878
836.478	24954
836.615	24863
836.753	24684
836.891	24776
837.029	24848
837.167	24760
837.305	24764
837.443	24871
837.58	24589
837.718	24848
837.856	24779
837.993	24673
838.131	24650
838.269	24483
838.406	24589
838.544	24536
838.681	24323
838.819	24304
838.956	24163
839.094	24083
839.231	24174
839.369	24346
839.506	24570
839.643	24422
839.781	24083
839.918	24133
840.055	24102
840.193	24205
840.33	24038
840.467	24057
840.604	24018
840.742	24361
840.879	23874
841.016	24015
841.153	23939
841.29	24022
841.427	24053
841.564	24068
841.701	24114
841.838	24083
841.975	24057
842.112	23920
842.249	23961
842.385	23813
842.522	24030
842.659	23802
842.796	23718
842.933	23809
843.069	23722
843.206	23863
843.343	23912
843.479	23885
843.616	23847
843.752	23524
843.889	23611
844.025	23767
844.162	23649
844.298	23722
844.435	23535
844.571	23581
844.708	23615
844.844	23691
844.98	23729
845.117	23726
845.253	23604
845.389	23516
845.525	23604
845.661	23653
845.798	23395
845.934	23410
846.07	23360
846.206	23334
846.342	23433
846.478	23227
846.614	23124
846.75	23006
846.886	23105
847.022	23155
847.158	23117
847.294	23094
847.429	23083
847.565	22987
847.701	23265
847.837	22725
847.972	22797
848.108	22934
848.244	22908
848.379	22710
848.515	22660
848.65	22592
848.786	22645
848.921	22557
849.057	22733
849.192	22679
849.328	22698
849.463	22717
849.598	22622
849.734	22531
849.869	22535
850.004	22375
850.14	22417
850.275	22462
850.41	22428
850.545	22322
850.68	22394
850.815	22527
850.95	22474
851.085	22630
851.22	22592
851.355	22485
851.49	22352
851.625	22394
851.76	22375
851.895	22413
852.03	22478
852.165	22428
852.299	22626
852.434	22436
852.569	22459
852.703	22325
852.838	22493
852.973	22409
853.107	22580
853.242	22417
853.376	22169
853.511	22166
853.645	22147
853.78	22215
853.914	22226
854.048	22143
854.183	22177
854.317	22280
854.451	22424
854.585	22341
854.72	22318
854.854	22276
854.988	22139
855.122	22257
855.256	22188
855.39	22169
855.524	22177
855.658	22268
855.792	22128
855.926	22390
856.06	22329
856.194	22207
856.327	22150
856.461	22272
856.595	22230
856.729	22291
856.862	22329
856.996	22268
857.13	22367
857.263	22295
857.397	22455
857.53	22242
857.664	22310
857.797	22192
857.931	22306
858.064	22188
858.197	22360
858.331	22169
858.464	22215
858.597	22166
858.731	22234
858.864	22173
858.997	22188
859.13	22204
859.263	22207
859.396	22257
859.529	22162
859.662	22139
859.795	22257
859.928	22303
860.061	22268
860.194	22379
860.327	22322
860.46	22333
860.592	22379
860.725	22493
860.858	22455
860.99	22185
861.123	22086
861.256	22112
861.388	22242
861.521	23086
861.653	22040
861.786	22101
861.918	22109
862.05	22120
862.183	22135
862.315	22173
862.447	22109
862.58	22093
862.712	21804
862.844	21903
862.976	21998
863.108	22006
863.24	22341
863.372	21922
863.504	21941
863.636	21956
863.768	21930
863.9	21915
864.032	21869
864.164	21934
864.296	21956
864.428	22048
864.559	21960
864.691	21941
864.823	21884
864.954	21911
865.086	21953
865.217	21751
865.349	21804
865.48	21903
865.612	21800
865.743	21972
865.875	21778
866.006	21793
866.137	21713
866.269	21774
866.4	21804
866.531	21781
866.662	21682
866.793	21812
866.924	21804
867.055	21690
867.186	21724
867.317	21759
867.448	21698
867.579	21701
867.71	21610
867.841	21641
867.972	21770
868.103	21819
868.233	21736
868.364	21717
868.495	21789
868.625	21960
868.756	22044
868.886	21907
869.017	21949
869.147	22101
869.278	22097
869.408	22086
869.539	21968
869.669	21994
869.799	21949
869.929	22051
870.06	22063
870.19	22291
870.32	22344
870.45	22242
870.58	22341
870.71	22523
870.84	22508
870.97	22436
871.1	22314
871.23	22516
871.36	22637
871.489	22382
871.619	22519
871.749	22763
871.879	22519
872.008	22596
872.138	22653
872.267	22538
872.397	22398
872.526	22413
872.656	22382
872.785	22466
872.915	22668
873.044	22702
873.173	22622
873.303	22637
873.432	22645
873.561	22573
873.69	22755
873.819	22599
873.948	22626
874.077	22535
874.206	22596
874.335	22645
874.464	22733
874.593	22862
874.722	22961
874.851	22976
874.979	22866
875.108	23010
875.237	22843
875.365	22573
875.494	22774
875.623	22881
875.751	22771
875.88	22904
876.008	22858
876.136	23102
876.265	23197
876.393	23242
876.521	23318
876.65	23349
876.778	23204
876.906	23235
877.034	23105
877.162	23143
877.29	23178
877.418	23181
877.546	23223
877.674	23071
877.802	23189
877.93	23132
878.058	23200
878.185	23025
878.313	23151
878.441	23155
878.568	23048
878.696	23124
878.824	23170
878.951	23204
879.079	23307
879.206	23543
879.333	23440
879.461	23174
879.588	23425
879.715	23364
879.842	23539
879.97	23284
880.097	23151
880.224	23014
880.351	23105
880.478	23010
880.605	22828
880.732	23105
880.859	23318
880.986	22889
881.112	23033
881.239	22869
881.366	22679
881.493	22599
881.619	22535
881.746	22649
881.872	22607
881.999	22584
882.125	22440
882.252	22447
882.378	22603
882.505	22599
882.631	22299
882.757	22291
882.883	22207
883.01	22249
883.136	22150
883.262	22147
883.388	21979
883.514	22211
883.64	22306
883.766	22158
883.892	22036
884.018	22029
884.143	22124
884.269	22287
884.395	21926
884.52	21823
884.646	21876
884.772	21823
884.897	21732
885.023	21816
885.148	21930
885.274	22010
885.399	22070
885.524	21911
885.65	21789
885.775	21880
885.9	21842
886.025	22032
886.15	21934
886.275	21926
886.4	21774
886.525	21846
886.65	21739
886.775	21732
886.9	22013
887.025	22032
887.149	21949
887.274	21774
887.399	21656
887.523	21656
887.648	21675
887.773	21424
887.897	21614
888.021	21660
888.146	21595
888.27	21751
888.395	21766
888.519	21614
888.643	21595
888.767	21660
888.891	21382
889.015	21397
889.139	21523
889.263	21488
889.387	21580
889.511	21625
889.635	21507
889.759	21363
889.883	21291
890.006	21458
890.13	21485
890.254	21329
890.377	21359
890.501	21211
890.624	21184
890.748	21161
890.871	21074
890.995	20910
891.118	20891
891.241	21017
891.364	21001
891.488	20982
891.611	21005
891.734	21119
891.857	21013
891.98	21001
892.103	20899
892.226	20967
892.349	20872
892.471	20705
892.594	20914
892.717	20906
892.839	20796
892.962	20895
893.085	20960
893.207	20830
893.33	20777
893.452	20785
893.575	21032
893.697	20842
893.819	21085
893.941	21066
894.064	21066
894.186	20849
894.308	20716
894.43	20933
894.552	21013
894.674	20906
894.796	20712
894.918	20838
895.04	20804
895.161	20956
895.283	20864
895.405	20937
895.526	21005
895.648	20804
895.769	20921
895.891	20880
896.012	20963
896.134	20891
896.255	20823
896.376	20883
896.498	20872
896.619	20811
896.74	20807
896.861	20811
896.982	21245
897.103	21336
897.224	21032
897.345	20948
897.466	20921
897.587	21116
897.708	21184
897.828	21074
897.949	21112
898.07	20826
898.19	20921
898.311	21024
898.431	21157
898.552	21093
898.672	20998
898.792	20994
898.913	21009
899.033	20960
899.153	20891
899.273	20724
899.393	20887
899.513	20902
899.633	20785
899.753	20762
899.873	20659
899.993	20739
900.113	20651
900.232	20883
900.352	20644
900.472	20568
900.591	20651
900.711	20602
900.83	20484
900.95	20651
901.069	20632
901.189	20347
901.308	20100
901.427	20210
901.546	20199
901.665	20199
901.784	20195
901.904	19894
902.023	19917
902.141	19761
902.26	19666
902.379	19738
902.498	19628
902.617	19658
902.735	19647
902.854	19681
902.973	19628
903.091	19373
903.21	19251
903.328	19381
903.446	19285
903.565	19107
903.683	19107
903.801	18932
903.919	19027
904.038	19061
904.156	18894
904.274	18913
904.392	18825
904.51	18661
904.627	18882
904.745	18970
904.863	18989
904.981	18757
905.098	18574
905.216	18521
905.334	18551
905.451	18658
905.569	18433
905.686	18585
905.803	18441
905.921	18319
906.038	18296
906.155	18342
906.272	18262
906.389	18182
906.506	18068
906.623	18106
906.74	18060
906.857	17889
906.974	17973
907.091	18148
907.208	18178
907.324	18022
907.441	17855
907.557	17737
907.674	17775
907.79	17729
907.907	17783
908.023	17786
908.139	17691
908.256	17764
908.372	17672
908.488	17684
908.604	17509
908.72	17520
908.836	17459
908.952	17501
909.068	17436
909.184	17490
909.3	17608
909.415	17440
909.531	17436
909.647	17269
909.762	17265
909.878	17220
909.993	17204
910.108	17151
910.224	17181
910.339	17174
910.454	17045
910.57	16984
910.685	16854
910.8	17200
910.915	17140
911.03	17010
911.145	16831
911.259	16763
911.374	16752
911.489	16702
911.604	16694
911.718	16599
911.833	16558
911.947	16436
912.062	16371
912.176	16588
912.291	16405
912.405	16428
912.519	16706
912.633	16634
912.748	16512
912.862	16478
912.976	16394
913.09	16169
913.204	16276
913.318	16386
913.431	16314
913.545	16344
913.659	16394
913.772	16344
913.886	16105
914	16067
914.113	16226
914.226	16268
914.34	16128
914.453	15953
914.566	16055
914.68	15945
914.793	15876
914.906	15831
915.019	15705
915.132	15614
915.245	15698
915.358	15694
915.47	15774
915.583	15682
915.696	15622
915.809	15690
915.921	15819
916.034	15561
916.146	15591
916.259	15549
916.371	15584
916.483	15660
916.595	15515
916.708	15488
916.82	15424
916.932	15447
917.044	15428
917.156	15443
917.268	15389
917.38	15435
917.491	15348
917.603	15317
917.715	15291
917.826	15302
917.938	15252
918.049	15218
918.161	15214
918.272	15424
918.384	15424
918.495	15306
918.606	15176
918.717	15119
918.828	15036
918.939	15142
919.05	15062
919.161	15055
919.272	14960
919.383	14971
919.494	15074
919.604	15203
919.715	15055
919.826	14979
919.936	14994
920.047	15001
920.157	15036
920.267	15275
920.378	15051
920.488	15009
920.598	15165
920.708	15272
920.818	15176
920.928	15237
921.038	15268
921.148	15256
921.258	15020
921.368	14921
921.477	14857
921.587	14750
921.697	14621
921.806	14769
921.916	14571
922.025	14465
922.134	14442
922.244	14332
922.353	14419
922.462	14210
922.571	14199
922.68	14115
922.789	14027
922.898	13993
923.007	13932
923.116	14050
923.224	14024
923.333	14039
923.442	13944
923.55	13822
923.659	13967
923.767	13932
923.876	13738
923.984	13860
924.092	13795
924.201	13849
924.309	13746
924.417	13784
924.525	13738
924.633	13693
924.741	14492
924.849	13464
924.956	13639
925.064	13445
925.172	13449
925.279	13392
925.387	13487
925.494	13419
925.602	13525
925.709	13510
925.816	13400
925.924	13373
926.031	13407
926.138	13381
926.245	13441
926.352	13274
926.459	13354
926.566	13415
926.673	13232
926.779	13126
926.886	13114
926.993	12996
927.099	12890
927.206	12996
927.312	12977
927.419	13000
927.525	12932
927.631	13023
927.737	12882
927.843	12802
927.95	12642
928.056	12681
928.162	12817
928.267	12848
928.373	13324
928.479	12833
928.585	12623
928.69	12688
928.796	12783
928.901	12681
929.007	12536
929.112	12692
929.218	12479
929.323	12452
929.428	12498
929.533	12646
929.638	12441
929.743	12460
929.848	12502
929.953	12391
930.058	12353
930.163	12129
930.267	12213
930.372	12289
930.477	12121
930.581	12391
930.685	12155
930.79	11954
930.894	12045
930.998	12057
931.103	12140
931.207	11805
931.311	11779
931.415	11566
931.519	11417
931.623	11421
