Data from test_V78500241_283.txt Node
Date: Fri Mar 25 15:43:45 CST 2022
User: usil
Spectrometer: V785-0024
Trigger mode: 0
Integration Time (sec): 4.000000E-1
Scans to average: 1
Nonlinearity correction enabled: false
Boxcar width: 0
Storing dark spectrum: false
XAxis mode: Wavelengths
Number of Pixels in Spectrum: 1024
>>>>>Begin Spectral Data<<<<<
801.071	29604
801.214	29600
801.356	29486
801.499	29368
801.641	29356
801.783	29269
801.926	29204
802.068	29174
802.211	29098
802.353	29113
802.496	28904
802.638	28866
802.78	28911
802.923	28733
803.065	28885
803.208	28850
803.35	28881
803.492	29022
803.635	28927
803.777	29052
803.919	29124
804.061	29410
804.204	29033
804.346	29048
804.488	28949
804.63	28976
804.773	28888
804.915	29067
805.057	29113
805.199	29003
805.341	29064
805.483	29185
805.626	29181
805.768	29140
805.91	29166
806.052	29136
806.194	29105
806.336	29402
806.478	29258
806.62	29170
806.762	29330
806.904	29524
807.046	29661
807.188	29619
807.33	29600
807.472	29737
807.614	29585
807.756	29680
807.898	29391
808.04	29368
808.182	29402
808.324	29280
808.465	29303
808.607	29573
808.749	29748
808.891	29901
809.033	29935
809.174	29790
809.316	29802
809.458	29627
809.6	29676
809.741	29866
809.883	29824
810.025	30174
810.166	30106
810.308	30152
810.45	30068
810.591	29969
810.733	29699
810.875	29794
811.016	29600
811.158	29684
811.299	29847
811.441	30011
811.582	29912
811.724	29752
811.865	29726
812.007	29718
812.148	29809
812.29	29790
812.431	29904
812.573	30038
812.714	30148
812.855	30262
812.997	30391
813.138	30505
813.279	30437
813.421	30399
813.562	30296
813.703	30190
813.845	30098
813.986	29630
814.127	29551
814.268	29463
814.41	29421
814.551	29581
814.692	29490
814.833	29368
814.974	29322
815.115	29334
815.256	29330
815.397	29277
815.539	29235
815.68	29265
815.821	29170
815.962	29235
816.103	29231
816.244	28949
816.385	28934
816.526	28877
816.666	28702
816.807	28679
816.948	28847
817.089	28782
817.23	28847
817.371	28691
817.512	28611
817.653	28679
817.793	28694
817.934	28527
818.075	28649
818.216	28729
818.356	28611
818.497	28599
818.638	28242
818.778	28314
818.919	28371
819.06	28504
819.2	28421
819.341	28656
819.481	28584
819.622	28675
819.762	28919
819.903	28748
820.043	28630
820.184	28824
820.324	28736
820.465	28733
820.605	28744
820.746	28698
820.886	28584
821.026	28679
821.167	28710
821.307	28793
821.447	28535
821.588	28538
821.728	28504
821.868	28204
822.008	28048
822.149	27930
822.289	27991
822.429	27793
822.569	27698
822.709	27759
822.849	27477
822.99	27496
823.13	27416
823.27	27504
823.41	27374
823.55	27241
823.69	27131
823.83	27298
823.97	27272
824.11	27142
824.25	27119
824.389	27066
824.529	27252
824.669	27154
824.809	27245
824.949	27291
825.089	27287
825.228	27237
825.368	26986
825.508	27036
825.648	26994
825.787	27032
825.927	27017
826.067	26967
826.206	27066
826.346	27119
826.485	26990
826.625	27024
826.765	27036
826.904	27036
827.044	26918
827.183	26708
827.323	26659
827.462	26765
827.601	26686
827.741	26602
827.88	26686
828.02	26689
828.159	26522
828.298	26480
828.437	26632
828.577	26541
828.716	26796
828.855	26552
828.994	26396
829.134	26172
829.273	26434
829.412	26351
829.551	26355
829.69	26412
829.829	26309
829.968	26233
830.107	26374
830.246	26237
830.385	26187
830.524	26138
830.663	26100
830.802	26115
830.941	25750
831.08	25822
831.219	25841
831.357	25879
831.496	26168
831.635	25765
831.774	25856
831.913	25681
832.051	25700
832.19	25559
832.329	25674
832.467	25479
832.606	25491
832.744	25643
832.883	25533
833.022	25476
833.16	25502
833.299	25441
833.437	25540
833.576	25597
833.714	25601
833.852	25639
833.991	25632
834.129	25662
834.267	25666
834.406	25365
834.544	25514
834.682	25533
834.821	25422
834.959	25609
835.097	25457
835.235	25502
835.373	25373
835.511	25464
835.65	25419
835.788	25354
835.926	25198
836.064	25175
836.202	25148
836.34	25343
836.478	25358
836.615	25460
836.753	25339
836.891	25468
837.029	25339
837.167	25320
837.305	25362
837.443	25304
837.58	25240
837.718	25225
837.856	25164
837.993	25122
838.131	25225
838.269	25027
838.406	25031
838.544	25072
838.681	24856
838.819	24890
838.956	24494
839.094	24696
839.231	24783
839.369	24726
839.506	24958
839.643	24840
839.781	24517
839.918	24536
840.055	24635
840.193	24502
840.33	24445
840.467	24570
840.604	24513
840.742	24738
840.879	24281
841.016	24319
841.153	24372
841.29	24604
841.427	24391
841.564	24452
841.701	24418
841.838	24426
841.975	24384
842.112	24361
842.249	24285
842.385	24308
842.522	24490
842.659	24254
842.796	24152
842.933	24205
843.069	24076
843.206	24197
843.343	24342
843.479	24159
843.616	24095
843.752	23954
843.889	23958
844.025	24144
844.162	23961
844.298	24041
844.435	23969
844.571	23840
844.708	23935
844.844	23996
844.98	23984
845.117	24087
845.253	23718
845.389	23779
845.525	23832
845.661	23885
845.798	23649
845.934	23627
846.07	23665
846.206	23623
846.342	23729
846.478	23741
846.614	23421
846.75	23242
846.886	23379
847.022	23425
847.158	23410
847.294	23440
847.429	23440
847.565	23265
847.701	23425
847.837	23105
847.972	22999
848.108	23159
848.244	23113
848.379	23022
848.515	22965
848.65	22980
848.786	22847
848.921	22987
849.057	23044
849.192	23044
849.328	23006
849.463	22938
849.598	22873
849.734	22812
849.869	22793
850.004	22763
850.14	22531
850.275	22691
850.41	22588
850.545	22538
850.68	22516
850.815	22683
850.95	22607
851.085	22824
851.22	22778
851.355	22573
851.49	22622
851.625	22664
851.76	22672
851.895	22459
852.03	22561
852.165	22725
852.299	22596
852.434	22653
852.569	22637
852.703	22611
852.838	22660
852.973	22774
853.107	22706
853.242	22489
853.376	22474
853.511	22348
853.645	22516
853.78	22550
853.914	22337
854.048	22386
854.183	22402
854.317	22493
854.451	22565
854.585	22287
854.72	22402
854.854	22580
854.988	22348
855.122	22432
855.256	22246
855.39	22402
855.524	22413
855.658	22493
855.792	22478
855.926	22421
856.06	22516
856.194	22546
856.327	22394
856.461	22341
856.595	22344
856.729	22421
856.862	22584
856.996	22565
857.13	22455
857.263	22451
857.397	22569
857.53	22386
857.664	22561
857.797	22523
857.931	22497
858.064	22485
858.197	22497
858.331	22375
858.464	22322
858.597	22394
858.731	22440
858.864	22402
858.997	22386
859.13	22390
859.263	22440
859.396	22474
859.529	22360
859.662	22284
859.795	22402
859.928	22573
860.061	22489
860.194	22489
860.327	22538
860.46	22379
860.592	22512
860.725	22516
860.858	22402
860.99	22424
861.123	22310
861.256	22246
861.388	22348
861.521	22991
861.653	22215
861.786	22154
861.918	22291
862.05	22257
862.183	22322
862.315	22382
862.447	22413
862.58	22344
862.712	22173
862.844	22048
862.976	22185
863.108	22169
863.24	22485
863.372	22093
863.504	21972
863.636	22090
863.768	22101
863.9	22154
864.032	22021
864.164	21983
864.296	22036
864.428	22074
864.559	22063
864.691	22128
864.823	22154
864.954	21975
865.086	22002
865.217	22021
865.349	21960
865.48	21945
865.612	22025
865.743	22230
865.875	21964
866.006	21835
866.137	22086
866.269	22044
866.4	21991
866.531	21922
866.662	21831
866.793	21911
866.924	21911
867.055	22010
867.186	21945
867.317	21778
867.448	21800
867.579	21781
867.71	21793
867.841	21770
867.972	21865
868.103	21869
868.233	21873
868.364	21865
868.495	21994
868.625	22032
868.756	22215
868.886	22147
869.017	22090
869.147	22348
869.278	22325
869.408	22059
869.539	22131
869.669	22177
869.799	22135
869.929	22124
870.06	22215
870.19	22371
870.32	22440
870.45	22413
870.58	22409
870.71	22577
870.84	22729
870.97	22489
871.1	22375
871.23	22736
871.36	22717
871.489	22683
871.619	22672
871.749	22626
871.879	22778
872.008	22771
872.138	22710
872.267	22805
872.397	22622
872.526	22584
872.656	22561
872.785	22443
872.915	22664
873.044	22793
873.173	22812
873.303	22774
873.432	22790
873.561	22744
873.69	22748
873.819	22618
873.948	22885
874.077	22580
874.206	22649
874.335	22736
874.464	22809
874.593	22995
874.722	22927
874.851	22976
874.979	22984
875.108	23060
875.237	22812
875.365	22847
875.494	22839
875.623	23060
875.751	22873
875.88	22877
876.008	23056
876.136	23064
876.265	23356
876.393	23379
876.521	23509
876.65	23360
876.778	23402
876.906	23277
877.034	23353
877.162	23246
877.29	23250
877.418	23318
877.546	23258
877.674	23376
877.802	23166
877.93	23284
878.058	23296
878.185	23162
878.313	23162
878.441	23250
878.568	23155
878.696	23162
878.824	23391
878.951	23402
879.079	23406
879.206	23353
879.333	23448
879.461	23337
879.588	23421
879.715	23452
879.842	23512
879.97	23356
880.097	23109
880.224	23086
880.351	23124
880.478	23079
880.605	23102
880.732	23231
880.859	23250
880.986	23079
881.112	23200
881.239	22976
881.366	22858
881.493	22854
881.619	22801
881.746	22717
881.872	22653
881.999	22660
882.125	22584
882.252	22759
882.378	22736
882.505	22740
882.631	22626
882.757	22428
882.883	22451
883.01	22428
883.136	22348
883.262	22299
883.388	22158
883.514	22291
883.64	22550
883.766	22265
883.892	22204
884.018	22169
884.143	22276
884.269	22363
884.395	22044
884.52	21880
884.646	22013
884.772	21960
884.897	21892
885.023	21892
885.148	22139
885.274	22249
885.399	22177
885.524	21983
885.65	22063
885.775	22059
885.9	21835
886.025	22029
886.15	21960
886.275	21876
886.4	21831
886.525	21964
886.65	21873
886.775	21945
886.9	21956
887.025	22249
887.149	21926
887.274	21880
887.399	21732
887.523	21743
887.648	21675
887.773	21553
887.897	21774
888.021	21728
888.146	21648
888.27	21869
888.395	21846
888.519	21717
888.643	21698
888.767	21823
888.891	21625
889.015	21561
889.139	21576
889.263	21469
889.387	21591
889.511	21717
889.635	21557
889.759	21393
889.883	21370
890.006	21447
890.13	21614
890.254	21500
890.377	21504
890.501	21211
890.624	21222
890.748	21222
890.871	21123
890.995	21001
891.118	20937
891.241	21005
891.364	21028
891.488	21150
891.611	21032
891.734	20956
891.857	21127
891.98	21039
892.103	21157
892.226	20941
892.349	20902
892.471	20792
892.594	20982
892.717	20986
892.839	20937
892.962	20986
893.085	21081
893.207	20971
893.33	20663
893.452	20933
893.575	21066
893.697	20963
893.819	21096
893.941	21100
894.064	21123
894.186	20785
894.308	20906
894.43	20967
894.552	21039
894.674	21001
894.796	20921
894.918	20902
895.04	20895
895.161	20925
895.283	20979
895.405	20781
895.526	20880
895.648	20902
895.769	20910
895.891	20948
896.012	21039
896.134	21028
896.255	20998
896.376	20941
896.498	20918
896.619	20929
896.74	20853
896.861	21013
896.982	21393
897.103	21435
897.224	21169
897.345	21100
897.466	21154
897.587	21218
897.708	21211
897.828	21237
897.949	21089
898.07	21051
898.19	21020
898.311	21146
898.431	20963
898.552	21157
898.672	21123
898.792	21180
898.913	21154
899.033	20967
899.153	20906
899.273	20765
899.393	20773
899.513	20864
899.633	20834
899.753	20819
899.873	20823
899.993	20811
900.113	20826
900.232	20853
900.352	20758
900.472	20629
900.591	20590
900.711	20541
900.83	20583
900.95	20686
901.069	20621
901.189	20446
901.308	20328
901.427	20168
901.546	20275
901.665	20294
901.784	20199
901.904	20039
902.023	20069
902.141	19727
902.26	19715
902.379	19871
902.498	19567
902.617	19647
902.735	19689
902.854	19605
902.973	19575
903.091	19365
903.21	19278
903.328	19358
903.446	19247
903.565	19110
903.683	19133
903.801	19027
903.919	19069
904.038	19076
904.156	18871
904.274	18837
904.392	18932
904.51	18810
904.627	18924
904.745	18928
904.863	18913
904.981	18620
905.098	18574
905.216	18536
905.334	18479
905.451	18544
905.569	18506
905.686	18532
905.803	18639
905.921	18361
906.038	18445
906.155	18353
906.272	18216
906.389	18270
906.506	18053
906.623	18121
906.74	17927
906.857	17901
906.974	18057
907.091	18045
907.208	18098
907.324	18102
907.441	17969
907.557	17912
907.674	17775
907.79	17661
907.907	17627
908.023	17737
908.139	17695
908.256	17672
908.372	17703
908.488	17478
908.604	17490
908.72	17425
908.836	17512
908.952	17379
909.068	17467
909.184	17562
909.3	17455
909.415	17501
909.531	17398
909.647	17223
909.762	17303
909.878	17174
909.993	17223
910.108	17159
910.224	17025
910.339	17071
910.454	16904
910.57	16881
910.685	16805
910.8	17064
910.915	17132
911.03	16987
911.145	16725
911.259	16721
911.374	16748
911.489	16573
911.604	16588
911.718	16375
911.833	16527
911.947	16451
912.062	16329
912.176	16428
912.291	16428
912.405	16352
912.519	16626
912.633	16615
912.748	16478
912.862	16440
912.976	16341
913.09	16215
913.204	16158
913.318	16284
913.431	16268
913.545	16337
913.659	16200
913.772	16120
913.886	16093
914	16101
914.113	16154
914.226	16154
914.34	16025
914.453	16006
914.566	16051
914.68	15899
914.793	15842
914.906	15648
915.019	15603
915.132	15568
915.245	15614
915.358	15618
915.47	15644
915.583	15587
915.696	15576
915.809	15747
915.921	15732
916.034	15553
916.146	15500
916.259	15454
916.371	15671
916.483	15595
916.595	15443
916.708	15462
916.82	15515
916.932	15351
917.044	15416
917.156	15374
917.268	15195
917.38	15249
917.491	15119
917.603	15344
917.715	15249
917.826	15256
917.938	15226
918.049	15066
918.161	15180
918.272	15260
918.384	15359
918.495	15188
918.606	14910
918.717	15036
918.828	14918
918.939	14998
919.05	14921
919.161	15001
919.272	14765
919.383	14876
919.494	15013
919.604	15192
919.715	15001
919.826	14902
919.936	14872
920.047	15055
920.157	15020
920.267	15043
920.378	15009
920.488	14967
920.598	15089
920.708	15317
920.818	15142
920.928	15085
921.038	15222
921.148	15233
921.258	14804
921.368	14796
921.477	14674
921.587	14655
921.697	14564
921.806	14705
921.916	14541
922.025	14377
922.134	14339
922.244	14328
922.353	14328
922.462	14191
922.571	14138
922.68	14035
922.789	14027
922.898	13997
923.007	13898
923.116	13940
923.224	13890
923.333	13913
923.442	13742
923.55	13700
923.659	13822
923.767	13833
923.876	13738
923.984	13776
924.092	13616
924.201	13696
924.309	13674
924.417	13769
924.525	13552
924.633	13643
924.741	14549
924.849	13434
924.956	13537
925.064	13422
925.172	13255
925.279	13434
925.387	13350
925.494	13343
925.602	13464
925.709	13373
925.816	13282
925.924	13301
926.031	13358
926.138	13293
926.245	13202
926.352	13141
926.459	13316
926.566	13316
926.673	13202
926.779	13152
926.886	13114
926.993	12932
927.099	12837
927.206	12913
927.312	12890
927.419	12932
927.525	12806
927.631	12878
927.737	12779
927.843	12806
927.95	12574
928.056	12734
928.162	12696
928.267	12726
928.373	13320
928.479	12749
928.585	12437
928.69	12734
928.796	12681
928.901	12604
929.007	12376
929.112	12513
929.218	12502
929.323	12467
929.428	12456
929.533	12467
929.638	12311
929.743	12391
929.848	12384
929.953	12372
930.058	12224
930.163	12091
930.267	12041
930.372	12159
930.477	12034
930.581	12285
930.685	12144
930.79	12068
930.894	11923
930.998	11965
931.103	12034
931.207	11783
931.311	11646
931.415	11623
931.519	11368
931.623	11265
