Data from test_V78500241_1631.txt Node
Date: Fri Mar 25 15:53:05 CST 2022
User: usil
Spectrometer: V785-0024
Trigger mode: 0
Integration Time (sec): 4.000000E-1
Scans to average: 1
Nonlinearity correction enabled: false
Boxcar width: 0
Storing dark spectrum: false
XAxis mode: Wavelengths
Number of Pixels in Spectrum: 1024
>>>>>Begin Spectral Data<<<<<
801.071	28147
801.214	27998
801.356	27819
801.499	27842
801.641	27778
801.783	27660
801.926	27778
802.068	27675
802.211	27675
802.353	27743
802.496	27481
802.638	27420
802.78	27439
802.923	27351
803.065	27348
803.208	27332
803.35	27370
803.492	27564
803.635	27511
803.777	27443
803.919	27523
804.061	27861
804.204	27545
804.346	27698
804.488	27530
804.63	27603
804.773	27424
804.915	27652
805.057	27774
805.199	27591
805.341	27591
805.483	27861
805.626	27701
805.768	27587
805.91	27846
806.052	27644
806.194	27686
806.336	28006
806.478	27770
806.62	27675
806.762	27789
806.904	28063
807.046	28337
807.188	28158
807.33	28109
807.472	28226
807.614	28055
807.756	28090
807.898	28078
808.04	28002
808.182	28059
808.324	28063
808.465	28051
808.607	28246
808.749	28371
808.891	28485
809.033	28436
809.174	28405
809.316	28363
809.458	28375
809.6	28424
809.741	28440
809.883	28500
810.025	28687
810.166	28577
810.308	28755
810.45	28634
810.591	28603
810.733	28417
810.875	28451
811.016	28413
811.158	28322
811.299	28588
811.441	28561
811.582	28523
811.724	28550
811.865	28382
812.007	28356
812.148	28432
812.29	28382
812.431	28405
812.573	28713
812.714	28744
812.855	28953
812.997	28888
813.138	29170
813.279	29029
813.421	28919
813.562	28828
813.703	28866
813.845	28694
813.986	28485
814.127	28249
814.268	27979
814.41	28090
814.551	28032
814.692	28166
814.833	28029
814.974	27964
815.115	28067
815.256	28017
815.397	28051
815.539	27945
815.68	27903
815.821	27804
815.962	27934
816.103	27888
816.244	27964
816.385	27610
816.526	27652
816.666	27500
816.807	27321
816.948	27500
817.089	27496
817.23	27538
817.371	27313
817.512	27310
817.653	27561
817.793	27272
817.934	27329
818.075	27214
818.216	27382
818.356	27275
818.497	27245
818.638	27043
818.778	26986
818.919	27085
819.06	27241
819.2	27214
819.341	27268
819.481	27313
819.622	27450
819.762	27610
819.903	27736
820.043	27591
820.184	27477
820.324	27515
820.465	27603
820.605	27507
820.746	27477
820.886	27401
821.026	27591
821.167	27450
821.307	27477
821.447	27393
821.588	27447
821.728	27230
821.868	27100
822.008	26849
822.149	26842
822.289	26743
822.429	26632
822.569	26583
822.709	26590
822.849	26332
822.99	26385
823.13	26381
823.27	26263
823.41	26202
823.55	26088
823.69	26138
823.83	26058
823.97	26122
824.11	25902
824.25	26043
824.389	25997
824.529	26111
824.669	25970
824.809	26187
824.949	26020
825.089	26168
825.228	25989
825.368	25906
825.508	25822
825.648	25784
825.787	26062
825.927	25921
826.067	25799
826.206	25822
826.346	25951
826.485	25955
826.625	25753
826.765	25982
826.904	25978
827.044	25685
827.183	25567
827.323	25544
827.462	25708
827.601	25495
827.741	25388
827.88	25552
828.02	25529
828.159	25449
828.298	25635
828.437	25632
828.577	25590
828.716	25635
828.855	25445
828.994	25240
829.134	25381
829.273	25396
829.412	25175
829.551	25213
829.69	25247
829.829	25346
829.968	25278
830.107	25285
830.246	25202
830.385	25251
830.524	25110
830.663	25004
830.802	24966
830.941	24939
831.08	24875
831.219	24829
831.357	24905
831.496	25137
831.635	24947
831.774	24806
831.913	24905
832.051	24646
832.19	24658
832.329	24681
832.467	24517
832.606	24448
832.744	24578
832.883	24475
833.022	24536
833.16	24665
833.299	24566
833.437	24547
833.576	24555
833.714	24707
833.852	24601
833.991	24646
834.129	24620
834.267	24730
834.406	24513
834.544	24734
834.682	24620
834.821	24574
834.959	24726
835.097	24433
835.235	24612
835.373	24696
835.511	24639
835.65	24422
835.788	24433
835.926	24338
836.064	24148
836.202	24304
836.34	24483
836.478	24422
836.615	24433
836.753	24475
836.891	24601
837.029	24346
837.167	24330
837.305	24289
837.443	24407
837.58	24190
837.718	24346
837.856	24273
837.993	24190
838.131	24285
838.269	24262
838.406	24114
838.544	24064
838.681	23901
838.819	23824
838.956	23668
839.094	23726
839.231	23832
839.369	23916
839.506	24228
839.643	24102
839.781	23741
839.918	23665
840.055	23634
840.193	23668
840.33	23592
840.467	23611
840.604	23630
840.742	23942
840.879	23505
841.016	23528
841.153	23577
841.29	23767
841.427	23600
841.564	23634
841.701	23592
841.838	23558
841.975	23501
842.112	23627
842.249	23406
842.385	23421
842.522	23714
842.659	23535
842.796	23288
842.933	23440
843.069	23337
843.206	23379
843.343	23505
843.479	23273
843.616	23452
843.752	23162
843.889	23216
844.025	23303
844.162	23212
844.298	23280
844.435	23143
844.571	23178
844.708	23185
844.844	23277
844.98	23220
845.117	23261
845.253	23071
845.389	23079
845.525	22968
845.661	22984
845.798	22866
845.934	22965
846.07	22938
846.206	22919
846.342	22987
846.478	22850
846.614	22706
846.75	22531
846.886	22611
847.022	22725
847.158	22691
847.294	22626
847.429	22744
847.565	22687
847.701	22854
847.837	22413
847.972	22314
848.108	22542
848.244	22344
848.379	22299
848.515	22265
848.65	22211
848.786	22253
848.921	22226
849.057	22466
849.192	22249
849.328	22329
849.463	22238
849.598	22154
849.734	22086
849.869	22086
850.004	21869
850.14	21968
850.275	22048
850.41	21941
850.545	21911
850.68	21964
850.815	21994
850.95	22086
851.085	22215
851.22	22154
851.355	22059
851.49	22036
851.625	21903
851.76	21941
851.895	21941
852.03	21895
852.165	22044
852.299	22040
852.434	22063
852.569	22086
852.703	21968
852.838	22025
852.973	22135
853.107	22211
853.242	21979
853.376	21850
853.511	21739
853.645	21743
853.78	21926
853.914	21842
854.048	21785
854.183	21819
854.317	21861
854.451	21968
854.585	21785
854.72	21724
854.854	21774
854.988	21861
855.122	21903
855.256	21762
855.39	21903
855.524	21816
855.658	21907
855.792	21926
855.926	21915
856.06	21884
856.194	21835
856.327	21751
856.461	21743
856.595	21701
856.729	21816
856.862	21987
856.996	21797
857.13	21945
857.263	21895
857.397	21819
857.53	21911
857.664	21838
857.797	21831
857.931	21918
858.064	21789
858.197	21842
858.331	21899
858.464	21724
858.597	21682
858.731	21770
858.864	21785
858.997	21679
859.13	21827
859.263	21846
859.396	21755
859.529	21846
859.662	21812
859.795	21713
859.928	21709
860.061	21915
860.194	22021
860.327	21903
860.46	21911
860.592	21899
860.725	21937
860.858	21941
860.99	21899
861.123	21797
861.256	21739
861.388	21838
861.521	22390
861.653	21614
861.786	21568
861.918	21606
862.05	21679
862.183	21759
862.315	21823
862.447	21717
862.58	21739
862.712	21500
862.844	21397
862.976	21564
863.108	21644
863.24	21937
863.372	21492
863.504	21614
863.636	21431
863.768	21583
863.9	21443
864.032	21389
864.164	21481
864.296	21500
864.428	21675
864.559	21583
864.691	21622
864.823	21568
864.954	21504
865.086	21504
865.217	21447
865.349	21348
865.48	21507
865.612	21428
865.743	21538
865.875	21279
866.006	21397
866.137	21393
866.269	21519
866.4	21477
866.531	21329
866.662	21351
866.793	21370
866.924	21359
867.055	21332
867.186	21302
867.317	21332
867.448	21192
867.579	21184
867.71	21233
867.841	21203
867.972	21329
868.103	21313
868.233	21268
868.364	21367
868.495	21473
868.625	21603
868.756	21587
868.886	21549
869.017	21610
869.147	21656
869.278	21705
869.408	21523
869.539	21488
869.669	21671
869.799	21606
869.929	21686
870.06	21671
870.19	21911
870.32	21869
870.45	21899
870.58	22044
870.71	22086
870.84	22124
870.97	22044
871.1	21991
871.23	22204
871.36	22181
871.489	22090
871.619	22177
871.749	22261
871.879	22261
872.008	22356
872.138	22246
872.267	22150
872.397	22109
872.526	21899
872.656	22044
872.785	21953
872.915	22109
873.044	22371
873.173	22154
873.303	22295
873.432	22135
873.561	22284
873.69	22265
873.819	22192
873.948	22337
874.077	22242
874.206	22139
874.335	22181
874.464	22303
874.593	22375
874.722	22493
874.851	22493
874.979	22413
875.108	22466
875.237	22341
875.365	22299
875.494	22257
875.623	22402
875.751	22356
875.88	22417
876.008	22523
876.136	22577
876.265	22839
876.393	22961
876.521	22896
876.65	22755
876.778	22873
876.906	22793
877.034	22679
877.162	22740
877.29	22706
877.418	22847
877.546	22782
877.674	22858
877.802	22828
877.93	22702
878.058	22664
878.185	22618
878.313	22809
878.441	22790
878.568	22527
878.696	22607
878.824	22710
878.951	22740
879.079	22965
879.206	23121
879.333	22911
879.461	22664
879.588	22824
879.715	22839
879.842	22934
879.97	22805
880.097	22683
880.224	22580
880.351	22577
880.478	22691
880.605	22565
880.732	22500
880.859	22774
880.986	22592
881.112	22554
881.239	22382
881.366	22421
881.493	22360
881.619	22082
881.746	22219
881.872	22162
881.999	22166
882.125	22090
882.252	22215
882.378	22135
882.505	22158
882.631	22010
882.757	21808
882.883	21949
883.01	21915
883.136	21842
883.262	21637
883.388	21698
883.514	21899
883.64	21717
883.766	21736
883.892	21583
884.018	21587
884.143	21690
884.269	21793
884.395	21576
884.52	21458
884.646	21496
884.772	21401
884.897	21351
885.023	21435
885.148	21553
885.274	21564
885.399	21443
885.524	21492
885.65	21466
885.775	21488
885.9	21435
886.025	21679
886.15	21595
886.275	21530
886.4	21382
886.525	21534
886.65	21393
886.775	21416
886.9	21606
887.025	21671
887.149	21408
887.274	21233
887.399	21195
887.523	21294
887.648	21241
887.773	21195
887.897	21329
888.021	21173
888.146	21085
888.27	21256
888.395	21401
888.519	21241
888.643	21188
888.767	21275
888.891	21218
889.015	21039
889.139	21062
889.263	21051
889.387	21066
889.511	21211
889.635	21165
889.759	21131
889.883	20990
890.006	21055
890.13	21135
890.254	21047
890.377	20872
890.501	20823
890.624	20701
890.748	20941
890.871	20602
890.995	20663
891.118	20598
891.241	20583
891.364	20560
891.488	20769
891.611	20613
891.734	20648
891.857	20632
891.98	20571
892.103	20602
892.226	20575
892.349	20602
892.471	20495
892.594	20606
892.717	20484
892.839	20499
892.962	20469
893.085	20602
893.207	20438
893.33	20320
893.452	20412
893.575	20602
893.697	20366
893.819	20518
893.941	20609
894.064	20568
894.186	20355
894.308	20351
894.43	20552
894.552	20625
894.674	20522
894.796	20438
894.918	20434
895.04	20400
895.161	20636
895.283	20533
895.405	20343
895.526	20408
895.648	20412
895.769	20480
895.891	20495
896.012	20613
896.134	20537
896.255	20541
896.376	20415
896.498	20530
896.619	20545
896.74	20366
896.861	20575
896.982	20823
897.103	21017
897.224	20724
897.345	20735
897.466	20621
897.587	20720
897.708	20857
897.828	20632
897.949	20686
898.07	20568
898.19	20693
898.311	20765
898.431	20568
898.552	20716
898.672	20765
898.792	20781
898.913	20716
899.033	20651
899.153	20514
899.273	20511
899.393	20389
899.513	20503
899.633	20454
899.753	20446
899.873	20480
899.993	20514
900.113	20286
900.232	20366
900.352	20442
900.472	20332
900.591	20142
900.711	20187
900.83	20130
900.95	20408
901.069	20229
901.189	20176
901.308	19890
901.427	19791
901.546	19769
901.665	19799
901.784	19803
901.904	19575
902.023	19563
902.141	19369
902.26	19422
902.379	19476
902.498	19312
902.617	19198
902.735	19419
902.854	19244
902.973	19187
903.091	18928
903.21	19000
903.328	19042
903.446	18894
903.565	18817
903.683	18821
903.801	18635
903.919	18795
904.038	18673
904.156	18650
904.274	18631
904.392	18612
904.51	18399
904.627	18589
904.745	18601
904.863	18608
904.981	18391
905.098	18228
905.216	18346
905.334	18148
905.451	18197
905.569	18232
905.686	18114
905.803	18197
905.921	18098
906.038	18182
906.155	17980
906.272	17916
906.389	17897
906.506	17771
906.623	17779
906.74	17672
906.857	17767
906.974	17657
907.091	17737
907.208	17783
907.324	17756
907.441	17729
907.557	17543
907.674	17391
907.79	17410
907.907	17459
908.023	17501
908.139	17433
908.256	17414
908.372	17307
908.488	17345
908.604	17269
908.72	17170
908.836	17121
908.952	17147
909.068	17128
909.184	17170
909.3	17200
909.415	17166
909.531	17197
909.647	16896
909.762	16793
909.878	16930
909.993	16900
910.108	16744
910.224	16908
910.339	16869
910.454	16740
910.57	16733
910.685	16550
910.8	16774
910.915	16839
911.03	16744
911.145	16470
911.259	16424
911.374	16379
911.489	16284
911.604	16295
911.718	16128
911.833	16173
911.947	16128
912.062	16139
912.176	16352
912.291	16158
912.405	16215
912.519	16310
912.633	16417
912.748	16196
912.862	16154
912.976	15991
913.09	15956
913.204	15975
913.318	16013
913.431	16082
913.545	16006
913.659	16150
913.772	15979
913.886	15869
914	15892
914.113	15926
914.226	15861
914.34	15953
914.453	15838
914.566	15831
914.68	15705
914.793	15618
914.906	15443
915.019	15458
915.132	15412
915.245	15420
915.358	15439
915.47	15424
915.583	15351
915.696	15473
915.809	15584
915.921	15526
916.034	15329
916.146	15355
916.259	15386
916.371	15378
916.483	15435
916.595	15249
916.708	15184
916.82	15214
916.932	15211
917.044	15256
917.156	15108
917.268	15146
917.38	15116
917.491	14941
917.603	15077
917.715	15138
917.826	15237
917.938	15005
918.049	14990
918.161	14990
918.272	15245
918.384	15074
918.495	14937
918.606	14815
918.717	14807
918.828	14872
918.939	14864
919.05	14762
919.161	14781
919.272	14644
919.383	14720
919.494	14982
919.604	15013
919.715	14765
919.826	14792
919.936	14777
920.047	14933
920.157	14785
920.267	14910
920.378	14781
920.488	14731
920.598	14967
920.708	15100
920.818	14887
920.928	14948
921.038	15074
921.148	15051
921.258	14834
921.368	14735
921.477	14568
921.587	14499
921.697	14454
921.806	14454
921.916	14366
922.025	14320
922.134	14172
922.244	14107
922.353	14214
922.462	14100
922.571	14020
922.68	13887
922.789	13765
922.898	13776
923.007	13833
923.116	13909
923.224	13852
923.333	13658
923.442	13776
923.55	13616
923.659	13624
923.767	13769
923.876	13613
923.984	13662
924.092	13533
924.201	13468
924.309	13559
924.417	13540
924.525	13464
924.633	13472
924.741	14256
924.849	13270
924.956	13377
925.064	13297
925.172	13179
925.279	13289
925.387	13240
925.494	13183
925.602	13304
925.709	13293
925.816	13187
925.924	13137
926.031	13240
926.138	13175
926.245	13206
926.352	13019
926.459	13190
926.566	13198
926.673	13114
926.779	12958
926.886	13015
926.993	12810
927.099	12738
927.206	12703
927.312	12688
927.419	12772
927.525	12749
927.631	12734
927.737	12677
927.843	12566
927.95	12460
928.056	12525
928.162	12646
928.267	12658
928.373	13266
928.479	12719
928.585	12456
928.69	12517
928.796	12544
928.901	12460
929.007	12266
929.112	12483
929.218	12361
929.323	12372
929.428	12304
929.533	12445
929.638	12289
929.743	12296
929.848	12182
929.953	12372
930.058	12175
930.163	11923
930.267	12087
930.372	12083
930.477	11984
930.581	12216
930.685	11977
930.79	11893
930.894	11920
930.998	11790
931.103	11950
931.207	11608
931.311	11551
931.415	11436
931.519	11307
931.623	11303
