Data from test_V78500241_1765.txt Node
Date: Fri Mar 25 15:54:01 CST 2022
User: usil
Spectrometer: V785-0024
Trigger mode: 0
Integration Time (sec): 4.000000E-1
Scans to average: 1
Nonlinearity correction enabled: false
Boxcar width: 0
Storing dark spectrum: false
XAxis mode: Wavelengths
Number of Pixels in Spectrum: 1024
>>>>>Begin Spectral Data<<<<<
801.071	28949
801.214	28725
801.356	28759
801.499	28447
801.641	28421
801.783	28440
801.926	28497
802.068	28550
802.211	28318
802.353	28238
802.496	28097
802.638	28154
802.78	28162
802.923	28010
803.065	28013
803.208	28010
803.35	28131
803.492	28238
803.635	28421
803.777	28230
803.919	28287
804.061	28649
804.204	28519
804.346	28421
804.488	28333
804.63	28398
804.773	28329
804.915	28428
805.057	28466
805.199	28375
805.341	28550
805.483	28474
805.626	28607
805.768	28344
805.91	28649
806.052	28596
806.194	28538
806.336	28653
806.478	28596
806.62	28702
806.762	28641
806.904	28740
807.046	29090
807.188	28961
807.33	28999
807.472	29033
807.614	28888
807.756	28984
807.898	28809
808.04	28858
808.182	28774
808.324	28782
808.465	28862
808.607	29166
808.749	29242
808.891	29326
809.033	29436
809.174	29307
809.316	29261
809.458	29326
809.6	29258
809.741	29398
809.883	29318
810.025	29505
810.166	29448
810.308	29471
810.45	29497
810.591	29516
810.733	29360
810.875	29239
811.016	29239
811.158	29132
811.299	29315
811.441	29356
811.582	29311
811.724	29280
811.865	29246
812.007	29220
812.148	29117
812.29	29467
812.431	29265
812.573	29543
812.714	29695
812.855	29687
812.997	29828
813.138	29920
813.279	29878
813.421	29809
813.562	29680
813.703	29726
813.845	29547
813.986	29368
814.127	29109
814.268	28980
814.41	28995
814.551	28938
814.692	29010
814.833	28980
814.974	28946
815.115	28987
815.256	28683
815.397	28965
815.539	28869
815.68	28786
815.821	28717
815.962	28847
816.103	28828
816.244	28656
816.385	28474
816.526	28577
816.666	28139
816.807	28257
816.948	28531
817.089	28424
817.23	28253
817.371	28238
817.512	28341
817.653	28169
817.793	28246
817.934	28204
818.075	28253
818.216	28215
818.356	28173
818.497	28181
818.638	27956
818.778	27884
818.919	27930
819.06	28105
819.2	28192
819.341	28154
819.481	28280
819.622	28481
819.762	28592
819.903	28573
820.043	28497
820.184	28424
820.324	28356
820.465	28519
820.605	28375
820.746	28386
820.886	28173
821.026	28443
821.167	28478
821.307	28417
821.447	28398
821.588	28181
821.728	28063
821.868	28044
822.008	27694
822.149	27736
822.289	27679
822.429	27580
822.569	27386
822.709	27496
822.849	27420
822.99	27325
823.13	27192
823.27	27275
823.41	27074
823.55	27062
823.69	27039
823.83	27192
823.97	27017
824.11	26739
824.25	26921
824.389	26982
824.529	26902
824.669	26937
824.809	27074
824.949	26857
825.089	26971
825.228	26963
825.368	26857
825.508	26651
825.648	26872
825.787	26800
825.927	26921
826.067	26807
826.206	26796
826.346	26857
826.485	26823
826.625	26636
826.765	26857
826.904	26853
827.044	26594
827.183	26400
827.323	26423
827.462	26602
827.601	26564
827.741	26351
827.88	26632
828.02	26503
828.159	26427
828.298	26583
828.437	26545
828.577	26423
828.716	26575
828.855	26507
828.994	26081
829.134	26199
829.273	26347
829.412	26267
829.551	26282
829.69	26218
829.829	26263
829.968	26286
830.107	26259
830.246	26191
830.385	26092
830.524	26077
830.663	26046
830.802	25913
830.941	25647
831.08	25719
831.219	25902
831.357	25875
831.496	25982
831.635	25879
831.774	25700
831.913	25651
832.051	25632
832.19	25674
832.329	25681
832.467	25491
832.606	25339
832.744	25434
832.883	25400
833.022	25377
833.16	25495
833.299	25457
833.437	25506
833.576	25529
833.714	25487
833.852	25525
833.991	25582
834.129	25655
834.267	25578
834.406	25491
834.544	25495
834.682	25647
834.821	25460
834.959	25696
835.097	25514
835.235	25559
835.373	25499
835.511	25578
835.65	25293
835.788	25403
835.926	25320
836.064	25152
836.202	25293
836.34	25365
836.478	25422
836.615	25407
836.753	25365
836.891	25301
837.029	25392
837.167	25274
837.305	25278
837.443	25145
837.58	25091
837.718	25202
837.856	25187
837.993	25042
838.131	25145
838.269	25080
838.406	25088
838.544	24981
838.681	24840
838.819	24920
838.956	24658
839.094	24639
839.231	24726
839.369	24783
839.506	24981
839.643	24833
839.781	24582
839.918	24578
840.055	24601
840.193	24578
840.33	24509
840.467	24483
840.604	24608
840.742	24703
840.879	24388
841.016	24456
841.153	24395
841.29	24589
841.427	24456
841.564	24528
841.701	24582
841.838	24551
841.975	24433
842.112	24445
842.249	24407
842.385	24292
842.522	24395
842.659	24330
842.796	24258
842.933	24239
843.069	24251
843.206	24087
843.343	24213
843.479	24277
843.616	24304
843.752	24129
843.889	24026
844.025	24053
844.162	23965
844.298	24254
844.435	24064
844.571	24060
844.708	24125
844.844	24220
844.98	24171
845.117	24205
845.253	24064
845.389	23935
845.525	23939
845.661	23992
845.798	23893
845.934	23726
846.07	23714
846.206	23737
846.342	23764
846.478	23756
846.614	23619
846.75	23478
846.886	23516
847.022	23566
847.158	23570
847.294	23524
847.429	23524
847.565	23581
847.701	23775
847.837	23239
847.972	23174
848.108	23345
848.244	23299
848.379	23197
848.515	23166
848.65	23143
848.786	22968
848.921	23170
849.057	23181
849.192	23227
849.328	23166
849.463	23086
849.598	22968
849.734	22976
849.869	23010
850.004	22809
850.14	23022
850.275	22987
850.41	22873
850.545	22816
850.68	22911
850.815	22790
850.95	22965
851.085	22987
851.22	22976
851.355	23010
851.49	22896
851.625	22793
851.76	22854
851.895	22740
852.03	22778
852.165	22786
852.299	22889
852.434	22961
852.569	22892
852.703	22771
852.838	22927
852.973	23052
853.107	22961
853.242	22774
853.376	22675
853.511	22672
853.645	22615
853.78	22835
853.914	22748
854.048	22630
854.183	22672
854.317	22774
854.451	22786
854.585	22641
854.72	22687
854.854	22717
854.988	22683
855.122	22691
855.256	22596
855.39	22748
855.524	22721
855.658	22649
855.792	22664
855.926	22687
856.06	22889
856.194	22744
856.327	22611
856.461	22694
856.595	22432
856.729	22561
856.862	22702
856.996	22793
857.13	22763
857.263	22752
857.397	22755
857.53	22698
857.664	22675
857.797	22835
857.931	22759
858.064	22607
858.197	22721
858.331	22687
858.464	22531
858.597	22489
858.731	22740
858.864	22679
858.997	22618
859.13	22660
859.263	22561
859.396	22725
859.529	22691
859.662	22683
859.795	22599
859.928	22694
860.061	22839
860.194	22854
860.327	22797
860.46	22599
860.592	22831
860.725	22866
860.858	22721
860.99	22634
861.123	22641
861.256	22702
861.388	22599
861.521	23433
861.653	22394
861.786	22440
861.918	22459
862.05	22603
862.183	22698
862.315	22713
862.447	22740
862.58	22516
862.712	22523
862.844	22272
862.976	22455
863.108	22481
863.24	22653
863.372	22333
863.504	22402
863.636	22409
863.768	22398
863.9	22379
864.032	22375
864.164	22329
864.296	22363
864.428	22398
864.559	22413
864.691	22417
864.823	22390
864.954	22386
865.086	22493
865.217	22299
865.349	22196
865.48	22238
865.612	22169
865.743	22417
865.875	22306
866.006	22196
866.137	22329
866.269	22284
866.4	22246
866.531	22105
866.662	22150
866.793	22139
866.924	22139
867.055	22238
867.186	22200
867.317	22223
867.448	22150
867.579	22207
867.71	22074
867.841	22223
867.972	22143
868.103	22048
868.233	22177
868.364	22223
868.495	22356
868.625	22432
868.756	22527
868.886	22356
869.017	22318
869.147	22421
869.278	22546
869.408	22443
869.539	22306
869.669	22580
869.799	22421
869.929	22538
870.06	22493
870.19	22778
870.32	22691
870.45	22778
870.58	22698
870.71	22953
870.84	22934
870.97	22797
871.1	22809
871.23	23048
871.36	22984
871.489	22953
871.619	22923
871.749	22949
871.879	22995
872.008	23220
872.138	22896
872.267	23090
872.397	22869
872.526	22908
872.656	22847
872.785	22782
872.915	23022
873.044	23181
873.173	23075
873.303	23083
873.432	23044
873.561	23033
873.69	23079
873.819	23098
873.948	23151
874.077	22968
874.206	23014
874.335	22984
874.464	23246
874.593	23288
874.722	23193
874.851	23303
874.979	23178
875.108	23246
875.237	23242
875.365	23128
875.494	23174
875.623	23296
875.751	23140
875.88	23189
876.008	23436
876.136	23452
876.265	23596
876.393	23733
876.521	23638
876.65	23665
876.778	23543
876.906	23573
877.034	23623
877.162	23646
877.29	23463
877.418	23592
877.546	23619
877.674	23486
877.802	23558
877.93	23467
878.058	23665
878.185	23433
878.313	23543
878.441	23615
878.568	23429
878.696	23440
878.824	23642
878.951	23691
879.079	23767
879.206	23912
879.333	23642
879.461	23512
879.588	23615
879.715	23638
879.842	23843
879.97	23695
880.097	23360
880.224	23376
880.351	23436
880.478	23516
880.605	23353
880.732	23353
880.859	23623
880.986	23417
881.112	23493
881.239	23307
881.366	23128
881.493	23147
881.619	22927
881.746	23102
881.872	22999
881.999	22957
882.125	23022
882.252	22957
882.378	23003
882.505	23136
882.631	22725
882.757	22729
882.883	22687
883.01	22687
883.136	22611
883.262	22546
883.388	22489
883.514	22637
883.64	22744
883.766	22493
883.892	22375
884.018	22440
884.143	22603
884.269	22611
884.395	22329
884.52	22158
884.646	22219
884.772	22265
884.897	22128
885.023	22185
885.148	22367
885.274	22363
885.399	22402
885.524	22196
885.65	22200
885.775	22265
885.9	22291
886.025	22424
886.15	22303
886.275	22211
886.4	22055
886.525	22303
886.65	22143
886.775	22101
886.9	22325
887.025	22379
887.149	22272
887.274	22025
887.399	21983
887.523	21991
887.648	21964
887.773	21850
887.897	21956
888.021	22032
888.146	21915
888.27	22139
888.395	22048
888.519	21991
888.643	21991
888.767	22006
888.891	21865
889.015	21854
889.139	21861
889.263	21732
889.387	21956
889.511	22040
889.635	21922
889.759	21743
889.883	21732
890.006	21785
890.13	21857
890.254	21778
890.377	21701
890.501	21583
890.624	21564
890.748	21667
890.871	21439
890.995	21306
891.118	21291
891.241	21370
891.364	21313
891.488	21416
891.611	21443
891.734	21370
891.857	21382
891.98	21428
892.103	21439
892.226	21294
892.349	21325
892.471	21131
892.594	21245
892.717	21313
892.839	21260
892.962	21154
893.085	21249
893.207	21157
893.33	20994
893.452	21241
893.575	21416
893.697	21264
893.819	21424
893.941	21370
894.064	21401
894.186	21230
894.308	21154
894.43	21184
894.552	21332
894.674	21161
894.796	21116
894.918	21230
895.04	21207
895.161	21199
895.283	21199
895.405	21047
895.526	21180
895.648	21047
895.769	21203
895.891	21233
896.012	21367
896.134	21344
896.255	21272
896.376	21138
896.498	21351
896.619	21249
896.74	21272
896.861	21279
896.982	21576
897.103	21606
897.224	21526
897.345	21298
897.466	21469
897.587	21408
897.708	21618
897.828	21386
897.949	21313
898.07	21256
898.19	21431
898.311	21466
898.431	21443
898.552	21428
898.672	21416
898.792	21466
898.913	21428
899.033	21287
899.153	21260
899.273	21199
899.393	21154
899.513	21199
899.633	21195
899.753	21081
899.873	21009
899.993	21218
900.113	21055
900.232	21093
900.352	21207
900.472	20902
900.591	20807
900.711	20868
900.83	20925
900.95	21131
901.069	20975
901.189	20823
901.308	20625
901.427	20415
901.546	20457
901.665	20568
901.784	20594
901.904	20366
902.023	20164
902.141	20138
902.26	20039
902.379	20081
902.498	19902
902.617	19890
902.735	20092
902.854	20005
902.973	19803
903.091	19635
903.21	19727
903.328	19571
903.446	19506
903.565	19468
903.683	19476
903.801	19354
903.919	19327
904.038	19335
904.156	19217
904.274	19232
904.392	19164
904.51	19103
904.627	19122
904.745	19232
904.863	19312
904.981	18947
905.098	18897
905.216	18844
905.334	18810
905.451	18985
905.569	18764
905.686	18890
905.803	18798
905.921	18540
906.038	18749
906.155	18696
906.272	18490
906.389	18532
906.506	18308
906.623	18361
906.74	18407
906.857	18296
906.974	18330
907.091	18441
907.208	18422
907.324	18506
907.441	18216
907.557	18079
907.674	18079
907.79	18019
907.907	18076
908.023	18053
908.139	18079
908.256	18079
908.372	18049
908.488	17878
908.604	17923
908.72	17798
908.836	17687
908.952	17775
909.068	17790
909.184	17885
909.3	17783
909.415	17809
909.531	17741
909.647	17474
909.762	17528
909.878	17406
909.993	17417
910.108	17414
910.224	17395
910.339	17497
910.454	17398
910.57	17311
910.685	17113
910.8	17433
910.915	17455
911.03	17140
911.145	17071
911.259	17045
911.374	17124
911.489	17022
911.604	16904
911.718	16805
911.833	16850
911.947	16733
912.062	16679
912.176	16873
912.291	16828
912.405	16778
912.519	16927
912.633	16949
912.748	16904
912.862	16675
912.976	16611
913.09	16554
913.204	16531
913.318	16596
913.431	16683
913.545	16592
913.659	16763
913.772	16417
913.886	16504
914	16337
914.113	16592
914.226	16478
914.34	16443
914.453	16310
914.566	16398
914.68	16280
914.793	16325
914.906	16154
915.019	15998
915.132	16032
915.245	15937
915.358	16067
915.47	15937
915.583	15956
915.696	16044
915.809	16013
915.921	16128
916.034	15918
916.146	15911
916.259	15903
916.371	15827
916.483	15979
916.595	15686
916.708	15759
916.82	15762
916.932	15770
917.044	15759
917.156	15682
917.268	15625
917.38	15648
917.491	15553
917.603	15572
917.715	15720
917.826	15682
917.938	15488
918.049	15473
918.161	15572
918.272	15648
918.384	15564
918.495	15526
918.606	15473
918.717	15287
918.828	15332
918.939	15393
919.05	15256
919.161	15344
919.272	15093
919.383	15104
919.494	15317
919.604	15481
919.715	15359
919.826	15169
919.936	15367
920.047	15416
920.157	15252
920.267	15450
920.378	15302
920.488	15211
920.598	15435
920.708	15549
920.818	15275
920.928	15355
921.038	15538
921.148	15519
921.258	15142
921.368	15146
921.477	15028
921.587	15001
921.697	14792
921.806	15020
921.916	14758
922.025	14750
922.134	14655
922.244	14613
922.353	14651
922.462	14492
922.571	14431
922.68	14343
922.789	14233
922.898	14256
923.007	14206
923.116	14362
923.224	14286
923.333	14225
923.442	14123
923.55	14088
923.659	14153
923.767	14164
923.876	14088
923.984	14172
924.092	13951
924.201	14043
924.309	13982
924.417	14043
924.525	13917
924.633	13993
924.741	14743
924.849	13677
924.956	13902
925.064	13651
925.172	13689
925.279	13693
925.387	13731
925.494	13708
925.602	13898
925.709	13719
925.816	13563
925.924	13537
926.031	13670
926.138	13506
926.245	13658
926.352	13445
926.459	13605
926.566	13696
926.673	13544
926.779	13384
926.886	13392
926.993	13236
927.099	13225
927.206	13168
927.312	13099
927.419	13209
927.525	13179
927.631	13232
927.737	13190
927.843	12966
927.95	13023
928.056	12981
928.162	13065
928.267	13076
928.373	13674
928.479	13065
928.585	12787
928.69	12939
928.796	12939
928.901	12810
929.007	12681
929.112	12814
929.218	12783
929.323	12753
929.428	12768
929.533	12741
929.638	12669
929.743	12627
929.848	12688
929.953	12620
930.058	12593
930.163	12350
930.267	12422
930.372	12521
930.477	12342
930.581	12536
930.685	12330
930.79	12289
930.894	12292
930.998	12285
931.103	12334
931.207	11958
931.311	11950
931.415	11821
931.519	11638
931.623	11566
