Data from test_V78500241_985.txt Node
Date: Fri Mar 25 15:48:37 CST 2022
User: usil
Spectrometer: V785-0024
Trigger mode: 0
Integration Time (sec): 4.000000E-1
Scans to average: 1
Nonlinearity correction enabled: false
Boxcar width: 0
Storing dark spectrum: false
XAxis mode: Wavelengths
Number of Pixels in Spectrum: 1024
>>>>>Begin Spectral Data<<<<<
801.071	28386
801.214	28265
801.356	28097
801.499	28044
801.641	27880
801.783	27884
801.926	27846
802.068	27914
802.211	27880
802.353	27720
802.496	27599
802.638	27545
802.78	27667
802.923	27504
803.065	27542
803.208	27591
803.35	27587
803.492	27679
803.635	27804
803.777	27797
803.919	27819
804.061	28128
804.204	27956
804.346	27694
804.488	27793
804.63	27739
804.773	27705
804.915	27899
805.057	27926
805.199	27770
805.341	27835
805.483	28051
805.626	28093
805.768	27914
805.91	27956
806.052	27994
806.194	27888
806.336	28074
806.478	28196
806.62	28067
806.762	28040
806.904	28310
807.046	28531
807.188	28348
807.33	28405
807.472	28470
807.614	28253
807.756	28272
807.898	28295
808.04	28341
808.182	28333
808.324	28310
808.465	28329
808.607	28478
808.749	28607
808.891	28729
809.033	28805
809.174	28675
809.316	28637
809.458	28565
809.6	28565
809.741	28763
809.883	28668
810.025	28782
810.166	28946
810.308	28881
810.45	28881
810.591	28896
810.733	28744
810.875	28607
811.016	28611
811.158	28363
811.299	28713
811.441	28812
811.582	28885
811.724	28786
811.865	28668
812.007	28729
812.148	28645
812.29	28729
812.431	28839
812.573	29113
812.714	29014
812.855	29280
812.997	29254
813.138	29474
813.279	29197
813.421	29349
813.562	29178
813.703	29048
813.845	28869
813.986	28592
814.127	28508
814.268	28409
814.41	28459
814.551	28322
814.692	28466
814.833	28276
814.974	28303
815.115	28318
815.256	28219
815.397	28192
815.539	28234
815.68	28242
815.821	28139
815.962	28067
816.103	28147
816.244	28021
816.385	28032
816.526	27884
816.666	27766
816.807	27682
816.948	27641
817.089	27766
817.23	27793
817.371	27739
817.512	27591
817.653	27614
817.793	27652
817.934	27751
818.075	27698
818.216	27698
818.356	27591
818.497	27458
818.638	27507
818.778	27485
818.919	27416
819.06	27363
819.2	27473
819.341	27557
819.481	27606
819.622	27972
819.762	28120
819.903	27823
820.043	27888
820.184	27690
820.324	27751
820.465	27724
820.605	27789
820.746	27892
820.886	27622
821.026	27774
821.167	27622
821.307	27922
821.447	27622
821.588	27576
821.728	27542
821.868	27378
822.008	27184
822.149	27203
822.289	27112
822.429	26979
822.569	26807
822.709	26765
822.849	26689
822.99	26689
823.13	26522
823.27	26613
823.41	26537
823.55	26442
823.69	26492
823.83	26431
823.97	26450
824.11	26339
824.25	26183
824.389	26305
824.529	26381
824.669	26453
824.809	26396
824.949	26351
825.089	26533
825.228	26431
825.368	26214
825.508	26115
825.648	26191
825.787	26294
825.927	26183
826.067	26221
826.206	26176
826.346	26301
826.485	26206
826.625	26172
826.765	26313
826.904	26210
827.044	25898
827.183	25959
827.323	25890
827.462	26027
827.601	25879
827.741	25925
827.88	25902
828.02	25685
828.159	25830
828.298	25890
828.437	25868
828.577	25822
828.716	25963
828.855	25833
828.994	25559
829.134	25635
829.273	25559
829.412	25464
829.551	25559
829.69	25647
829.829	25639
829.968	25738
830.107	25647
830.246	25529
830.385	25487
830.524	25460
830.663	25320
830.802	25225
830.941	25225
831.08	25179
831.219	25225
831.357	25209
831.496	25422
831.635	25152
831.774	25050
831.913	24962
832.051	24798
832.19	24985
832.329	24901
832.467	24856
832.606	24795
832.744	24829
832.883	24738
833.022	24798
833.16	24932
833.299	24837
833.437	24779
833.576	24909
833.714	24947
833.852	24989
833.991	25046
834.129	25019
834.267	24859
834.406	24833
834.544	24954
834.682	24947
834.821	24779
834.959	25114
835.097	24924
835.235	24920
835.373	24859
835.511	24882
835.65	24749
835.788	24772
835.926	24677
836.064	24452
836.202	24623
836.34	24814
836.478	24894
836.615	24639
836.753	24688
836.891	24760
837.029	24859
837.167	24620
837.305	24563
837.443	24707
837.58	24483
837.718	24681
837.856	24703
837.993	24597
838.131	24574
838.269	24452
838.406	24308
838.544	24289
838.681	24178
838.819	24110
838.956	24057
839.094	24057
839.231	24045
839.369	24171
839.506	24319
839.643	24209
839.781	24022
839.918	24007
840.055	24038
840.193	24057
840.33	23954
840.467	24030
840.604	23977
840.742	24163
840.879	23752
841.016	23874
841.153	23809
841.29	24011
841.427	23828
841.564	23935
841.701	23946
841.838	23809
841.975	23855
842.112	23851
842.249	23843
842.385	23676
842.522	23999
842.659	23691
842.796	23710
842.933	23775
843.069	23592
843.206	23623
843.343	23760
843.479	23623
843.616	23577
843.752	23509
843.889	23474
844.025	23642
844.162	23459
844.298	23615
844.435	23505
844.571	23372
844.708	23376
844.844	23623
844.98	23661
845.117	23398
845.253	23326
845.389	23322
845.525	23448
845.661	23376
845.798	23280
845.934	23326
846.07	23143
846.206	23166
846.342	23265
846.478	23208
846.614	22911
846.75	22896
846.886	22835
847.022	22987
847.158	22942
847.294	22911
847.429	23033
847.565	22866
847.701	23147
847.837	22672
847.972	22615
848.108	22767
848.244	22637
848.379	22550
848.515	22538
848.65	22535
848.786	22504
848.921	22508
849.057	22592
849.192	22691
849.328	22519
849.463	22523
849.598	22462
849.734	22451
849.869	22367
850.004	22188
850.14	22249
850.275	22196
850.41	22200
850.545	22257
850.68	22173
850.815	22341
850.95	22166
851.085	22542
851.22	22398
851.355	22348
851.49	22287
851.625	22344
851.76	22246
851.895	22261
852.03	22325
852.165	22223
852.299	22421
852.434	22379
852.569	22299
852.703	22219
852.838	22360
852.973	22375
853.107	22512
853.242	22242
853.376	22295
853.511	22029
853.645	22067
853.78	22128
853.914	22101
854.048	22070
854.183	22112
854.317	22154
854.451	22405
854.585	22067
854.72	22143
854.854	22169
854.988	22059
855.122	22086
855.256	21850
855.39	22078
855.524	21972
855.658	22139
855.792	22124
855.926	22131
856.06	22063
856.194	22074
856.327	22139
856.461	21991
856.595	22025
856.729	22059
856.862	22280
856.996	22074
857.13	22200
857.263	22093
857.397	22150
857.53	22158
857.664	22120
857.797	22177
857.931	22219
858.064	22090
858.197	22177
858.331	22017
858.464	22017
858.597	21937
858.731	22067
858.864	21975
858.997	22036
859.13	22158
859.263	22078
859.396	22120
859.529	21945
859.662	22063
859.795	22097
859.928	22173
860.061	22200
860.194	22306
860.327	22029
860.46	22139
860.592	22219
860.725	22299
860.858	22173
860.99	22017
861.123	22097
861.256	22006
861.388	22196
861.521	22767
861.653	22010
861.786	21808
861.918	21991
862.05	21827
862.183	22112
862.315	22063
862.447	22181
862.58	22112
862.712	21823
862.844	21743
862.976	21892
863.108	21854
863.24	22036
863.372	21751
863.504	21831
863.636	21835
863.768	21857
863.9	21827
864.032	21705
864.164	21800
864.296	21812
864.428	21945
864.559	21823
864.691	21789
864.823	21808
864.954	21759
865.086	21698
865.217	21667
865.349	21690
865.48	21698
865.612	21736
865.743	21701
865.875	21644
866.006	21671
866.137	21705
866.269	21736
866.4	21698
866.531	21694
866.662	21652
866.793	21625
866.924	21595
867.055	21705
867.186	21572
867.317	21534
867.448	21473
867.579	21545
867.71	21439
867.841	21405
867.972	21622
868.103	21553
868.233	21625
868.364	21583
868.495	21641
868.625	21869
868.756	21915
868.886	21774
869.017	21880
869.147	21975
869.278	21922
869.408	21964
869.539	21846
869.669	21941
869.799	21934
869.929	21922
870.06	21975
870.19	22131
870.32	22059
870.45	22169
870.58	22200
870.71	22253
870.84	22268
870.97	22223
871.1	22185
871.23	22462
871.36	22440
871.489	22295
871.619	22344
871.749	22474
871.879	22379
872.008	22474
872.138	22382
872.267	22550
872.397	22352
872.526	22131
872.656	22272
872.785	22291
872.915	22546
873.044	22485
873.173	22443
873.303	22462
873.432	22565
873.561	22500
873.69	22478
873.819	22451
873.948	22508
874.077	22443
874.206	22459
874.335	22474
874.464	22577
874.593	22634
874.722	22584
874.851	22767
874.979	22793
875.108	22710
875.237	22474
875.365	22538
875.494	22713
875.623	22702
875.751	22523
875.88	22672
876.008	22839
876.136	22866
876.265	23098
876.393	23223
876.521	23166
876.65	23208
876.778	23109
876.906	22953
877.034	22957
877.162	22961
877.29	23044
877.418	23155
877.546	23094
877.674	23037
877.802	23022
877.93	22930
878.058	22850
878.185	22873
878.313	22927
878.441	23048
878.568	22942
878.696	22938
878.824	23003
878.951	23288
879.079	23124
879.206	23261
879.333	23060
879.461	23044
879.588	23155
879.715	23136
879.842	23315
879.97	23029
880.097	22930
880.224	22881
880.351	22812
880.478	22881
880.605	22672
880.732	22782
880.859	23079
880.986	22835
881.112	22793
881.239	22687
881.366	22607
881.493	22405
881.619	22409
881.746	22382
881.872	22333
881.999	22386
882.125	22268
882.252	22409
882.378	22413
882.505	22504
882.631	22238
882.757	21983
882.883	22120
883.01	22032
883.136	22036
883.262	21926
883.388	21899
883.514	22150
883.64	22139
883.766	21960
883.892	21854
884.018	21903
884.143	22044
884.269	22040
884.395	21835
884.52	21781
884.646	21759
884.772	21660
884.897	21591
885.023	21705
885.148	21941
885.274	21895
885.399	21895
885.524	21770
885.65	21694
885.775	21652
885.9	21842
886.025	21781
886.15	21728
886.275	21686
886.4	21682
886.525	21713
886.65	21717
886.775	21701
886.9	21945
887.025	21880
887.149	21660
887.274	21580
887.399	21462
887.523	21469
887.648	21492
887.773	21355
887.897	21443
888.021	21485
888.146	21553
888.27	21450
888.395	21580
888.519	21534
888.643	21496
888.767	21492
888.891	21317
889.015	21279
889.139	21329
889.263	21283
889.387	21302
889.511	21511
889.635	21268
889.759	21298
889.883	21222
890.006	21313
890.13	21332
890.254	21180
890.377	21192
890.501	21142
890.624	20998
890.748	21119
890.871	20906
890.995	20864
891.118	20762
891.241	20887
891.364	20823
891.488	20902
891.611	20857
891.734	20899
891.857	20807
891.98	20830
892.103	20876
892.226	20823
892.349	20765
892.471	20587
892.594	20830
892.717	20743
892.839	20758
892.962	20769
893.085	20796
893.207	20807
893.33	20579
893.452	20659
893.575	20800
893.697	20663
893.819	20914
893.941	20906
894.064	20845
894.186	20708
894.308	20674
894.43	20849
894.552	20895
894.674	20864
894.796	20739
894.918	20815
895.04	20632
895.161	20853
895.283	20769
895.405	20640
895.526	20712
895.648	20648
895.769	20792
895.891	20644
896.012	20716
896.134	20735
896.255	20788
896.376	20769
896.498	20743
896.619	20682
896.74	20689
896.861	20804
896.982	21157
897.103	21138
897.224	20960
897.345	20990
897.466	20906
897.587	20956
897.708	21005
897.828	20963
897.949	20845
898.07	20743
898.19	20823
898.311	20986
898.431	20842
898.552	20937
898.672	20948
898.792	21020
898.913	20937
899.033	20883
899.153	20739
899.273	20526
899.393	20697
899.513	20743
899.633	20640
899.753	20678
899.873	20724
899.993	20746
900.113	20590
900.232	20670
900.352	20568
900.472	20415
900.591	20590
900.711	20389
900.83	20339
900.95	20480
901.069	20377
901.189	20374
901.308	20111
901.427	19967
901.546	20058
901.665	20088
901.784	20058
901.904	19963
902.023	19807
902.141	19670
902.26	19506
902.379	19647
902.498	19582
902.617	19559
902.735	19597
902.854	19544
902.973	19362
903.091	19331
903.21	19198
903.328	19213
903.446	19129
903.565	18924
903.683	19069
903.801	18882
903.919	18905
904.038	18958
904.156	18837
904.274	19099
904.392	18825
904.51	18696
904.627	18726
904.745	18779
904.863	18894
904.981	18494
905.098	18429
905.216	18467
905.334	18437
905.451	18616
905.569	18414
905.686	18380
905.803	18338
905.921	18281
906.038	18251
906.155	18205
906.272	18030
906.389	18186
906.506	17984
906.623	18041
906.74	17977
906.857	17920
906.974	17821
907.091	17939
907.208	18057
907.324	18026
907.441	17840
907.557	17646
907.674	17615
907.79	17634
907.907	17657
908.023	17657
908.139	17592
908.256	17649
908.372	17520
908.488	17482
908.604	17334
908.72	17254
908.836	17326
908.952	17246
909.068	17326
909.184	17471
909.3	17330
909.415	17353
909.531	17334
909.647	17079
909.762	16991
909.878	17018
909.993	17102
910.108	17079
910.224	16968
910.339	17025
910.454	16938
910.57	16828
910.685	16694
910.8	17086
910.915	17105
911.03	16774
911.145	16763
911.259	16637
911.374	16641
911.489	16478
911.604	16615
911.718	16459
911.833	16394
911.947	16367
912.062	16207
912.176	16428
912.291	16432
912.405	16394
912.519	16478
912.633	16577
912.748	16432
912.862	16348
912.976	16207
913.09	16101
913.204	16078
913.318	16181
913.431	16291
913.545	16223
913.659	16306
913.772	16097
913.886	16036
914	16071
914.113	16124
914.226	16013
914.34	16059
914.453	15857
914.566	16071
914.68	15781
914.793	15869
914.906	15587
915.019	15591
915.132	15500
915.245	15542
915.358	15618
915.47	15557
915.583	15622
915.696	15584
915.809	15682
915.921	15717
916.034	15466
916.146	15526
916.259	15443
916.371	15606
916.483	15530
916.595	15458
916.708	15454
916.82	15447
916.932	15466
917.044	15374
917.156	15340
917.268	15237
917.38	15275
917.491	15169
917.603	15173
917.715	15256
917.826	15329
917.938	15233
918.049	15089
918.161	15264
918.272	15393
918.384	15283
918.495	15180
918.606	14979
918.717	14895
918.828	14986
918.939	15009
919.05	14887
919.161	14937
919.272	14739
919.383	14864
919.494	15013
919.604	15157
919.715	14998
919.826	14834
919.936	14906
920.047	15051
920.157	15028
920.267	15081
920.378	14929
920.488	14777
920.598	15058
920.708	15127
920.818	14990
920.928	15112
921.038	15245
921.148	15138
921.258	14830
921.368	14773
921.477	14655
921.587	14667
921.697	14473
921.806	14682
921.916	14518
922.025	14415
922.134	14282
922.244	14199
922.353	14370
922.462	14153
922.571	14183
922.68	13959
922.789	13879
922.898	14062
923.007	13860
923.116	13909
923.224	13928
923.333	13898
923.442	13780
923.55	13704
923.659	13772
923.767	13807
923.876	13734
923.984	13761
924.092	13666
924.201	13761
924.309	13757
924.417	13666
924.525	13556
924.633	13578
924.741	14484
924.849	13445
924.956	13495
925.064	13365
925.172	13183
925.279	13335
925.387	13384
925.494	13301
925.602	13324
925.709	13354
925.816	13247
925.924	13259
926.031	13266
926.138	13225
926.245	13244
926.352	13023
926.459	13228
926.566	13377
926.673	13187
926.779	13061
926.886	13088
926.993	13023
927.099	12920
927.206	12856
927.312	12730
927.419	12920
927.525	12875
927.631	12867
927.737	12798
927.843	12669
927.95	12673
928.056	12749
928.162	12707
928.267	12753
928.373	13308
928.479	12749
928.585	12559
928.69	12642
928.796	12726
928.901	12540
929.007	12338
929.112	12570
929.218	12517
929.323	12479
929.428	12422
929.533	12646
929.638	12395
929.743	12407
929.848	12350
929.953	12380
930.058	12304
930.163	12095
930.267	12186
930.372	12216
930.477	12091
930.581	12281
930.685	12175
930.79	11992
930.894	11958
930.998	11931
931.103	12110
931.207	11764
931.311	11623
931.415	11665
931.519	11398
931.623	11299
