Data from test_V78500241_2396.txt Node
Date: Fri Mar 25 15:58:23 CST 2022
User: usil
Spectrometer: V785-0024
Trigger mode: 0
Integration Time (sec): 4.000000E-1
Scans to average: 1
Nonlinearity correction enabled: false
Boxcar width: 0
Storing dark spectrum: false
XAxis mode: Wavelengths
Number of Pixels in Spectrum: 1024
>>>>>Begin Spectral Data<<<<<
801.071	28881
801.214	28862
801.356	28512
801.499	28440
801.641	28371
801.783	28337
801.926	28379
802.068	28398
802.211	28424
802.353	28352
802.496	28097
802.638	28074
802.78	28032
802.923	28006
803.065	27949
803.208	27968
803.35	28188
803.492	28173
803.635	28363
803.777	28036
803.919	28299
804.061	28603
804.204	28390
804.346	28158
804.488	28204
804.63	28363
804.773	28204
804.915	28440
805.057	28394
805.199	28211
805.341	28478
805.483	28474
805.626	28531
805.768	28485
805.91	28531
806.052	28569
806.194	28375
806.336	28683
806.478	28542
806.62	28379
806.762	28656
806.904	28683
807.046	29022
807.188	28858
807.33	28904
807.472	29098
807.614	28767
807.756	28980
807.898	28877
808.04	28713
808.182	28713
808.324	28752
808.465	28847
808.607	28965
808.749	29200
808.891	29174
809.033	29414
809.174	29204
809.316	29178
809.458	29242
809.6	29151
809.741	29330
809.883	29349
810.025	29482
810.166	29417
810.308	29570
810.45	29391
810.591	29334
810.733	29322
810.875	29220
811.016	29155
811.158	29025
811.299	29193
811.441	29337
811.582	29353
811.724	29208
811.865	29136
812.007	29098
812.148	29102
812.29	29414
812.431	29410
812.573	29425
812.714	29577
812.855	29581
812.997	29699
813.138	29832
813.279	29786
813.421	29684
813.562	29714
813.703	29433
813.845	29490
813.986	29121
814.127	28984
814.268	28934
814.41	28938
814.551	28881
814.692	28934
814.833	28809
814.974	28831
815.115	28888
815.256	28698
815.397	28866
815.539	28759
815.68	28615
815.821	28675
815.962	28831
816.103	28733
816.244	28615
816.385	28462
816.526	28603
816.666	28421
816.807	28211
816.948	28363
817.089	28147
817.23	28173
817.371	28086
817.512	28207
817.653	28109
817.793	28166
817.934	28261
818.075	28204
818.216	28299
818.356	28120
818.497	28166
818.638	27972
818.778	27922
818.919	27968
819.06	28051
819.2	28147
819.341	28105
819.481	28242
819.622	28386
819.762	28493
819.903	28421
820.043	28432
820.184	28303
820.324	28291
820.465	28474
820.605	28268
820.746	28344
820.886	28120
821.026	28337
821.167	28249
821.307	28474
821.447	28303
821.588	28211
821.728	28090
821.868	27979
822.008	27785
822.149	27747
822.289	27701
822.429	27397
822.569	27348
822.709	27439
822.849	27332
822.99	27294
823.13	27150
823.27	27176
823.41	26940
823.55	26891
823.69	27135
823.83	26868
823.97	26811
824.11	26815
824.25	26849
824.389	26914
824.529	26830
824.669	26804
824.809	26982
824.949	26921
825.089	26842
825.228	26887
825.368	26788
825.508	26800
825.648	26594
825.787	26758
825.927	26769
826.067	26678
826.206	26712
826.346	26727
826.485	26708
826.625	26826
826.765	26765
826.904	26769
827.044	26606
827.183	26457
827.323	26419
827.462	26549
827.601	26328
827.741	26457
827.88	26556
828.02	26278
828.159	26351
828.298	26434
828.437	26461
828.577	26358
828.716	26507
828.855	26313
828.994	26225
829.134	26172
829.273	26187
829.412	26024
829.551	26065
829.69	26240
829.829	26126
829.968	26119
830.107	26111
830.246	26142
830.385	26103
830.524	26088
830.663	26020
830.802	25841
830.941	25674
831.08	25849
831.219	25811
831.357	25845
831.496	26035
831.635	25769
831.774	25655
831.913	25620
832.051	25613
832.19	25373
832.329	25502
832.467	25487
832.606	25244
832.744	25247
832.883	25403
833.022	25301
833.16	25430
833.299	25499
833.437	25396
833.576	25377
833.714	25464
833.852	25415
833.991	25533
834.129	25655
834.267	25571
834.406	25426
834.544	25438
834.682	25521
834.821	25407
834.959	25613
835.097	25502
835.235	25392
835.373	25548
835.511	25445
835.65	25285
835.788	25400
835.926	25160
836.064	25091
836.202	25091
836.34	25285
836.478	25438
836.615	25228
836.753	25175
836.891	25312
837.029	25221
837.167	25285
837.305	25335
837.443	25164
837.58	24970
837.718	25308
837.856	25046
837.993	25110
838.131	25103
838.269	24943
838.406	25046
838.544	24992
838.681	24817
838.819	24757
838.956	24681
839.094	24566
839.231	24703
839.369	24700
839.506	24905
839.643	24837
839.781	24585
839.918	24498
840.055	24578
840.193	24494
840.33	24422
840.467	24445
840.604	24437
840.742	24730
840.879	24334
841.016	24521
841.153	24327
841.29	24559
841.427	24601
841.564	24536
841.701	24403
841.838	24357
841.975	24395
842.112	24483
842.249	24235
842.385	24281
842.522	24513
842.659	24182
842.796	24330
842.933	24224
843.069	24102
843.206	24003
843.343	24262
843.479	24224
843.616	24209
843.752	24060
843.889	24091
844.025	24148
844.162	23927
844.298	24102
844.435	23935
844.571	24026
844.708	23908
844.844	24205
844.98	24148
845.117	24140
845.253	24091
845.389	23790
845.525	23992
845.661	23764
845.798	23767
845.934	23805
846.07	23870
846.206	23695
846.342	23821
846.478	23707
846.614	23376
846.75	23383
846.886	23398
847.022	23501
847.158	23440
847.294	23406
847.429	23467
847.565	23520
847.701	23604
847.837	23250
847.972	23083
848.108	23277
848.244	23231
848.379	23052
848.515	23003
848.65	22934
848.786	22991
848.921	23079
849.057	23143
849.192	23094
849.328	23250
849.463	23067
849.598	23025
849.734	22980
849.869	22778
850.004	22843
850.14	22752
850.275	22885
850.41	22740
850.545	22809
850.68	22687
850.815	22949
850.95	22786
851.085	22991
851.22	23018
851.355	22717
851.49	22713
851.625	22778
851.76	22778
851.895	22752
852.03	22809
852.165	22816
852.299	22744
852.434	23003
852.569	22976
852.703	22736
852.838	23010
852.973	22923
853.107	22987
853.242	22763
853.376	22672
853.511	22546
853.645	22538
853.78	22748
853.914	22683
854.048	22694
854.183	22736
854.317	22740
854.451	22664
854.585	22584
854.72	22763
854.854	22660
854.988	22557
855.122	22656
855.256	22668
855.39	22493
855.524	22831
855.658	22660
855.792	22599
855.926	22698
856.06	22675
856.194	22694
856.327	22580
856.461	22611
856.595	22615
856.729	22653
856.862	22713
856.996	22519
857.13	22805
857.263	22752
857.397	22706
857.53	22767
857.664	22656
857.797	22702
857.931	22778
858.064	22569
858.197	22710
858.331	22588
858.464	22535
858.597	22436
858.731	22512
858.864	22569
858.997	22573
859.13	22649
859.263	22649
859.396	22672
859.529	22561
859.662	22645
859.795	22538
859.928	22637
860.061	22710
860.194	22812
860.327	22748
860.46	22649
860.592	22748
860.725	22809
860.858	22778
860.99	22683
861.123	22546
861.256	22637
861.388	22607
861.521	23326
861.653	22519
861.786	22493
861.918	22504
862.05	22447
862.183	22626
862.315	22653
862.447	22679
862.58	22603
862.712	22375
862.844	22215
862.976	22341
863.108	22428
863.24	22767
863.372	22379
863.504	22306
863.636	22341
863.768	22421
863.9	22375
864.032	22284
864.164	22379
864.296	22451
864.428	22360
864.559	22478
864.691	22470
864.823	22352
864.954	22284
865.086	22249
865.217	22257
865.349	22090
865.48	22230
865.612	22257
865.743	22322
865.875	22192
866.006	22291
866.137	22177
866.269	22166
866.4	22185
866.531	22090
866.662	22040
866.793	22242
866.924	22150
867.055	22226
867.186	22188
867.317	22010
867.448	22055
867.579	22116
867.71	22074
867.841	22070
867.972	22128
868.103	22044
868.233	22139
868.364	22067
868.495	22169
868.625	22352
868.756	22462
868.886	22299
869.017	22314
869.147	22512
869.278	22512
869.408	22398
869.539	22432
869.669	22523
869.799	22379
869.929	22440
870.06	22409
870.19	22626
870.32	22691
870.45	22694
870.58	22805
870.71	22896
870.84	22976
870.97	22805
871.1	22831
871.23	23044
871.36	23010
871.489	22930
871.619	22915
871.749	22866
871.879	23010
872.008	23094
872.138	22987
872.267	22984
872.397	22980
872.526	22885
872.656	22915
872.785	22786
872.915	23071
873.044	23064
873.173	23006
873.303	22946
873.432	23018
873.561	23220
873.69	22908
873.819	23025
873.948	23090
874.077	22972
874.206	23147
874.335	23060
874.464	23170
874.593	23147
874.722	23223
874.851	23189
874.979	23227
875.108	23258
875.237	23037
875.365	23094
875.494	23197
875.623	23227
875.751	23273
875.88	23212
876.008	23471
876.136	23440
876.265	23668
876.393	23699
876.521	23760
876.65	23604
876.778	23661
876.906	23619
877.034	23520
877.162	23653
877.29	23551
877.418	23501
877.546	23604
877.674	23528
877.802	23665
877.93	23554
878.058	23501
878.185	23482
878.313	23425
878.441	23452
878.568	23398
878.696	23448
878.824	23566
878.951	23741
879.079	23611
879.206	23828
879.333	23665
879.461	23573
879.588	23676
879.715	23745
879.842	23752
879.97	23653
880.097	23364
880.224	23455
880.351	23433
880.478	23341
880.605	23356
880.732	23421
880.859	23570
880.986	23269
881.112	23402
881.239	23250
881.366	23098
881.493	23010
881.619	22999
881.746	22999
881.872	22995
881.999	22911
882.125	22889
882.252	22999
882.378	22889
882.505	22904
882.631	22656
882.757	22557
882.883	22713
883.01	22531
883.136	22413
883.262	22459
883.388	22371
883.514	22577
883.64	22542
883.766	22512
883.892	22375
884.018	22348
884.143	22584
884.269	22706
884.395	22325
884.52	22219
884.646	22253
884.772	22116
884.897	22204
885.023	22238
885.148	22306
885.274	22333
885.399	22413
885.524	22139
885.65	22131
885.775	22306
885.9	22166
886.025	22268
886.15	22322
886.275	22219
886.4	22154
886.525	22086
886.65	22135
886.775	22219
886.9	22352
887.025	22428
887.149	22211
887.274	22070
887.399	21861
887.523	21907
887.648	21899
887.773	21880
887.897	21960
888.021	21956
888.146	21816
888.27	22017
888.395	21994
888.519	21960
888.643	22002
888.767	21926
888.891	21918
889.015	21778
889.139	21835
889.263	21812
889.387	21835
889.511	21991
889.635	21899
889.759	21694
889.883	21671
890.006	21739
890.13	21781
890.254	21656
890.377	21652
890.501	21606
890.624	21530
890.748	21625
890.871	21370
890.995	21241
891.118	21256
891.241	21374
891.364	21336
891.488	21378
891.611	21283
891.734	21310
891.857	21321
891.98	21340
892.103	21344
892.226	21264
892.349	21256
892.471	21127
892.594	21195
892.717	21272
892.839	21203
892.962	21195
893.085	21294
893.207	21348
893.33	21058
893.452	21184
893.575	21214
893.697	21256
893.819	21348
893.941	21485
894.064	21348
894.186	21157
894.308	21135
894.43	21294
894.552	21279
894.674	21218
894.796	21089
894.918	21192
895.04	21275
895.161	21207
895.283	21142
895.405	21074
895.526	21161
895.648	21112
895.769	21291
895.891	21127
896.012	21283
896.134	21264
896.255	21264
896.376	21119
896.498	21192
896.619	21218
896.74	21207
896.861	21173
896.982	21545
897.103	21679
897.224	21435
897.345	21386
897.466	21256
897.587	21431
897.708	21572
897.828	21382
897.949	21386
898.07	21112
898.19	21393
898.311	21477
898.431	21344
898.552	21355
898.672	21466
898.792	21507
898.913	21397
899.033	21291
899.153	21192
899.273	21096
899.393	21131
899.513	21230
899.633	21074
899.753	21157
899.873	21051
899.993	21123
900.113	21093
900.232	21127
900.352	21161
900.472	21009
900.591	20815
900.711	20868
900.83	20826
900.95	20982
901.069	20986
901.189	20826
901.308	20526
901.427	20415
901.546	20434
901.665	20465
901.784	20438
901.904	20271
902.023	20199
902.141	19997
902.26	20039
902.379	20054
902.498	19940
902.617	19890
902.735	19955
902.854	19906
902.973	19925
903.091	19655
903.21	19518
903.328	19635
903.446	19552
903.565	19358
903.683	19301
903.801	19297
903.919	19384
904.038	19358
904.156	19126
904.274	19240
904.392	19183
904.51	19213
904.627	19084
904.745	19156
904.863	19190
904.981	18996
905.098	18798
905.216	18951
905.334	18894
905.451	18920
905.569	18848
905.686	18837
905.803	18863
905.921	18566
906.038	18730
906.155	18658
906.272	18475
906.389	18627
906.506	18460
906.623	18357
906.74	18361
906.857	18258
906.974	18239
907.091	18429
907.208	18464
907.324	18327
907.441	18273
907.557	18076
907.674	18019
907.79	17961
907.907	17958
908.023	18011
908.139	18038
908.256	17973
908.372	17908
908.488	17828
908.604	17794
908.72	17809
908.836	17828
908.952	17653
909.068	17767
909.184	17935
909.3	17809
909.415	17824
909.531	17665
909.647	17535
909.762	17459
909.878	17512
909.993	17562
910.108	17505
910.224	17410
910.339	17516
910.454	17273
910.57	17273
910.685	17220
910.8	17391
910.915	17372
911.03	17212
911.145	17052
911.259	16972
911.374	16953
911.489	16885
911.604	16919
911.718	16706
911.833	16812
911.947	16618
912.062	16599
912.176	16858
912.291	16729
912.405	16816
912.519	16995
912.633	16862
912.748	16748
912.862	16759
912.976	16672
913.09	16451
913.204	16565
913.318	16538
913.431	16664
913.545	16618
913.659	16611
913.772	16512
913.886	16462
914	16382
914.113	16516
914.226	16462
914.34	16516
914.453	16219
914.566	16451
914.68	16360
914.793	16154
914.906	16036
915.019	15960
915.132	15846
915.245	15892
915.358	15956
915.47	15991
915.583	15922
915.696	15819
915.809	16036
915.921	16078
916.034	15934
916.146	15892
916.259	15732
916.371	15873
916.483	15922
916.595	15743
916.708	15808
916.82	15755
916.932	15698
917.044	15679
917.156	15622
917.268	15618
917.38	15572
917.491	15553
917.603	15739
917.715	15652
917.826	15614
917.938	15447
918.049	15405
918.161	15511
918.272	15515
918.384	15694
918.495	15633
918.606	15233
918.717	15306
918.828	15245
918.939	15321
919.05	15268
919.161	15218
919.272	15097
919.383	15142
919.494	15291
919.604	15469
919.715	15359
919.826	15150
919.936	15142
920.047	15439
920.157	15291
920.267	15481
920.378	15252
920.488	15306
920.598	15348
920.708	15675
920.818	15363
920.928	15477
921.038	15500
921.148	15511
921.258	15329
921.368	15058
921.477	15024
921.587	14887
921.697	14849
921.806	14998
921.916	14853
922.025	14648
922.134	14648
922.244	14488
922.353	14667
922.462	14495
922.571	14454
922.68	14275
922.789	14183
922.898	14271
923.007	14168
923.116	14225
923.224	14237
923.333	14134
923.442	14168
923.55	14043
923.659	14050
923.767	14107
923.876	13959
923.984	14119
924.092	13959
924.201	14012
924.309	13913
924.417	13906
924.525	13864
924.633	13883
924.741	14876
924.849	13693
924.956	13871
925.064	13757
925.172	13651
925.279	13693
925.387	13685
925.494	13624
925.602	13723
925.709	13700
925.816	13563
925.924	13609
926.031	13719
926.138	13537
926.245	13666
926.352	13460
926.459	13518
926.566	13575
926.673	13441
926.779	13392
926.886	13308
926.993	13274
927.099	13225
927.206	13069
927.312	13080
927.419	13194
927.525	13088
927.631	13145
927.737	13095
927.843	13031
927.95	12890
928.056	13015
928.162	13008
928.267	13118
928.373	13597
928.479	13107
928.585	12757
928.69	12871
928.796	12947
928.901	12852
929.007	12715
929.112	12802
929.218	12840
929.323	12688
929.428	12753
929.533	12806
929.638	12597
929.743	12623
929.848	12620
929.953	12639
930.058	12509
930.163	12395
930.267	12346
930.372	12467
930.477	12323
930.581	12566
930.685	12403
930.79	12289
930.894	12273
930.998	12254
931.103	12338
931.207	11977
931.311	11885
931.415	11794
931.519	11581
931.623	11566
