Data from test_V78500241_2317.txt Node
Date: Fri Mar 25 15:57:51 CST 2022
User: usil
Spectrometer: V785-0024
Trigger mode: 0
Integration Time (sec): 4.000000E-1
Scans to average: 1
Nonlinearity correction enabled: false
Boxcar width: 0
Storing dark spectrum: false
XAxis mode: Wavelengths
Number of Pixels in Spectrum: 1024
>>>>>Begin Spectral Data<<<<<
801.071	28835
801.214	28771
801.356	28615
801.499	28569
801.641	28519
801.783	28409
801.926	28325
802.068	28398
802.211	28413
802.353	28272
802.496	28120
802.638	28074
802.78	28093
802.923	27983
803.065	28048
803.208	27922
803.35	28036
803.492	28143
803.635	28238
803.777	28143
803.919	28196
804.061	28725
804.204	28390
804.346	28322
804.488	28333
804.63	28341
804.773	28219
804.915	28405
805.057	28455
805.199	28299
805.341	28451
805.483	28436
805.626	28379
805.768	28299
805.91	28451
806.052	28504
806.194	28474
806.336	28535
806.478	28485
806.62	28500
806.762	28831
806.904	28949
807.046	29094
807.188	28991
807.33	28919
807.472	29109
807.614	29014
807.756	28949
807.898	28698
808.04	28675
808.182	28759
808.324	28801
808.465	28892
808.607	29083
808.749	29197
808.891	29208
809.033	29284
809.174	29349
809.316	29128
809.458	29189
809.6	29113
809.741	29360
809.883	29341
810.025	29490
810.166	29558
810.308	29512
810.45	29436
810.591	29459
810.733	29265
810.875	29250
811.016	29208
811.158	29200
811.299	29227
811.441	29372
811.582	29375
811.724	29193
811.865	29181
812.007	29109
812.148	29140
812.29	29246
812.431	29398
812.573	29509
812.714	29562
812.855	29718
812.997	29790
813.138	29927
813.279	29862
813.421	29646
813.562	29680
813.703	29600
813.845	29501
813.986	29265
814.127	28968
814.268	28961
814.41	29025
814.551	28915
814.692	28965
814.833	28850
814.974	28942
815.115	29052
815.256	28866
815.397	28717
815.539	28900
815.68	28710
815.821	28748
815.962	28713
816.103	28660
816.244	28683
816.385	28557
816.526	28516
816.666	28314
816.807	28238
816.948	28299
817.089	28401
817.23	28314
817.371	28211
817.512	28105
817.653	28337
817.793	28169
817.934	28246
818.075	28276
818.216	28230
818.356	28322
818.497	28070
818.638	28021
818.778	28166
818.919	28082
819.06	28010
819.2	28067
819.341	28329
819.481	28329
819.622	28261
819.762	28588
819.903	28459
820.043	28596
820.184	28401
820.324	28436
820.465	28538
820.605	28325
820.746	28413
820.886	28150
821.026	28367
821.167	28215
821.307	28493
821.447	28363
821.588	28249
821.728	27975
821.868	27793
822.008	27838
822.149	27759
822.289	27728
822.429	27397
822.569	27450
822.709	27401
822.849	27214
822.99	27374
823.13	27157
823.27	27241
823.41	27058
823.55	26986
823.69	27089
823.83	27176
823.97	27146
824.11	26800
824.25	26887
824.389	26899
824.529	26971
824.669	26948
824.809	26998
824.949	26906
825.089	26925
825.228	26963
825.368	26746
825.508	26792
825.648	26830
825.787	26872
825.927	26887
826.067	26811
826.206	26765
826.346	26864
826.485	26819
826.625	26678
826.765	26948
826.904	26910
827.044	26568
827.183	26514
827.323	26488
827.462	26476
827.601	26568
827.741	26522
827.88	26526
828.02	26366
828.159	26438
828.298	26453
828.437	26590
828.577	26278
828.716	26507
828.855	26476
828.994	26233
829.134	26202
829.273	26248
829.412	26176
829.551	26145
829.69	26244
829.829	26294
829.968	26282
830.107	26377
830.246	26286
830.385	26145
830.524	26092
830.663	26016
830.802	26016
830.941	25807
831.08	25727
831.219	25833
831.357	25974
831.496	26237
831.635	25818
831.774	25620
831.913	25765
832.051	25605
832.19	25502
832.329	25575
832.467	25479
832.606	25377
832.744	25533
832.883	25514
833.022	25350
833.16	25422
833.299	25449
833.437	25575
833.576	25586
833.714	25601
833.852	25582
833.991	25506
834.129	25708
834.267	25715
834.406	25499
834.544	25510
834.682	25567
834.821	25422
834.959	25757
835.097	25483
835.235	25518
835.373	25571
835.511	25502
835.65	25282
835.788	25411
835.926	25324
836.064	25213
836.202	25285
836.34	25274
836.478	25510
836.615	25400
836.753	25335
836.891	25441
837.029	25434
837.167	25411
837.305	25289
837.443	25122
837.58	25289
837.718	25263
837.856	25209
837.993	25141
838.131	25187
838.269	24970
838.406	25141
838.544	25027
838.681	24867
838.819	24783
838.956	24734
839.094	24635
839.231	24661
839.369	24928
839.506	25000
839.643	24909
839.781	24707
839.918	24498
840.055	24570
840.193	24563
840.33	24616
840.467	24574
840.604	24528
840.742	24875
840.879	24300
841.016	24597
841.153	24323
841.29	24544
841.427	24574
841.564	24490
841.701	24509
841.838	24509
841.975	24517
842.112	24532
842.249	24418
842.385	24300
842.522	24479
842.659	24350
842.796	24296
842.933	24372
843.069	24357
843.206	24209
843.343	24239
843.479	24380
843.616	24273
843.752	24159
843.889	24235
844.025	24247
844.162	24022
844.298	24011
844.435	24159
844.571	24030
844.708	23946
844.844	24296
844.98	24144
845.117	24174
845.253	23946
845.389	23958
845.525	23965
845.661	23984
845.798	23748
845.934	23836
846.07	23836
846.206	23680
846.342	23923
846.478	23722
846.614	23592
846.75	23474
846.886	23638
847.022	23558
847.158	23592
847.294	23551
847.429	23543
847.565	23516
847.701	23745
847.837	23235
847.972	23208
848.108	23368
848.244	23197
848.379	23170
848.515	23136
848.65	23109
848.786	22976
848.921	23231
849.057	23345
849.192	23250
849.328	23174
849.463	23159
849.598	23204
849.734	23025
849.869	23025
850.004	22900
850.14	22904
850.275	23022
850.41	22771
850.545	22885
850.68	22843
850.815	22831
850.95	22919
851.085	22980
851.22	22946
851.355	22904
851.49	22938
851.625	22782
851.76	22702
851.895	22889
852.03	22831
852.165	22904
852.299	22889
852.434	22938
852.569	23003
852.703	22752
852.838	23006
852.973	22987
853.107	22953
853.242	22797
853.376	22778
853.511	22630
853.645	22630
853.78	22839
853.914	22691
854.048	22664
854.183	22683
854.317	22748
854.451	22721
854.585	22683
854.72	22679
854.854	22816
854.988	22721
855.122	22710
855.256	22607
855.39	22675
855.524	22717
855.658	22805
855.792	22759
855.926	22698
856.06	22733
856.194	22790
856.327	22740
856.461	22717
856.595	22481
856.729	22622
856.862	22968
856.996	22687
857.13	22725
857.263	22778
857.397	22774
857.53	22736
857.664	22755
857.797	22763
857.931	22717
858.064	22645
858.197	22805
858.331	22778
858.464	22645
858.597	22550
858.731	22653
858.864	22592
858.997	22630
859.13	22599
859.263	22759
859.396	22729
859.529	22725
859.662	22710
859.795	22577
859.928	22755
860.061	22881
860.194	22869
860.327	22729
860.46	22577
860.592	22706
860.725	22995
860.858	22881
860.99	22645
861.123	22630
861.256	22729
861.388	22706
861.521	23444
861.653	22436
861.786	22523
861.918	22531
862.05	22569
862.183	22588
862.315	22577
862.447	22607
862.58	22504
862.712	22421
862.844	22204
862.976	22512
863.108	22417
863.24	22885
863.372	22375
863.504	22402
863.636	22424
863.768	22409
863.9	22481
864.032	22352
864.164	22295
864.296	22371
864.428	22607
864.559	22535
864.691	22390
864.823	22398
864.954	22443
865.086	22390
865.217	22322
865.349	22181
865.48	22287
865.612	22200
865.743	22337
865.875	22223
866.006	22150
866.137	22333
866.269	22215
866.4	22242
866.531	22219
866.662	22150
866.793	22192
866.924	22181
867.055	22310
867.186	22230
867.317	22166
867.448	22070
867.579	22287
867.71	22105
867.841	22120
867.972	22181
868.103	22147
868.233	22257
868.364	22284
868.495	22177
868.625	22424
868.756	22565
868.886	22337
869.017	22356
869.147	22527
869.278	22500
869.408	22516
869.539	22459
869.669	22500
869.799	22413
869.929	22519
870.06	22535
870.19	22759
870.32	22767
870.45	22679
870.58	22702
870.71	22946
870.84	22927
870.97	22869
871.1	22774
871.23	22991
871.36	22980
871.489	22900
871.619	23033
871.749	22949
871.879	22957
872.008	23124
872.138	22972
872.267	22930
872.397	22900
872.526	22835
872.656	23056
872.785	22869
872.915	23181
873.044	23193
873.173	23037
873.303	23185
873.432	23189
873.561	23083
873.69	23067
873.819	23048
873.948	23174
874.077	23029
874.206	22927
874.335	22942
874.464	23223
874.593	23284
874.722	23200
874.851	23277
874.979	23280
875.108	23212
875.237	23117
875.365	23117
875.494	23223
875.623	23318
875.751	23185
875.88	23261
876.008	23341
876.136	23372
876.265	23722
876.393	23756
876.521	23699
876.65	23733
876.778	23771
876.906	23531
877.034	23551
877.162	23547
877.29	23490
877.418	23573
877.546	23604
877.674	23604
877.802	23528
877.93	23684
878.058	23535
878.185	23402
878.313	23611
878.441	23558
878.568	23402
878.696	23528
878.824	23699
878.951	23767
879.079	23733
879.206	23874
879.333	23726
879.461	23592
879.588	23642
879.715	23783
879.842	23764
879.97	23703
880.097	23531
880.224	23387
880.351	23566
880.478	23429
880.605	23402
880.732	23429
880.859	23589
880.986	23406
881.112	23539
881.239	23208
881.366	23208
881.493	23121
881.619	22957
881.746	23143
881.872	22965
881.999	23003
882.125	22816
882.252	22987
882.378	23010
882.505	23060
882.631	22885
882.757	22634
882.883	22717
883.01	22672
883.136	22512
883.262	22478
883.388	22432
883.514	22694
883.64	22649
883.766	22569
883.892	22348
884.018	22363
884.143	22554
884.269	22702
884.395	22261
884.52	22207
884.646	22325
884.772	22246
884.897	22032
885.023	22303
885.148	22405
885.274	22402
885.399	22280
885.524	22215
885.65	22295
885.775	22299
885.9	22295
886.025	22329
886.15	22280
886.275	22265
886.4	22124
886.525	22105
886.65	22261
886.775	22169
886.9	22299
887.025	22428
887.149	22223
887.274	22017
887.399	21949
887.523	21998
887.648	21926
887.773	21991
887.897	22063
888.021	22090
888.146	22002
888.27	22166
888.395	22109
888.519	22055
888.643	22143
888.767	22063
888.891	21926
889.015	21823
889.139	21835
889.263	21888
889.387	21941
889.511	22120
889.635	21793
889.759	21869
889.883	21713
890.006	21854
890.13	21785
890.254	21629
890.377	21656
890.501	21545
890.624	21450
890.748	21504
890.871	21507
890.995	21321
891.118	21298
891.241	21275
891.364	21283
891.488	21389
891.611	21393
891.734	21355
891.857	21321
891.98	21401
892.103	21302
892.226	21416
892.349	21249
892.471	21154
892.594	21340
892.717	21279
892.839	21222
892.962	21222
893.085	21351
893.207	21199
893.33	21157
893.452	21173
893.575	21348
893.697	21275
893.819	21405
893.941	21515
894.064	21382
894.186	21195
894.308	21173
894.43	21317
894.552	21241
894.674	21268
894.796	21146
894.918	21131
895.04	21161
895.161	21287
895.283	21272
895.405	21138
895.526	21237
895.648	21180
895.769	21351
895.891	21138
896.012	21370
896.134	21279
896.255	21146
896.376	21245
896.498	21127
896.619	21230
896.74	21127
896.861	21245
896.982	21500
897.103	21682
897.224	21568
897.345	21287
897.466	21332
897.587	21458
897.708	21549
897.828	21408
897.949	21329
898.07	21275
898.19	21401
898.311	21439
898.431	21329
898.552	21473
898.672	21580
898.792	21530
898.913	21431
899.033	21298
899.153	21066
899.273	21062
899.393	21157
899.513	21207
899.633	21131
899.753	21138
899.873	21077
899.993	21161
900.113	21093
900.232	20967
900.352	20979
900.472	20941
900.591	20937
900.711	20849
900.83	20857
900.95	20914
901.069	21077
901.189	20682
901.308	20617
901.427	20495
901.546	20518
901.665	20556
901.784	20545
901.904	20461
902.023	20191
902.141	20096
902.26	19970
902.379	20096
902.498	19970
902.617	19974
902.735	20031
902.854	19940
902.973	19868
903.091	19643
903.21	19597
903.328	19647
903.446	19460
903.565	19415
903.683	19594
903.801	19316
903.919	19373
904.038	19350
904.156	19282
904.274	19270
904.392	19209
904.51	19091
904.627	19270
904.745	19274
904.863	19103
904.981	19008
905.098	18825
905.216	18833
905.334	18913
905.451	18817
905.569	18871
905.686	18886
905.803	18806
905.921	18635
906.038	18757
906.155	18707
906.272	18593
906.389	18544
906.506	18433
906.623	18384
906.74	18308
906.857	18243
906.974	18270
907.091	18334
907.208	18544
907.324	18388
907.441	18315
907.557	18064
907.674	18030
907.79	18064
907.907	18140
908.023	18133
908.139	18045
908.256	18007
908.372	17908
908.488	17996
908.604	17889
908.72	17752
908.836	17828
908.952	17790
909.068	17824
909.184	17828
909.3	17779
909.415	17912
909.531	17802
909.647	17532
909.762	17452
909.878	17414
909.993	17455
910.108	17520
910.224	17387
910.339	17463
910.454	17341
910.57	17235
910.685	17334
910.8	17421
910.915	17452
911.03	17269
911.145	17029
911.259	17105
911.374	17060
911.489	17048
911.604	16904
911.718	16748
911.833	16797
911.947	16622
912.062	16729
912.176	16778
912.291	16869
912.405	16752
912.519	17037
912.633	16915
912.748	16740
912.862	16774
912.976	16675
913.09	16470
913.204	16554
913.318	16573
913.431	16710
913.545	16736
913.659	16672
913.772	16599
913.886	16462
914	16382
914.113	16451
914.226	16546
914.34	16489
914.453	16329
914.566	16424
914.68	16268
914.793	16150
914.906	16112
915.019	16029
915.132	15949
915.245	15975
915.358	15983
915.47	16032
915.583	15987
915.696	16017
915.809	16105
915.921	16154
916.034	15911
916.146	15884
916.259	15934
916.371	15850
916.483	15926
916.595	15846
916.708	15739
916.82	15876
916.932	15720
917.044	15785
917.156	15797
917.268	15663
917.38	15637
917.491	15473
917.603	15523
917.715	15591
917.826	15614
917.938	15477
918.049	15492
918.161	15507
918.272	15686
918.384	15804
918.495	15439
918.606	15386
918.717	15237
918.828	15332
918.939	15359
919.05	15275
919.161	15351
919.272	15211
919.383	15184
919.494	15458
919.604	15549
919.715	15389
919.826	15237
919.936	15313
920.047	15405
920.157	15245
920.267	15450
920.378	15393
920.488	15306
920.598	15378
920.708	15599
920.818	15370
920.928	15340
921.038	15534
921.148	15557
921.258	15325
921.368	15142
921.477	15051
921.587	15001
921.697	14899
921.806	15028
921.916	14804
922.025	14617
922.134	14629
922.244	14667
922.353	14583
922.462	14454
922.571	14476
922.68	14347
922.789	14317
922.898	14294
923.007	14206
923.116	14282
923.224	14248
923.333	14199
923.442	14149
923.55	14073
923.659	14126
923.767	14134
923.876	13974
923.984	14115
924.092	14046
924.201	14081
924.309	13936
924.417	13894
924.525	13951
924.633	13928
924.741	14781
924.849	13807
924.956	13811
925.064	13696
925.172	13613
925.279	13674
925.387	13636
925.494	13693
925.602	13772
925.709	13616
925.816	13533
925.924	13544
926.031	13712
926.138	13662
926.245	13666
926.352	13415
926.459	13544
926.566	13616
926.673	13578
926.779	13396
926.886	13419
926.993	13202
927.099	13171
927.206	13122
927.312	13149
927.419	13206
927.525	13164
927.631	13171
927.737	13050
927.843	13031
927.95	12894
928.056	13004
928.162	12939
928.267	13023
928.373	13750
928.479	13103
928.585	12749
928.69	12878
928.796	12947
928.901	12856
929.007	12650
929.112	12837
929.218	12825
929.323	12741
929.428	12684
929.533	12821
929.638	12662
929.743	12582
929.848	12677
929.953	12604
930.058	12532
930.163	12376
930.267	12429
930.372	12509
930.477	12380
930.581	12555
930.685	12342
930.79	12178
930.894	12258
930.998	12216
931.103	12388
931.207	11999
931.311	11870
931.415	11805
931.519	11619
931.623	11524
