Data from test_V78500241_2643.txt Node
Date: Fri Mar 25 16:00:06 CST 2022
User: usil
Spectrometer: V785-0024
Trigger mode: 0
Integration Time (sec): 4.000000E-1
Scans to average: 1
Nonlinearity correction enabled: false
Boxcar width: 0
Storing dark spectrum: false
XAxis mode: Wavelengths
Number of Pixels in Spectrum: 1024
>>>>>Begin Spectral Data<<<<<
801.071	27637
801.214	27553
801.356	27351
801.499	27329
801.641	27264
801.783	27275
801.926	27096
802.068	27256
802.211	27146
802.353	27043
802.496	26880
802.638	26823
802.78	26883
802.923	26769
803.065	26796
803.208	26811
803.35	26948
803.492	26940
803.635	27100
803.777	27070
803.919	27142
804.061	27363
804.204	27214
804.346	27013
804.488	26887
804.63	26925
804.773	27013
804.915	27199
805.057	27275
805.199	26986
805.341	27043
805.483	27203
805.626	27116
805.768	27085
805.91	27260
806.052	27184
806.194	27138
806.336	27325
806.478	27104
806.62	27138
806.762	27412
806.904	27359
807.046	27564
807.188	27660
807.33	27557
807.472	27644
807.614	27477
807.756	27690
807.898	27462
808.04	27378
808.182	27408
808.324	27492
808.465	27523
808.607	27606
808.749	27781
808.891	27907
809.033	27945
809.174	27892
809.316	27785
809.458	27819
809.6	27827
809.741	27793
809.883	27983
810.025	28010
810.166	28051
810.308	28128
810.45	27979
810.591	28059
810.733	27686
810.875	27762
811.016	27641
811.158	27785
811.299	27762
811.441	27861
811.582	27987
811.724	27804
811.865	27698
812.007	27720
812.148	27793
812.29	27945
812.431	28021
812.573	28040
812.714	28131
812.855	28394
812.997	28299
813.138	28538
813.279	28428
813.421	28352
813.562	28200
813.703	28021
813.845	28090
813.986	27743
814.127	27580
814.268	27355
814.41	27443
814.551	27648
814.692	27523
814.833	27447
814.974	27325
815.115	27488
815.256	27169
815.397	27268
815.539	27332
815.68	27359
815.821	27192
815.962	27211
816.103	27351
816.244	27249
816.385	27051
816.526	27100
816.666	26796
816.807	26731
816.948	26845
817.089	26830
817.23	26762
817.371	26868
817.512	26777
817.653	26758
817.793	26632
817.934	26769
818.075	26731
818.216	26785
818.356	26693
818.497	26583
818.638	26480
818.778	26457
818.919	26541
819.06	26495
819.2	26644
819.341	26697
819.481	26632
819.622	27009
819.762	27184
819.903	26975
820.043	26906
820.184	26815
820.324	26807
820.465	26967
820.605	26906
820.746	26815
820.886	26659
821.026	26750
821.167	26712
821.307	26895
821.447	26731
821.588	26693
821.728	26431
821.868	26282
822.008	26309
822.149	26153
822.289	26161
822.429	25902
822.569	25894
822.709	25898
822.849	25670
822.99	25723
823.13	25647
823.27	25670
823.41	25594
823.55	25354
823.69	25422
823.83	25578
823.97	25468
824.11	25327
824.25	25415
824.389	25411
824.529	25301
824.669	25316
824.809	25403
824.949	25411
825.089	25430
825.228	25339
825.368	25107
825.508	25190
825.648	25209
825.787	25228
825.927	25324
826.067	25114
826.206	25156
826.346	25107
826.485	25232
826.625	25217
826.765	25209
826.904	25228
827.044	25008
827.183	25046
827.323	24897
827.462	24878
827.601	24859
827.741	24863
827.88	24924
828.02	24837
828.159	24947
828.298	24840
828.437	25133
828.577	24947
828.716	25031
828.855	24833
828.994	24544
829.134	24696
829.273	24738
829.412	24509
829.551	24422
829.69	24601
829.829	24589
829.968	24688
830.107	24639
830.246	24741
830.385	24570
830.524	24582
830.663	24403
830.802	24376
830.941	24239
831.08	24216
831.219	24201
831.357	24311
831.496	24475
831.635	24247
831.774	24140
831.913	24144
832.051	24072
832.19	23958
832.329	23901
832.467	23916
832.606	23859
832.744	23847
832.883	23885
833.022	23836
833.16	23836
833.299	23828
833.437	23954
833.576	24041
833.714	23901
833.852	23996
833.991	23965
834.129	24110
834.267	23893
834.406	23984
834.544	23965
834.682	23965
834.821	23965
834.959	24117
835.097	24045
835.235	23916
835.373	24034
835.511	24125
835.65	23802
835.788	23824
835.926	23847
836.064	23410
836.202	23649
836.34	23821
836.478	23824
836.615	23714
836.753	23870
836.891	23805
837.029	23665
837.167	23775
837.305	23703
837.443	23596
837.58	23581
837.718	23638
837.856	23665
837.993	23440
838.131	23535
838.269	23539
838.406	23425
838.544	23467
838.681	23185
838.819	23189
838.956	23143
839.094	23204
839.231	23239
839.369	23307
839.506	23505
839.643	23364
839.781	23254
839.918	23044
840.055	23060
840.193	23098
840.33	22942
840.467	23025
840.604	23041
840.742	23292
840.879	22877
841.016	22999
841.153	22942
841.29	23075
841.427	22877
841.564	23124
841.701	23033
841.838	22934
841.975	22816
842.112	22889
842.249	22831
842.385	22797
842.522	22953
842.659	22847
842.796	22691
842.933	22771
843.069	22694
843.206	22858
843.343	22835
843.479	22820
843.616	22755
843.752	22535
843.889	22466
844.025	22672
844.162	22546
844.298	22577
844.435	22417
844.571	22603
844.708	22527
844.844	22637
844.98	22717
845.117	22618
845.253	22577
845.389	22405
845.525	22447
845.661	22322
845.798	22352
845.934	22333
846.07	22329
846.206	22360
846.342	22474
846.478	22284
846.614	22105
846.75	21880
846.886	21968
847.022	22090
847.158	22078
847.294	22078
847.429	21907
847.565	21964
847.701	22169
847.837	21686
847.972	21717
848.108	21743
848.244	21831
848.379	21671
848.515	21663
848.65	21561
848.786	21580
848.921	21580
849.057	21675
849.192	21663
849.328	21572
849.463	21633
849.598	21488
849.734	21306
849.869	21424
850.004	21344
850.14	21378
850.275	21420
850.41	21329
850.545	21279
850.68	21325
850.815	21378
850.95	21458
851.085	21633
851.22	21644
851.355	21485
851.49	21420
851.625	21355
851.76	21302
851.895	21252
852.03	21279
852.165	21401
852.299	21428
852.434	21428
852.569	21462
852.703	21473
852.838	21454
852.973	21492
853.107	21473
853.242	21298
853.376	21291
853.511	20998
853.645	21108
853.78	21211
853.914	21116
854.048	21241
854.183	21161
854.317	21306
854.451	21507
854.585	21127
854.72	21192
854.854	21359
854.988	21131
855.122	21142
855.256	21096
855.39	21161
855.524	21355
855.658	21214
855.792	21218
855.926	21233
856.06	21317
856.194	21211
856.327	21245
856.461	21135
856.595	21142
856.729	21096
856.862	21344
856.996	21135
857.13	21252
857.263	21321
857.397	21252
857.53	21165
857.664	21363
857.797	21249
857.931	21294
858.064	21241
858.197	21245
858.331	21184
858.464	21062
858.597	21055
858.731	21013
858.864	21138
858.997	21154
859.13	21241
859.263	21214
859.396	21329
859.529	21180
859.662	21093
859.795	21154
859.928	21165
860.061	21237
860.194	21291
860.327	21264
860.46	21173
860.592	21317
860.725	21340
860.858	21389
860.99	21222
861.123	21096
861.256	21264
861.388	21268
861.521	21899
861.653	21154
861.786	21089
861.918	21032
862.05	21077
862.183	21116
862.315	21055
862.447	21256
862.58	21142
862.712	20765
862.844	20762
862.976	20895
863.108	20967
863.24	21237
863.372	20765
863.504	20982
863.636	20982
863.768	20899
863.9	20944
864.032	20914
864.164	20906
864.296	20929
864.428	20994
864.559	21024
864.691	21043
864.823	20857
864.954	20838
865.086	20864
865.217	20887
865.349	20788
865.48	20811
865.612	20819
865.743	20880
865.875	20807
866.006	20758
866.137	20746
866.269	20777
866.4	20910
866.531	20746
866.662	20823
866.793	20796
866.924	20872
867.055	20777
867.186	20724
867.317	20735
867.448	20606
867.579	20735
867.71	20571
867.841	20670
867.972	20686
868.103	20724
868.233	20746
868.364	20693
868.495	20743
868.625	20929
868.756	21039
868.886	20838
869.017	20937
869.147	21070
869.278	21066
869.408	21005
869.539	21039
869.669	21119
869.799	21184
869.929	21108
870.06	21116
870.19	21332
870.32	21325
870.45	21279
870.58	21416
870.71	21473
870.84	21553
870.97	21412
871.1	21450
871.23	21591
871.36	21686
871.489	21374
871.619	21572
871.749	21618
871.879	21568
872.008	21743
872.138	21591
872.267	21603
872.397	21447
872.526	21405
872.656	21393
872.785	21393
872.915	21625
873.044	21747
873.173	21618
873.303	21622
873.432	21633
873.561	21720
873.69	21648
873.819	21663
873.948	21667
874.077	21732
874.206	21549
874.335	21488
874.464	21705
874.593	21827
874.722	21819
874.851	21975
874.979	21911
875.108	21831
875.237	21739
875.365	21644
875.494	21797
875.623	21895
875.751	21751
875.88	21774
876.008	21926
876.136	22074
876.265	22200
876.393	22390
876.521	22329
876.65	22371
876.778	22188
876.906	22257
877.034	22086
877.162	22246
877.29	22143
877.418	22272
877.546	22185
877.674	22116
877.802	22150
877.93	22291
878.058	22154
878.185	22101
878.313	22040
878.441	22261
878.568	22090
878.696	22116
878.824	22291
878.951	22306
879.079	22360
879.206	22443
879.333	22382
879.461	22234
879.588	22303
879.715	22409
879.842	22504
879.97	22287
880.097	22112
880.224	22040
880.351	22025
880.478	22109
880.605	21846
880.732	22063
880.859	22215
880.986	22017
881.112	21987
881.239	21876
881.366	21762
881.493	21698
881.619	21454
881.746	21660
881.872	21553
881.999	21458
882.125	21530
882.252	21625
882.378	21576
882.505	21599
882.631	21485
882.757	21325
882.883	21355
883.01	21298
883.136	21222
883.262	21275
883.388	21138
883.514	21351
883.64	21374
883.766	21252
883.892	21127
884.018	21100
884.143	21344
884.269	21211
884.395	21020
884.52	21024
884.646	21062
884.772	20834
884.897	20834
885.023	20979
885.148	21039
885.274	21112
885.399	20937
885.524	20902
885.65	20918
885.775	20937
885.9	20876
886.025	20960
886.15	20918
886.275	21047
886.4	20708
886.525	21005
886.65	20876
886.775	20792
886.9	21036
887.025	21131
887.149	20967
887.274	20701
887.399	20743
887.523	20750
887.648	20587
887.773	20552
887.897	20670
888.021	20842
888.146	20693
888.27	20800
888.395	20765
888.519	20701
888.643	20743
888.767	20796
888.891	20579
889.015	20568
889.139	20629
889.263	20457
889.387	20526
889.511	20670
889.635	20636
889.759	20495
889.883	20423
890.006	20408
890.13	20636
890.254	20393
890.377	20412
890.501	20195
890.624	20229
890.748	20298
890.871	20233
890.995	20054
891.118	20005
891.241	20069
891.364	19993
891.488	20248
891.611	20126
891.734	20039
891.857	20065
891.98	19989
892.103	19989
892.226	20035
892.349	19944
892.471	19776
892.594	20065
892.717	19982
892.839	19997
892.962	20024
893.085	20092
893.207	19917
893.33	19928
893.452	19871
893.575	19951
893.697	19986
893.819	20210
893.941	20145
894.064	20259
894.186	20001
894.308	19811
894.43	20027
894.552	20100
894.674	20043
894.796	19936
894.918	19871
895.04	19917
895.161	20024
895.283	19928
895.405	19978
895.526	19856
895.648	20008
895.769	19925
895.891	19978
896.012	19989
896.134	20054
896.255	20103
896.376	19864
896.498	20046
896.619	19967
896.74	20012
896.861	19982
896.982	20221
897.103	20351
897.224	20256
897.345	20206
897.466	20138
897.587	20187
897.708	20362
897.828	20278
897.949	20111
898.07	19951
898.19	20271
898.311	20305
898.431	20142
898.552	20210
898.672	20305
898.792	20218
898.913	20305
899.033	20164
899.153	20035
899.273	20046
899.393	19936
899.513	20031
899.633	19925
899.753	20065
899.873	19906
899.993	19959
900.113	19947
900.232	20046
900.352	19894
900.472	19742
900.591	19742
900.711	19776
900.83	19647
900.95	19799
901.069	19788
901.189	19700
901.308	19453
901.427	19266
901.546	19400
901.665	19327
901.784	19343
901.904	19145
902.023	19088
902.141	18901
902.26	18973
902.379	18958
902.498	18814
902.617	18810
902.735	18875
902.854	18734
902.973	18787
903.091	18631
903.21	18490
903.328	18544
903.446	18448
903.565	18323
903.683	18327
903.801	18163
903.919	18342
904.038	18251
904.156	18068
904.274	18072
904.392	18057
904.51	18072
904.627	18129
904.745	18144
904.863	18174
904.981	17882
905.098	17699
905.216	17748
905.334	17729
905.451	17741
905.569	17771
905.686	17817
905.803	17836
905.921	17512
906.038	17661
906.155	17676
906.272	17478
906.389	17417
906.506	17303
906.623	17307
906.74	17288
906.857	17216
906.974	17193
907.091	17307
907.208	17341
907.324	17376
907.441	17239
907.557	17056
907.674	17071
907.79	16923
907.907	16927
908.023	16938
908.139	17022
908.256	16972
908.372	16938
908.488	16976
908.604	16763
908.72	16740
908.836	16645
908.952	16698
909.068	16763
909.184	16820
909.3	16717
909.415	16748
909.531	16592
909.647	16382
909.762	16371
909.878	16424
909.993	16402
910.108	16462
910.224	16405
910.339	16402
910.454	16382
910.57	16192
910.685	16196
910.8	16474
910.915	16386
911.03	16181
911.145	16173
911.259	16021
911.374	16063
911.489	15998
911.604	15911
911.718	15785
911.833	15861
911.947	15709
912.062	15720
912.176	15842
912.291	15819
912.405	15816
912.519	15876
912.633	15983
912.748	15869
912.862	15762
912.976	15580
913.09	15507
913.204	15519
913.318	15644
913.431	15720
913.545	15603
913.659	15603
913.772	15584
913.886	15454
914	15435
914.113	15587
914.226	15447
914.34	15477
914.453	15310
914.566	15458
914.68	15275
914.793	15173
914.906	15089
915.019	15097
915.132	14994
915.245	14956
915.358	14986
915.47	14967
915.583	14998
915.696	15001
915.809	15184
915.921	15154
916.034	15058
916.146	14868
916.259	14891
916.371	14960
916.483	14990
916.595	14895
916.708	14746
916.82	14918
916.932	14796
917.044	14769
917.156	14792
917.268	14754
917.38	14636
917.491	14644
917.603	14617
917.715	14720
917.826	14807
917.938	14606
918.049	14522
918.161	14705
918.272	14777
918.384	14739
918.495	14640
918.606	14427
918.717	14377
918.828	14495
918.939	14469
919.05	14351
919.161	14465
919.272	14244
919.383	14305
919.494	14465
919.604	14648
919.715	14503
919.826	14393
919.936	14434
920.047	14545
920.157	14396
920.267	14549
920.378	14374
920.488	14336
920.598	14514
920.708	14701
920.818	14507
920.928	14511
921.038	14682
921.148	14621
921.258	14313
921.368	14267
921.477	14103
921.587	14145
921.697	14069
921.806	14119
921.916	13986
922.025	13822
922.134	13753
922.244	13727
922.353	13784
922.462	13746
922.571	13609
922.68	13430
922.789	13499
922.898	13422
923.007	13377
923.116	13430
923.224	13419
923.333	13407
923.442	13209
923.55	13190
923.659	13244
923.767	13293
923.876	13183
923.984	13293
924.092	13282
924.201	13171
924.309	13149
924.417	13187
924.525	13012
924.633	13213
924.741	14012
924.849	12817
924.956	13034
925.064	12745
925.172	12787
925.279	12916
925.387	12745
925.494	12806
925.602	12958
925.709	12897
925.816	12787
925.924	12783
926.031	12954
926.138	12745
926.245	12795
926.352	12738
926.459	12776
926.566	12798
926.673	12738
926.779	12635
926.886	12627
926.993	12429
927.099	12403
927.206	12353
927.312	12296
927.419	12490
927.525	12357
927.631	12338
927.737	12308
927.843	12323
927.95	12159
928.056	12224
928.162	12209
928.267	12300
928.373	12871
928.479	12304
928.585	11999
928.69	12228
928.796	12232
928.901	12068
929.007	11977
929.112	12034
929.218	11988
929.323	12003
929.428	11958
929.533	12110
929.638	11866
929.743	11866
929.848	12015
929.953	11965
930.058	11821
930.163	11638
930.267	11752
930.372	11874
930.477	11611
930.581	11805
930.685	11707
930.79	11585
930.894	11596
930.998	11520
931.103	11668
931.207	11307
931.311	11220
931.415	11132
931.519	10896
931.623	10908
