Data from test_V78500241_430.txt Node
Date: Fri Mar 25 15:44:46 CST 2022
User: usil
Spectrometer: V785-0024
Trigger mode: 0
Integration Time (sec): 4.000000E-1
Scans to average: 1
Nonlinearity correction enabled: false
Boxcar width: 0
Storing dark spectrum: false
XAxis mode: Wavelengths
Number of Pixels in Spectrum: 1024
>>>>>Begin Spectral Data<<<<<
801.071	28268
801.214	28242
801.356	28086
801.499	27918
801.641	27972
801.783	27797
801.926	27930
802.068	27774
802.211	27682
802.353	27591
802.496	27530
802.638	27416
802.78	27405
802.923	27386
803.065	27340
803.208	27416
803.35	27587
803.492	27557
803.635	27663
803.777	27466
803.919	27511
804.061	27819
804.204	27504
804.346	27603
804.488	27450
804.63	27534
804.773	27420
804.915	27603
805.057	27675
805.199	27500
805.341	27580
805.483	27679
805.626	27568
805.768	27568
805.91	27614
806.052	27774
806.194	27515
806.336	27850
806.478	27652
806.62	27603
806.762	27831
806.904	27850
807.046	28322
807.188	28131
807.33	28070
807.472	28169
807.614	27937
807.756	28025
807.898	27903
808.04	27869
808.182	27804
808.324	27892
808.465	27865
808.607	28101
808.749	28291
808.891	28276
809.033	28440
809.174	28363
809.316	28352
809.458	28348
809.6	28196
809.741	28432
809.883	28382
810.025	28417
810.166	28577
810.308	28493
810.45	28500
810.591	28478
810.733	28314
810.875	28329
811.016	28131
811.158	28215
811.299	28398
811.441	28493
811.582	28436
811.724	28325
811.865	28135
812.007	28207
812.148	28143
812.29	28204
812.431	28523
812.573	28535
812.714	28721
812.855	28820
812.997	28839
813.138	29041
813.279	28786
813.421	28824
813.562	28767
813.703	28527
813.845	28660
813.986	28215
814.127	28040
814.268	27979
814.41	27899
814.551	27835
814.692	27884
814.833	27880
814.974	27968
815.115	27857
815.256	27838
815.397	27823
815.539	27709
815.68	27679
815.821	27599
815.962	27625
816.103	27622
816.244	27496
816.385	27348
816.526	27336
816.666	27264
816.807	27100
816.948	27154
817.089	27306
817.23	27241
817.371	27256
817.512	27081
817.653	27043
817.793	27036
817.934	27207
818.075	27070
818.216	27214
818.356	27039
818.497	27005
818.638	26781
818.778	26819
818.919	26838
819.06	26769
819.2	26994
819.341	27024
819.481	27005
819.622	27283
819.762	27378
819.903	27408
820.043	27348
820.184	27237
820.324	27169
820.465	27256
820.605	27241
820.746	27226
820.886	26975
821.026	27058
821.167	27245
821.307	27096
821.447	27180
821.588	27036
821.728	26944
821.868	26807
822.008	26484
822.149	26507
822.289	26541
822.429	26309
822.569	26149
822.709	26161
822.849	26035
822.99	25970
823.13	26058
823.27	25811
823.41	25708
823.55	25746
823.69	25864
823.83	25704
823.97	25772
824.11	25441
824.25	25616
824.389	25674
824.529	25693
824.669	25594
824.809	25715
824.949	25734
825.089	25658
825.228	25613
825.368	25457
825.508	25457
825.648	25445
825.787	25582
825.927	25346
826.067	25350
826.206	25514
826.346	25476
826.485	25552
826.625	25400
826.765	25476
826.904	25529
827.044	25137
827.183	25107
827.323	25076
827.462	25209
827.601	25145
827.741	25168
827.88	25072
828.02	24992
828.159	25225
828.298	25244
828.437	25084
828.577	25160
828.716	25209
828.855	25023
828.994	24825
829.134	24848
829.273	24878
829.412	24806
829.551	24867
829.69	24856
829.829	24947
829.968	24768
830.107	24890
830.246	24757
830.385	24734
830.524	24635
830.663	24650
830.802	24563
830.941	24437
831.08	24395
831.219	24521
831.357	24464
831.496	24479
831.635	24407
831.774	24300
831.913	24262
832.051	24152
832.19	24053
832.329	24247
832.467	24106
832.606	23980
832.744	24083
832.883	24034
833.022	23889
833.16	24098
833.299	24053
833.437	23961
833.576	24011
833.714	24064
833.852	24072
833.991	24197
834.129	24251
834.267	24053
834.406	24163
834.544	24041
834.682	24076
834.821	24018
834.959	24330
835.097	23942
835.235	24018
835.373	23996
835.511	23912
835.65	23942
835.788	24007
835.926	23745
836.064	23843
836.202	23771
836.34	23813
836.478	24030
836.615	23828
836.753	24003
836.891	23992
837.029	23920
837.167	23946
837.305	23729
837.443	23783
837.58	23722
837.718	23764
837.856	23676
837.993	23687
838.131	23680
838.269	23543
838.406	23733
838.544	23611
838.681	23452
838.819	23330
838.956	23212
839.094	23086
839.231	23132
839.369	23280
839.506	23589
839.643	23307
839.781	23143
839.918	23067
840.055	23208
840.193	23162
840.33	23075
840.467	23048
840.604	23181
840.742	23414
840.879	23083
841.016	22908
841.153	22927
841.29	23174
841.427	23037
841.564	23083
841.701	23022
841.838	22999
841.975	22850
842.112	23014
842.249	22991
842.385	22881
842.522	23079
842.659	22938
842.796	22801
842.933	22934
843.069	22755
843.206	22767
843.343	22911
843.479	22664
843.616	22801
843.752	22462
843.889	22565
844.025	22694
844.162	22512
844.298	22736
844.435	22656
844.571	22462
844.708	22485
844.844	22721
844.98	22679
845.117	22607
845.253	22569
845.389	22443
845.525	22417
845.661	22272
845.798	22329
845.934	22360
846.07	22223
846.206	22295
846.342	22341
846.478	22257
846.614	21979
846.75	21964
846.886	21884
847.022	22082
847.158	22021
847.294	22067
847.429	22036
847.565	22017
847.701	22276
847.837	21797
847.972	21656
848.108	21739
848.244	21701
848.379	21713
848.515	21633
848.65	21660
848.786	21614
848.921	21606
849.057	21682
849.192	21599
849.328	21701
849.463	21492
849.598	21492
849.734	21424
849.869	21519
850.004	21306
850.14	21313
850.275	21249
850.41	21154
850.545	21302
850.68	21218
850.815	21363
850.95	21382
851.085	21443
851.22	21481
851.355	21348
851.49	21279
851.625	21291
851.76	21298
851.895	21150
852.03	21188
852.165	21329
852.299	21355
852.434	21428
852.569	21310
852.703	21321
852.838	21329
852.973	21530
853.107	21344
853.242	21321
853.376	21058
853.511	20929
853.645	21085
853.78	21256
853.914	21051
854.048	21157
854.183	21085
854.317	21074
854.451	21294
854.585	21192
854.72	21199
854.854	21268
854.988	21123
855.122	21089
855.256	20914
855.39	21123
855.524	21146
855.658	21230
855.792	21028
855.926	21176
856.06	21116
856.194	21138
856.327	21131
856.461	21108
856.595	21024
856.729	21089
856.862	21089
856.996	21127
857.13	21218
857.263	21218
857.397	21313
857.53	21116
857.664	21249
857.797	21214
857.931	21230
858.064	21203
858.197	21252
858.331	21085
858.464	21116
858.597	20982
858.731	21051
858.864	21157
858.997	21062
859.13	21180
859.263	21154
859.396	21150
859.529	21100
859.662	21009
859.795	20994
859.928	21070
860.061	21294
860.194	21313
860.327	21241
860.46	21116
860.592	21203
860.725	21241
860.858	21237
860.99	21116
861.123	21020
861.256	20998
861.388	20998
861.521	21713
861.653	21096
861.786	20838
861.918	20975
862.05	21058
862.183	20971
862.315	21096
862.447	21195
862.58	21024
862.712	20807
862.844	20743
862.976	20982
863.108	20906
863.24	21154
863.372	20781
863.504	20735
863.636	20655
863.768	20788
863.9	20849
864.032	20708
864.164	20769
864.296	20864
864.428	20899
864.559	20902
864.691	20777
864.823	20929
864.954	20823
865.086	20788
865.217	20754
865.349	20644
865.48	20648
865.612	20667
865.743	20838
865.875	20651
866.006	20697
866.137	20701
866.269	20792
866.4	20617
866.531	20629
866.662	20571
866.793	20594
866.924	20693
867.055	20651
867.186	20712
867.317	20579
867.448	20602
867.579	20575
867.71	20571
867.841	20606
867.972	20617
868.103	20590
868.233	20769
868.364	20625
868.495	20636
868.625	20914
868.756	21009
868.886	20826
869.017	20830
869.147	20891
869.278	21024
869.408	20838
869.539	20956
869.669	20960
869.799	20937
869.929	20921
870.06	20899
870.19	21264
870.32	21222
870.45	21074
870.58	21336
870.71	21294
870.84	21408
870.97	21386
871.1	21161
871.23	21443
871.36	21492
871.489	21207
871.619	21420
871.749	21424
871.879	21374
872.008	21614
872.138	21458
872.267	21439
872.397	21310
872.526	21378
872.656	21302
872.785	21306
872.915	21458
873.044	21610
873.173	21519
873.303	21477
873.432	21591
873.561	21549
873.69	21458
873.819	21386
873.948	21564
874.077	21568
874.206	21378
874.335	21443
874.464	21629
874.593	21770
874.722	21606
874.851	21766
874.979	21732
875.108	21804
875.237	21675
875.365	21690
875.494	21793
875.623	21743
875.751	21679
875.88	21739
876.008	21846
876.136	22090
876.265	22048
876.393	22261
876.521	22101
876.65	22265
876.778	22051
876.906	22150
877.034	22029
877.162	22006
877.29	22074
877.418	22002
877.546	22090
877.674	22036
877.802	22078
877.93	22040
878.058	22032
878.185	21964
878.313	22055
878.441	22021
878.568	21968
878.696	22055
878.824	22017
878.951	22154
879.079	22295
879.206	22523
879.333	22109
879.461	22135
879.588	22112
879.715	22238
879.842	22409
879.97	22181
880.097	21903
880.224	21930
880.351	21972
880.478	21789
880.605	21915
880.732	21918
880.859	22116
880.986	21972
881.112	21937
881.239	21831
881.366	21724
881.493	21553
881.619	21530
881.746	21485
881.872	21526
881.999	21428
882.125	21462
882.252	21477
882.378	21401
882.505	21564
882.631	21359
882.757	21249
882.883	21302
883.01	21245
883.136	21077
883.262	21058
883.388	21047
883.514	21131
883.64	21222
883.766	21165
883.892	20921
884.018	20967
884.143	20998
884.269	21184
884.395	21020
884.52	20769
884.646	20819
884.772	20773
884.897	20750
885.023	20861
885.148	21013
885.274	20918
885.399	20918
885.524	20963
885.65	20777
885.775	20785
885.9	20815
886.025	20838
886.15	20838
886.275	20735
886.4	20682
886.525	20830
886.65	20678
886.775	20708
886.9	20891
887.025	20982
887.149	20826
887.274	20674
887.399	20636
887.523	20629
887.648	20511
887.773	20514
887.897	20731
888.021	20682
888.146	20587
888.27	20670
888.395	20621
888.519	20663
888.643	20705
888.767	20655
888.891	20511
889.015	20404
889.139	20438
889.263	20328
889.387	20480
889.511	20613
889.635	20400
889.759	20366
889.883	20305
890.006	20389
890.13	20370
890.254	20218
890.377	20164
890.501	20176
890.624	20016
890.748	20096
890.871	20084
890.995	19928
891.118	19917
891.241	20016
891.364	19986
891.488	20058
891.611	19887
891.734	20031
891.857	20012
891.98	19928
892.103	20111
892.226	19807
892.349	19925
892.471	19837
892.594	19826
892.717	19883
892.839	19837
892.962	19871
893.085	19837
893.207	19772
893.33	19837
893.452	19693
893.575	20008
893.697	19864
893.819	19997
893.941	19909
894.064	19909
894.186	19731
894.308	19814
894.43	19921
894.552	20115
894.674	19955
894.796	19788
894.918	19925
895.04	19894
895.161	20012
895.283	19909
895.405	19868
895.526	19807
895.648	19841
895.769	19997
895.891	19909
896.012	19974
896.134	19894
896.255	19936
896.376	19830
896.498	19799
896.619	20027
896.74	19868
896.861	20008
896.982	20282
897.103	20495
897.224	20263
897.345	20202
897.466	20092
897.587	20225
897.708	20252
897.828	20065
897.949	20062
898.07	19967
898.19	20027
898.311	20077
898.431	20039
898.552	20138
898.672	20168
898.792	20065
898.913	20081
899.033	20012
899.153	19860
899.273	19898
899.393	19898
899.513	19989
899.633	19898
899.753	19936
899.873	19734
899.993	19894
900.113	19841
900.232	19932
900.352	19795
900.472	19734
900.591	19563
900.711	19502
900.83	19495
900.95	19708
901.069	19719
901.189	19559
901.308	19358
901.427	19183
901.546	19308
901.665	19209
901.784	19160
901.904	19095
902.023	18935
902.141	18776
902.26	18833
902.379	18692
902.498	18730
902.617	18597
902.735	18806
902.854	18661
902.973	18593
903.091	18388
903.21	18426
903.328	18483
903.446	18289
903.565	18285
903.683	18228
903.801	18091
903.919	18171
904.038	18182
904.156	18045
904.274	18114
904.392	17939
904.51	17942
904.627	17923
904.745	17996
904.863	18049
904.981	17767
905.098	17592
905.216	17600
905.334	17649
905.451	17573
905.569	17581
905.686	17661
905.803	17634
905.921	17433
906.038	17406
906.155	17459
906.272	17353
906.389	17440
906.506	17181
906.623	17136
906.74	17159
906.857	17041
906.974	17083
907.091	17269
907.208	17288
907.324	17181
907.441	17147
907.557	16885
907.674	16831
907.79	16892
907.907	16835
908.023	16949
908.139	16805
908.256	16816
908.372	16706
908.488	16771
908.604	16668
908.72	16596
908.836	16599
908.952	16504
909.068	16634
909.184	16637
909.3	16558
909.415	16565
909.531	16561
909.647	16348
909.762	16185
909.878	16268
909.993	16249
910.108	16166
910.224	16215
910.339	16318
910.454	16120
910.57	16116
910.685	15964
910.8	16291
910.915	16181
911.03	16188
911.145	15895
911.259	15911
911.374	15785
911.489	15808
911.604	15759
911.718	15622
911.833	15587
911.947	15568
912.062	15447
912.176	15576
912.291	15686
912.405	15564
912.519	15812
912.633	15770
912.748	15667
912.862	15603
912.976	15492
913.09	15313
913.204	15336
913.318	15462
913.431	15504
913.545	15477
913.659	15496
913.772	15424
913.886	15237
914	15207
914.113	15287
914.226	15313
914.34	15233
914.453	15074
914.566	15256
914.68	15127
914.793	15123
914.906	14925
915.019	14857
915.132	14800
915.245	14807
915.358	14910
915.47	14819
915.583	14925
915.696	14914
915.809	15089
915.921	14918
916.034	14819
916.146	14716
916.259	14697
916.371	14762
916.483	14823
916.595	14712
916.708	14602
916.82	14727
916.932	14667
917.044	14492
917.156	14655
917.268	14465
917.38	14522
917.491	14469
917.603	14503
917.715	14556
917.826	14587
917.938	14446
918.049	14358
918.161	14484
918.272	14560
918.384	14564
918.495	14484
918.606	14263
918.717	14153
918.828	14275
918.939	14339
919.05	14149
919.161	14168
919.272	14046
919.383	14210
919.494	14358
919.604	14438
919.715	14256
919.826	14123
919.936	14237
920.047	14248
920.157	14248
920.267	14427
920.378	14233
920.488	14218
920.598	14431
920.708	14469
920.818	14347
920.928	14290
921.038	14450
921.148	14488
921.258	14229
921.368	14149
921.477	13959
921.587	13932
921.697	13837
921.806	13951
921.916	13925
922.025	13597
922.134	13609
922.244	13525
922.353	13563
922.462	13468
922.571	13521
922.68	13240
922.789	13255
922.898	13171
923.007	13232
923.116	13316
923.224	13228
923.333	13206
923.442	13103
923.55	13034
923.659	13110
923.767	13198
923.876	12985
923.984	13107
924.092	12882
924.201	12981
924.309	13031
924.417	12981
924.525	12939
924.633	12970
924.741	13731
924.849	12677
924.956	12970
925.064	12696
925.172	12559
925.279	12707
925.387	12707
925.494	12665
925.602	12909
925.709	12745
925.816	12612
925.924	12604
926.031	12856
926.138	12760
926.245	12620
926.352	12574
926.459	12623
926.566	12711
926.673	12551
926.779	12384
926.886	12460
926.993	12251
927.099	12205
927.206	12224
927.312	12209
927.419	12315
927.525	12254
927.631	12163
927.737	12163
927.843	12095
927.95	12003
928.056	12136
928.162	12087
928.267	12102
928.373	12757
928.479	12205
928.585	11973
928.69	12060
928.796	12026
928.901	11992
929.007	11824
929.112	12041
929.218	11965
929.323	11927
929.428	11790
929.533	11958
929.638	11722
929.743	11798
929.848	11790
929.953	11783
930.058	11832
930.163	11482
930.267	11493
930.372	11535
930.477	11467
930.581	11672
930.685	11623
930.79	11376
930.894	11429
930.998	11402
931.103	11532
931.207	11147
931.311	11162
931.415	10911
931.519	10763
931.623	10755
