Data from test_V78500241_1674.txt Node
Date: Fri Mar 25 15:53:23 CST 2022
User: usil
Spectrometer: V785-0024
Trigger mode: 0
Integration Time (sec): 4.000000E-1
Scans to average: 1
Nonlinearity correction enabled: false
Boxcar width: 0
Storing dark spectrum: false
XAxis mode: Wavelengths
Number of Pixels in Spectrum: 1024
>>>>>Begin Spectral Data<<<<<
801.071	28223
801.214	28234
801.356	27930
801.499	28105
801.641	27743
801.783	27789
801.926	27911
802.068	27800
802.211	27778
802.353	27766
802.496	27705
802.638	27618
802.78	27591
802.923	27557
803.065	27416
803.208	27644
803.35	27549
803.492	27660
803.635	27705
803.777	27682
803.919	27713
804.061	28048
804.204	27698
804.346	27736
804.488	27652
804.63	27873
804.773	27671
804.915	27762
805.057	28013
805.199	27781
805.341	27895
805.483	27949
805.626	27949
805.768	27937
805.91	27838
806.052	28002
806.194	27903
806.336	28059
806.478	27964
806.62	28010
806.762	28082
806.904	28249
807.046	28375
807.188	28424
807.33	28436
807.472	28459
807.614	28211
807.756	28417
807.898	28253
808.04	28276
808.182	28200
808.324	28230
808.465	28242
808.607	28382
808.749	28573
808.891	28824
809.033	28702
809.174	28687
809.316	28618
809.458	28424
809.6	28592
809.741	28717
809.883	28801
810.025	28946
810.166	28942
810.308	28881
810.45	28896
810.591	28858
810.733	28580
810.875	28637
811.016	28554
811.158	28500
811.299	28637
811.441	28694
811.582	28698
811.724	28573
811.865	28523
812.007	28637
812.148	28580
812.29	28698
812.431	28790
812.573	28763
812.714	29010
812.855	29117
812.997	29277
813.138	29242
813.279	29258
813.421	29159
813.562	28927
813.703	28953
813.845	28797
813.986	28516
814.127	28352
814.268	28287
814.41	28223
814.551	28207
814.692	28409
814.833	28230
814.974	28329
815.115	28207
815.256	28177
815.397	28196
815.539	28124
815.68	28070
815.821	28154
815.962	28040
816.103	28067
816.244	28021
816.385	27914
816.526	27972
816.666	27625
816.807	27583
816.948	27770
817.089	27701
817.23	27694
817.371	27572
817.512	27553
817.653	27542
817.793	27606
817.934	27603
818.075	27530
818.216	27576
818.356	27500
818.497	27542
818.638	27222
818.778	27268
818.919	27279
819.06	27462
819.2	27469
819.341	27633
819.481	27507
819.622	27724
819.762	27953
819.903	27964
820.043	27907
820.184	27728
820.324	27694
820.465	27732
820.605	27709
820.746	27728
820.886	27648
821.026	27606
821.167	27679
821.307	27743
821.447	27637
821.588	27538
821.728	27477
821.868	27287
822.008	27195
822.149	27116
822.289	27005
822.429	26887
822.569	26735
822.709	26693
822.849	26697
822.99	26575
823.13	26526
823.27	26579
823.41	26590
823.55	26256
823.69	26309
823.83	26423
823.97	26526
824.11	26282
824.25	26191
824.389	26187
824.529	26396
824.669	26320
824.809	26476
824.949	26317
825.089	26457
825.228	26248
825.368	26043
825.508	25993
825.648	26088
825.787	26138
825.927	26199
826.067	26081
826.206	26081
826.346	26176
826.485	26145
826.625	26153
826.765	26214
826.904	26164
827.044	25860
827.183	25849
827.323	25788
827.462	25864
827.601	25811
827.741	25852
827.88	25750
828.02	25757
828.159	25696
828.298	25826
828.437	25902
828.577	25742
828.716	25940
828.855	25765
828.994	25563
829.134	25422
829.273	25556
829.412	25434
829.551	25438
829.69	25533
829.829	25274
829.968	25525
830.107	25594
830.246	25571
830.385	25384
830.524	25324
830.663	25339
830.802	25312
830.941	25012
831.08	25061
831.219	25232
831.357	25244
831.496	25396
831.635	25148
831.774	24989
831.913	25069
832.051	24909
832.19	24859
832.329	24863
832.467	24878
832.606	24795
832.744	24726
832.883	24833
833.022	24825
833.16	24738
833.299	24817
833.437	24829
833.576	24817
833.714	24798
833.852	24932
833.991	24943
834.129	25050
834.267	24852
834.406	24894
834.544	24894
834.682	24935
834.821	24859
834.959	24973
835.097	24882
835.235	24863
835.373	24783
835.511	24844
835.65	24700
835.788	24738
835.926	24566
836.064	24346
836.202	24509
836.34	24696
836.478	24719
836.615	24665
836.753	24601
836.891	24711
837.029	24597
837.167	24597
837.305	24612
837.443	24528
837.58	24513
837.718	24677
837.856	24525
837.993	24350
838.131	24494
838.269	24319
838.406	24513
838.544	24300
838.681	24247
838.819	24053
838.956	23863
839.094	24026
839.231	23996
839.369	24068
839.506	24403
839.643	24197
839.781	23912
839.918	23923
840.055	23958
840.193	23996
840.33	23931
840.467	23813
840.604	23973
840.742	24136
840.879	23726
841.016	23847
841.153	23764
841.29	23912
841.427	23878
841.564	23866
841.701	23863
841.838	23786
841.975	23767
842.112	23813
842.249	23653
842.385	23672
842.522	23771
842.659	23676
842.796	23672
842.933	23573
843.069	23551
843.206	23600
843.343	23604
843.479	23699
843.616	23570
843.752	23391
843.889	23505
844.025	23524
844.162	23364
844.298	23505
844.435	23433
844.571	23341
844.708	23368
844.844	23554
844.98	23611
845.117	23467
845.253	23429
845.389	23429
845.525	23269
845.661	23284
845.798	23041
845.934	23242
846.07	23113
846.206	23170
846.342	23170
846.478	23159
846.614	22972
846.75	22904
846.886	22790
847.022	22968
847.158	22816
847.294	22820
847.429	22820
847.565	22816
847.701	23010
847.837	22577
847.972	22554
848.108	22713
848.244	22637
848.379	22417
848.515	22413
848.65	22303
848.786	22493
848.921	22500
849.057	22523
849.192	22531
849.328	22466
849.463	22455
849.598	22318
849.734	22287
849.869	22299
850.004	22188
850.14	22242
850.275	22249
850.41	22169
850.545	22097
850.68	22177
850.815	22238
850.95	22310
851.085	22417
851.22	22379
851.355	22276
851.49	22234
851.625	22219
851.76	22204
851.895	22154
852.03	22230
852.165	22090
852.299	22276
852.434	22226
852.569	22162
852.703	22268
852.838	22238
852.973	22287
853.107	22215
853.242	22074
853.376	22044
853.511	21983
853.645	21911
853.78	22059
853.914	22044
854.048	21964
854.183	22013
854.317	22051
854.451	22265
854.585	21960
854.72	22036
854.854	22093
854.988	22112
855.122	22055
855.256	21785
855.39	21960
855.524	22025
855.658	21994
855.792	21991
855.926	22074
856.06	22078
856.194	22040
856.327	22025
856.461	21899
856.595	21998
856.729	21968
856.862	22147
856.996	22097
857.13	22097
857.263	22105
857.397	22116
857.53	22017
857.664	21991
857.797	22169
857.931	21953
858.064	22196
858.197	22166
858.331	22013
858.464	21934
858.597	21842
858.731	22128
858.864	21888
858.997	22063
859.13	22010
859.263	22048
859.396	22128
859.529	21941
859.662	22010
859.795	22013
859.928	22029
860.061	22219
860.194	22268
860.327	22040
860.46	22124
860.592	22048
860.725	22215
860.858	22067
860.99	22169
861.123	21960
861.256	21945
861.388	21979
861.521	22744
861.653	21838
861.786	21827
861.918	21838
862.05	21892
862.183	21926
862.315	22002
862.447	21892
862.58	22006
862.712	21720
862.844	21660
862.976	21797
863.108	21736
863.24	22276
863.372	21701
863.504	21663
863.636	21816
863.768	21831
863.9	21766
864.032	21641
864.164	21774
864.296	21686
864.428	21869
864.559	21838
864.691	21736
864.823	21694
864.954	21717
865.086	21622
865.217	21717
865.349	21504
865.48	21622
865.612	21599
865.743	21724
865.875	21690
866.006	21488
866.137	21644
866.269	21618
866.4	21625
866.531	21538
866.662	21439
866.793	21591
866.924	21545
867.055	21458
867.186	21519
867.317	21469
867.448	21538
867.579	21534
867.71	21454
867.841	21538
867.972	21610
868.103	21515
868.233	21549
868.364	21553
868.495	21633
868.625	21781
868.756	21854
868.886	21759
869.017	21785
869.147	21937
869.278	21846
869.408	21865
869.539	21835
869.669	21827
869.799	21949
869.929	21880
870.06	21884
870.19	22093
870.32	22086
870.45	22261
870.58	22116
870.71	22211
870.84	22333
870.97	22287
871.1	22185
871.23	22348
871.36	22436
871.489	22185
871.619	22325
871.749	22329
871.879	22371
872.008	22428
872.138	22329
872.267	22306
872.397	22348
872.526	22204
872.656	22242
872.785	22303
872.915	22386
873.044	22500
873.173	22478
873.303	22557
873.432	22584
873.561	22512
873.69	22481
873.819	22462
873.948	22485
874.077	22421
874.206	22276
874.335	22398
874.464	22443
874.593	22744
874.722	22584
874.851	22649
874.979	22618
875.108	22641
875.237	22569
875.365	22519
875.494	22691
875.623	22725
875.751	22565
875.88	22554
876.008	22736
876.136	22820
876.265	22942
876.393	23029
876.521	23109
876.65	23189
876.778	23022
876.906	23041
877.034	23006
877.162	22980
877.29	23003
877.418	23033
877.546	22953
877.674	22957
877.802	23010
877.93	22885
878.058	22869
878.185	22892
878.313	22820
878.441	22957
878.568	22774
878.696	22835
878.824	23067
878.951	22949
879.079	23147
879.206	23216
879.333	23029
879.461	22987
879.588	23128
879.715	23098
879.842	23174
879.97	23044
880.097	22797
880.224	22782
880.351	22972
880.478	22889
880.605	22729
880.732	22820
880.859	23056
880.986	22812
881.112	22778
881.239	22626
881.366	22523
881.493	22497
881.619	22348
881.746	22382
881.872	22352
881.999	22253
882.125	22371
882.252	22428
882.378	22265
882.505	22405
882.631	22109
882.757	22002
882.883	22147
883.01	22051
883.136	22021
883.262	21884
883.388	21781
883.514	22067
883.64	21953
883.766	22006
883.892	21835
884.018	21949
884.143	21869
884.269	22029
884.395	21781
884.52	21595
884.646	21785
884.772	21564
884.897	21580
885.023	21644
885.148	21766
885.274	21880
885.399	21755
885.524	21694
885.65	21606
885.775	21698
885.9	21629
886.025	21641
886.15	21705
886.275	21686
886.4	21595
886.525	21583
886.65	21580
886.775	21526
886.9	21838
887.025	21884
887.149	21599
887.274	21420
887.399	21256
887.523	21401
887.648	21344
887.773	21302
887.897	21477
888.021	21450
888.146	21408
888.27	21496
888.395	21504
888.519	21595
888.643	21401
888.767	21488
888.891	21351
889.015	21252
889.139	21226
889.263	21230
889.387	21389
889.511	21431
889.635	21256
889.759	21169
889.883	21051
890.006	21306
890.13	21374
890.254	21093
890.377	21173
890.501	21043
890.624	21013
890.748	21001
890.871	20807
890.995	20777
891.118	20689
891.241	20861
891.364	20845
891.488	20941
891.611	20899
891.734	20796
891.857	20861
891.98	20746
892.103	20868
892.226	20788
892.349	20769
892.471	20545
892.594	20838
892.717	20762
892.839	20708
892.962	20678
893.085	20781
893.207	20731
893.33	20598
893.452	20602
893.575	20724
893.697	20625
893.819	20804
893.941	20807
894.064	20823
894.186	20682
894.308	20648
894.43	20655
894.552	20712
894.674	20735
894.796	20560
894.918	20621
895.04	20594
895.161	20674
895.283	20739
895.405	20590
895.526	20678
895.648	20716
895.769	20705
895.891	20800
896.012	20750
896.134	20823
896.255	20720
896.376	20621
896.498	20682
896.619	20743
896.74	20750
896.861	20636
896.982	20914
897.103	21207
897.224	20921
897.345	20891
897.466	20811
897.587	20876
897.708	20956
897.828	20960
897.949	20906
898.07	20750
898.19	20868
898.311	20845
898.431	20815
898.552	20902
898.672	20975
898.792	21017
898.913	20823
899.033	20693
899.153	20689
899.273	20617
899.393	20564
899.513	20674
899.633	20705
899.753	20541
899.873	20640
899.993	20686
900.113	20571
900.232	20606
900.352	20488
900.472	20438
900.591	20324
900.711	20355
900.83	20370
900.95	20465
901.069	20461
901.189	20278
901.308	20050
901.427	19890
901.546	20077
901.665	19986
901.784	19997
901.904	19746
902.023	19769
902.141	19540
902.26	19552
902.379	19571
902.498	19407
902.617	19491
902.735	19510
902.854	19400
902.973	19327
903.091	19198
903.21	19099
903.328	19141
903.446	18996
903.565	19015
903.683	18882
903.801	18867
903.919	18863
904.038	18867
904.156	18646
904.274	18768
904.392	18661
904.51	18700
904.627	18707
904.745	18597
904.863	18722
904.981	18521
905.098	18399
905.216	18350
905.334	18270
905.451	18414
905.569	18277
905.686	18460
905.803	18369
905.921	18186
906.038	18201
906.155	18087
906.272	18026
906.389	18007
906.506	17878
906.623	17996
906.74	17821
906.857	17748
906.974	17726
907.091	17882
907.208	17920
907.324	17893
907.441	17843
907.557	17707
907.674	17562
907.79	17463
907.907	17543
908.023	17581
908.139	17619
908.256	17543
908.372	17486
908.488	17387
908.604	17337
908.72	17372
908.836	17315
908.952	17296
909.068	17280
909.184	17391
909.3	17379
909.415	17296
909.531	17277
909.647	17064
909.762	17048
909.878	16995
909.993	16999
910.108	17029
910.224	16889
910.339	16904
910.454	16927
910.57	16949
910.685	16736
910.8	16965
910.915	16927
911.03	16725
911.145	16672
911.259	16596
911.374	16558
911.489	16558
911.604	16440
911.718	16329
911.833	16310
911.947	16253
912.062	16128
912.176	16402
912.291	16386
912.405	16409
912.519	16584
912.633	16527
912.748	16352
912.862	16325
912.976	16139
913.09	16044
913.204	16097
913.318	16150
913.431	16223
913.545	16352
913.659	16219
913.772	16135
913.886	16017
914	16021
914.113	15991
914.226	16093
914.34	16010
914.453	15808
914.566	15983
914.68	15873
914.793	15808
914.906	15694
915.019	15580
915.132	15504
915.245	15538
915.358	15564
915.47	15492
915.583	15576
915.696	15572
915.809	15698
915.921	15618
916.034	15443
916.146	15412
916.259	15420
916.371	15504
916.483	15447
916.595	15401
916.708	15412
916.82	15287
916.932	15279
917.044	15252
917.156	15279
917.268	15169
917.38	15176
917.491	15150
917.603	15211
917.715	15214
917.826	15241
917.938	15070
918.049	14925
918.161	15165
918.272	15302
918.384	15199
918.495	15074
918.606	14914
918.717	14925
918.828	14963
918.939	14982
919.05	14933
919.161	14918
919.272	14724
919.383	14735
919.494	15001
919.604	15104
919.715	14937
919.826	14853
919.936	14872
920.047	14956
920.157	14910
920.267	15051
920.378	14918
920.488	14918
920.598	15058
920.708	15222
920.818	15028
920.928	15005
921.038	15218
921.148	15112
921.258	14868
921.368	14754
921.477	14598
921.587	14511
921.697	14545
921.806	14708
921.916	14404
922.025	14343
922.134	14240
922.244	14145
922.353	14305
922.462	14123
922.571	14130
922.68	13951
922.789	13833
922.898	13951
923.007	13811
923.116	14005
923.224	13944
923.333	13826
923.442	13788
923.55	13712
923.659	13727
923.767	13757
923.876	13685
923.984	13731
924.092	13594
924.201	13594
924.309	13590
924.417	13571
924.525	13556
924.633	13533
924.741	14290
924.849	13354
924.956	13544
925.064	13327
925.172	13255
925.279	13304
925.387	13324
925.494	13270
925.602	13438
925.709	13316
925.816	13179
925.924	13331
926.031	13350
926.138	13259
926.245	13285
926.352	13160
926.459	13278
926.566	13285
926.673	13107
926.779	13065
926.886	13145
926.993	12932
927.099	12795
927.206	12878
927.312	12764
927.419	12935
927.525	12943
927.631	12924
927.737	12779
927.843	12757
927.95	12544
928.056	12669
928.162	12711
928.267	12734
928.373	13339
928.479	12745
928.585	12464
928.69	12566
928.796	12627
928.901	12467
929.007	12391
929.112	12502
929.218	12551
929.323	12391
929.428	12437
929.533	12467
929.638	12281
929.743	12372
929.848	12353
929.953	12273
930.058	12254
930.163	12060
930.267	12038
930.372	12155
930.477	12030
930.581	12224
930.685	12098
930.79	12003
930.894	11935
930.998	11885
931.103	12114
931.207	11668
931.311	11688
931.415	11547
931.519	11315
931.623	11261
