Data from test_V78500241_332.txt Node
Date: Fri Mar 25 15:44:06 CST 2022
User: usil
Spectrometer: V785-0024
Trigger mode: 0
Integration Time (sec): 4.000000E-1
Scans to average: 1
Nonlinearity correction enabled: false
Boxcar width: 0
Storing dark spectrum: false
XAxis mode: Wavelengths
Number of Pixels in Spectrum: 1024
>>>>>Begin Spectral Data<<<<<
801.071	30030
801.214	29737
801.356	29729
801.499	29726
801.641	29531
801.783	29528
801.926	29608
802.068	29524
802.211	29322
802.353	29395
802.496	29349
802.638	29018
802.78	29136
802.923	29094
803.065	29014
803.208	29052
803.35	29121
803.492	29284
803.635	29273
803.777	29280
803.919	29402
804.061	29604
804.204	29387
804.346	29280
804.488	29235
804.63	29334
804.773	29269
804.915	29429
805.057	29349
805.199	29391
805.341	29482
805.483	29528
805.626	29368
805.768	29436
805.91	29604
806.052	29356
806.194	29543
806.336	29676
806.478	29512
806.62	29615
806.762	29570
806.904	29752
807.046	30133
807.188	29866
807.33	29882
807.472	29954
807.614	29950
807.756	29939
807.898	29771
808.04	29775
808.182	29771
808.324	29718
808.465	29562
808.607	29942
808.749	30102
808.891	30391
809.033	30163
809.174	30174
809.316	30216
809.458	30034
809.6	30201
809.741	30285
809.883	30311
810.025	30319
810.166	30369
810.308	30369
810.45	30285
810.591	30304
810.733	30117
810.875	30091
811.016	29977
811.158	30076
811.299	30087
811.441	30319
811.582	30395
811.724	30174
811.865	30076
812.007	30277
812.148	30121
812.29	30171
812.431	30315
812.573	30437
812.714	30635
812.855	30635
812.997	30768
813.138	30954
813.279	30810
813.421	30601
813.562	30673
813.703	30597
813.845	30403
813.986	29946
814.127	29904
814.268	29893
814.41	29847
814.551	29760
814.692	29931
814.833	29630
814.974	29642
815.115	29638
815.256	29592
815.397	29703
815.539	29600
815.68	29486
815.821	29410
815.962	29535
816.103	29516
816.244	29482
816.385	29425
816.526	29216
816.666	29147
816.807	29029
816.948	29105
817.089	29204
817.23	29083
817.371	29136
817.512	29022
817.653	28923
817.793	28938
817.934	29003
818.075	29170
818.216	29132
818.356	28908
818.497	28797
818.638	28805
818.778	28774
818.919	28774
819.06	28843
819.2	28892
819.341	28900
819.481	29098
819.622	29292
819.762	29353
819.903	29292
820.043	29181
820.184	29212
820.324	28946
820.465	29140
820.605	29033
820.746	29208
820.886	28888
821.026	29018
821.167	29105
821.307	29121
821.447	29090
821.588	28843
821.728	28763
821.868	28535
822.008	28508
822.149	28485
822.289	28394
822.429	28215
822.569	28207
822.709	28025
822.849	27846
822.99	27888
823.13	27945
823.27	27869
823.41	27819
823.55	27652
823.69	27724
823.83	27690
823.97	27713
824.11	27656
824.25	27618
824.389	27587
824.529	27599
824.669	27618
824.809	27694
824.949	27507
825.089	27663
825.228	27587
825.368	27500
825.508	27310
825.648	27370
825.787	27530
825.927	27447
826.067	27405
826.206	27458
826.346	27526
826.485	27496
826.625	27374
826.765	27439
826.904	27500
827.044	27104
827.183	27195
827.323	27077
827.462	27127
827.601	27116
827.741	27104
827.88	26998
828.02	26910
828.159	26979
828.298	27131
828.437	27032
828.577	27020
828.716	27195
828.855	26940
828.994	26800
829.134	26792
829.273	26708
829.412	26705
829.551	26655
829.69	26804
829.829	26800
829.968	26830
830.107	26731
830.246	26727
830.385	26678
830.524	26644
830.663	26651
830.802	26393
830.941	26336
831.08	26298
831.219	26457
831.357	26400
831.496	26518
831.635	26301
831.774	26111
831.913	26119
832.051	26103
832.19	26008
832.329	26062
832.467	26130
832.606	25902
832.744	25875
832.883	25921
833.022	25978
833.16	26065
833.299	25993
833.437	25947
833.576	26020
833.714	25963
833.852	25947
833.991	25970
834.129	26024
834.267	26111
834.406	25917
834.544	25959
834.682	25894
834.821	25795
834.959	26065
835.097	25811
835.235	26058
835.373	25909
835.511	25860
835.65	25917
835.788	25731
835.926	25647
836.064	25647
836.202	25635
836.34	25635
836.478	25799
836.615	25704
836.753	25712
836.891	25715
837.029	25765
837.167	25670
837.305	25742
837.443	25605
837.58	25624
837.718	25662
837.856	25590
837.993	25540
838.131	25521
838.269	25464
838.406	25563
838.544	25464
838.681	25183
838.819	25076
838.956	25168
839.094	25057
839.231	25031
839.369	25213
839.506	25381
839.643	25331
839.781	25061
839.918	24977
840.055	24947
840.193	24951
840.33	24913
840.467	25046
840.604	24852
840.742	25152
840.879	24821
841.016	24916
841.153	24810
841.29	25027
841.427	24890
841.564	24916
841.701	24844
841.838	24924
841.975	24715
842.112	24810
842.249	24639
842.385	24703
842.522	24878
842.659	24730
842.796	24722
842.933	24681
843.069	24608
843.206	24483
843.343	24601
843.479	24578
843.616	24471
843.752	24380
843.889	24323
844.025	24486
844.162	24475
844.298	24399
844.435	24270
844.571	24285
844.708	24296
844.844	24513
844.98	24391
845.117	24441
845.253	24213
845.389	24152
845.525	24201
845.661	24262
845.798	24129
845.934	24087
846.07	23935
846.206	24045
846.342	24190
846.478	23999
846.614	23916
846.75	23764
846.886	23707
847.022	23840
847.158	23798
847.294	23600
847.429	23851
847.565	23718
847.701	23927
847.837	23452
847.972	23421
848.108	23619
848.244	23490
848.379	23364
848.515	23307
848.65	23356
848.786	23277
848.921	23239
849.057	23414
849.192	23528
849.328	23402
849.463	23330
849.598	23231
849.734	23067
849.869	23166
850.004	23147
850.14	23014
850.275	23064
850.41	23041
850.545	23056
850.68	23041
850.815	23075
850.95	23079
851.085	23227
851.22	23208
851.355	23132
851.49	23041
851.625	22957
851.76	22995
851.895	22900
852.03	22991
852.165	23033
852.299	23140
852.434	23132
852.569	23086
852.703	23094
852.838	23200
852.973	23067
853.107	23216
853.242	23003
853.376	22889
853.511	22771
853.645	22790
853.78	22980
853.914	22904
854.048	22790
854.183	22900
854.317	22873
854.451	23208
854.585	22919
854.72	22812
854.854	22965
854.988	22824
855.122	22790
855.256	22725
855.39	22858
855.524	22885
855.658	22908
855.792	22824
855.926	22892
856.06	22896
856.194	22976
856.327	22717
856.461	22797
856.595	22713
856.729	22858
856.862	22991
856.996	22759
857.13	22831
857.263	22908
857.397	22824
857.53	22786
857.664	22862
857.797	22862
857.931	22930
858.064	22850
858.197	22995
858.331	22683
858.464	22801
858.597	22721
858.731	22698
858.864	22748
858.997	22767
859.13	22752
859.263	22664
859.396	22904
859.529	22824
859.662	22850
859.795	22702
859.928	22885
860.061	22949
860.194	22976
860.327	22949
860.46	22755
860.592	22850
860.725	22835
860.858	23025
860.99	22774
861.123	22679
861.256	22752
861.388	22763
861.521	23505
861.653	22672
861.786	22546
861.918	22687
862.05	22721
862.183	22710
862.315	22854
862.447	22873
862.58	22763
862.712	22462
862.844	22470
862.976	22664
863.108	22466
863.24	22892
863.372	22462
863.504	22504
863.636	22569
863.768	22489
863.9	22622
864.032	22341
864.164	22443
864.296	22569
864.428	22615
864.559	22481
864.691	22569
864.823	22455
864.954	22497
865.086	22360
865.217	22462
865.349	22204
865.48	22417
865.612	22413
865.743	22504
865.875	22519
866.006	22257
866.137	22394
866.269	22306
866.4	22337
866.531	22192
866.662	22299
866.793	22207
866.924	22306
867.055	22246
867.186	22352
867.317	22310
867.448	22185
867.579	22257
867.71	22185
867.841	22188
867.972	22204
868.103	22238
868.233	22329
868.364	22272
868.495	22405
868.625	22538
868.756	22481
868.886	22478
869.017	22554
869.147	22649
869.278	22755
869.408	22523
869.539	22443
869.669	22527
869.799	22500
869.929	22611
870.06	22649
870.19	22805
870.32	22904
870.45	22892
870.58	22965
870.71	23117
870.84	23029
870.97	22889
871.1	22965
871.23	23079
871.36	23102
871.489	22984
871.619	23022
871.749	23041
871.879	23166
872.008	23136
872.138	22968
872.267	23014
872.397	22934
872.526	22984
872.656	22900
872.785	22877
872.915	23159
873.044	23189
873.173	23052
873.303	23143
873.432	23128
873.561	23216
873.69	23117
873.819	23121
873.948	23189
874.077	23132
874.206	23147
874.335	23239
874.464	23193
874.593	23429
874.722	23258
874.851	23452
874.979	23307
875.108	23349
875.237	23322
875.365	23212
875.494	23261
875.623	23425
875.751	23322
875.88	23311
876.008	23474
876.136	23551
876.265	23748
876.393	23843
876.521	23847
876.65	23767
876.778	23665
876.906	23547
877.034	23649
877.162	23691
877.29	23646
877.418	23615
877.546	23737
877.674	23634
877.802	23707
877.93	23600
878.058	23585
878.185	23570
878.313	23665
878.441	23608
878.568	23364
878.696	23615
878.824	23828
878.951	23817
879.079	23779
879.206	23939
879.333	23756
879.461	23665
879.588	23870
879.715	23786
879.842	23908
879.97	23722
880.097	23497
880.224	23433
880.351	23505
880.478	23474
880.605	23398
880.732	23531
880.859	23767
880.986	23315
881.112	23600
881.239	23433
881.366	23197
881.493	23132
881.619	23056
881.746	23174
881.872	23048
881.999	22980
882.125	22908
882.252	23041
882.378	22972
882.505	23197
882.631	22991
882.757	22862
882.883	22824
883.01	22824
883.136	22713
883.262	22546
883.388	22508
883.514	22771
883.64	22733
883.766	22698
883.892	22519
884.018	22508
884.143	22809
884.269	22786
884.395	22462
884.52	22265
884.646	22390
884.772	22295
884.897	22246
885.023	22322
885.148	22447
885.274	22535
885.399	22394
885.524	22303
885.65	22337
885.775	22424
885.9	22333
886.025	22485
886.15	22440
886.275	22265
886.4	22276
886.525	22272
886.65	22276
886.775	22219
886.9	22413
887.025	22527
887.149	22295
887.274	22147
887.399	22112
887.523	22078
887.648	22021
887.773	22017
887.897	22135
888.021	22135
888.146	21937
888.27	22246
888.395	22318
888.519	22139
888.643	22101
888.767	22219
888.891	22021
889.015	21888
889.139	21953
889.263	21911
889.387	21918
889.511	21941
889.635	21888
889.759	21979
889.883	21778
890.006	21937
890.13	22010
890.254	21720
890.377	21797
890.501	21652
890.624	21549
890.748	21690
890.871	21397
890.995	21363
891.118	21294
891.241	21332
891.364	21412
891.488	21488
891.611	21272
891.734	21481
891.857	21412
891.98	21374
892.103	21496
892.226	21386
892.349	21355
892.471	21131
892.594	21359
892.717	21321
892.839	21336
892.962	21317
893.085	21405
893.207	21389
893.33	21249
893.452	21195
893.575	21401
893.697	21313
893.819	21462
893.941	21443
894.064	21378
894.186	21313
894.308	21211
894.43	21378
894.552	21405
894.674	21302
894.796	21241
894.918	21302
895.04	21283
895.161	21355
895.283	21260
895.405	21226
895.526	21275
895.648	21211
895.769	21173
895.891	21264
896.012	21485
896.134	21340
896.255	21321
896.376	21279
896.498	21302
896.619	21348
896.74	21302
896.861	21363
896.982	21709
897.103	21789
897.224	21561
897.345	21595
897.466	21428
897.587	21473
897.708	21705
897.828	21511
897.949	21443
898.07	21241
898.19	21412
898.311	21637
898.431	21355
898.552	21367
898.672	21443
898.792	21572
898.913	21332
899.033	21405
899.153	21169
899.273	21085
899.393	21146
899.513	21260
899.633	21260
899.753	21142
899.873	21123
899.993	21131
900.113	21150
900.232	21230
900.352	21100
900.472	21062
900.591	20895
900.711	21024
900.83	20982
900.95	21051
901.069	21173
901.189	20883
901.308	20731
901.427	20400
901.546	20473
901.665	20564
901.784	20549
901.904	20385
902.023	20408
902.141	19970
902.26	20161
902.379	20081
902.498	20020
902.617	19890
902.735	20062
902.854	19871
902.973	19940
903.091	19674
903.21	19616
903.328	19613
903.446	19571
903.565	19480
903.683	19506
903.801	19457
903.919	19487
904.038	19369
904.156	19148
904.274	19304
904.392	19126
904.51	19084
904.627	19076
904.745	19198
904.863	19141
904.981	18882
905.098	18882
905.216	18901
905.334	18810
905.451	18928
905.569	18878
905.686	18821
905.803	18913
905.921	18795
906.038	18681
906.155	18623
906.272	18521
906.389	18517
906.506	18369
906.623	18395
906.74	18342
906.857	18254
906.974	18311
907.091	18433
907.208	18403
907.324	18380
907.441	18380
907.557	18136
907.674	18091
907.79	18068
907.907	18098
908.023	18129
908.139	18140
908.256	17942
908.372	17923
908.488	17920
908.604	17882
908.72	17729
908.836	17779
908.952	17691
909.068	17866
909.184	17790
909.3	17726
909.415	17809
909.531	17805
909.647	17474
909.762	17516
909.878	17425
909.993	17524
910.108	17459
910.224	17334
910.339	17532
910.454	17280
910.57	17227
910.685	17140
910.8	17459
910.915	17330
911.03	17151
911.145	17052
911.259	16881
911.374	17056
911.489	16953
911.604	16858
911.718	16721
911.833	16763
911.947	16679
912.062	16618
912.176	16786
912.291	16774
912.405	16767
912.519	16957
912.633	16927
912.748	16797
912.862	16626
912.976	16462
913.09	16303
913.204	16440
913.318	16599
913.431	16607
913.545	16675
913.659	16664
913.772	16538
913.886	16432
914	16405
914.113	16390
914.226	16561
914.34	16405
914.453	16211
914.566	16382
914.68	16261
914.793	16120
914.906	15975
915.019	15842
915.132	15934
915.245	15861
915.358	15975
915.47	15926
915.583	15983
915.696	16013
915.809	16067
915.921	16055
916.034	15819
916.146	15842
916.259	15797
916.371	15835
916.483	15861
916.595	15736
916.708	15800
916.82	15747
916.932	15698
917.044	15663
917.156	15599
917.268	15488
917.38	15553
917.491	15496
917.603	15496
917.715	15561
917.826	15644
917.938	15412
918.049	15374
918.161	15428
918.272	15595
918.384	15622
918.495	15431
918.606	15294
918.717	15256
918.828	15340
918.939	15272
919.05	15173
919.161	15188
919.272	15081
919.383	15089
919.494	15386
919.604	15344
919.715	15313
919.826	15039
919.936	15264
920.047	15249
920.157	15165
920.267	15355
920.378	15157
920.488	15066
920.598	15332
920.708	15492
920.818	15336
920.928	15256
921.038	15416
921.148	15447
921.258	15104
921.368	14971
921.477	14979
921.587	14914
921.697	14769
921.806	14941
921.916	14826
922.025	14602
922.134	14541
922.244	14469
922.353	14537
922.462	14366
922.571	14389
922.68	14164
922.789	14199
922.898	14229
923.007	14119
923.116	14256
923.224	14221
923.333	14115
923.442	13982
923.55	14020
923.659	13989
923.767	14088
923.876	13917
923.984	14081
924.092	13833
924.201	13902
924.309	13917
924.417	13871
924.525	13765
924.633	13868
924.741	14583
924.849	13670
924.956	13765
925.064	13643
925.172	13468
925.279	13537
925.387	13559
925.494	13521
925.602	13658
925.709	13525
925.816	13491
925.924	13521
926.031	13586
926.138	13480
926.245	13540
926.352	13464
926.459	13571
926.566	13605
926.673	13392
926.779	13324
926.886	13278
926.993	13133
927.099	13072
927.206	13072
927.312	13053
927.419	13149
927.525	13107
927.631	13099
927.737	12886
927.843	12951
927.95	12764
928.056	12909
928.162	12966
928.267	12947
928.373	13571
928.479	12966
928.585	12741
928.69	12772
928.796	12848
928.901	12700
929.007	12563
929.112	12707
929.218	12802
929.323	12608
929.428	12597
929.533	12798
929.638	12604
929.743	12555
929.848	12620
929.953	12601
930.058	12448
930.163	12232
930.267	12327
930.372	12361
930.477	12224
930.581	12422
930.685	12296
930.79	12190
930.894	12136
930.998	12125
931.103	12273
931.207	11996
931.311	11798
931.415	11710
931.519	11551
931.623	11554
