Data from test_V78500241_368.txt Node
Date: Fri Mar 25 15:44:21 CST 2022
User: usil
Spectrometer: V785-0024
Trigger mode: 0
Integration Time (sec): 4.000000E-1
Scans to average: 1
Nonlinearity correction enabled: false
Boxcar width: 0
Storing dark spectrum: false
XAxis mode: Wavelengths
Number of Pixels in Spectrum: 1024
>>>>>Begin Spectral Data<<<<<
801.071	29653
801.214	29638
801.356	29356
801.499	29341
801.641	29208
801.783	29299
801.926	29208
802.068	29143
802.211	29079
802.353	29185
802.496	29048
802.638	28809
802.78	28850
802.923	29003
803.065	28771
803.208	28790
803.35	28953
803.492	29033
803.635	28911
803.777	28995
803.919	29075
804.061	29402
804.204	29098
804.346	29147
804.488	29064
804.63	28965
804.773	29029
804.915	29079
805.057	29189
805.199	29033
805.341	29075
805.483	29193
805.626	29113
805.768	29147
805.91	29277
806.052	29242
806.194	29102
806.336	29330
806.478	29246
806.62	29140
806.762	29448
806.904	29379
807.046	29745
807.188	29703
807.33	29615
807.472	29714
807.614	29551
807.756	29520
807.898	29535
808.04	29444
808.182	29444
808.324	29322
808.465	29520
808.607	29714
808.749	29954
808.891	29961
809.033	29958
809.174	30022
809.316	29840
809.458	29923
809.6	29866
809.741	30049
809.883	30022
810.025	30083
810.166	30136
810.308	30209
810.45	30209
810.591	29984
810.733	29882
810.875	29942
811.016	29703
811.158	29699
811.299	29843
811.441	30125
811.582	30045
811.724	29935
811.865	29699
812.007	29897
812.148	29836
812.29	29733
812.431	29977
812.573	30292
812.714	30174
812.855	30403
812.997	30448
813.138	30509
813.279	30471
813.421	30213
813.562	30388
813.703	30053
813.845	30095
813.986	29752
814.127	29646
814.268	29490
814.41	29668
814.551	29452
814.692	29471
814.833	29296
814.974	29531
815.115	29493
815.256	29242
815.397	29391
815.539	29387
815.68	29372
815.821	29337
815.962	29337
816.103	29318
816.244	29174
816.385	29086
816.526	28980
816.666	28968
816.807	28828
816.948	28702
817.089	28717
817.23	28790
817.371	28744
817.512	28702
817.653	28698
817.793	28706
817.934	28755
818.075	28725
818.216	28858
818.356	28535
818.497	28656
818.638	28489
818.778	28519
818.919	28500
819.06	28508
819.2	28733
819.341	28809
819.481	28759
819.622	28790
819.762	29136
819.903	29067
820.043	28930
820.184	28911
820.324	28854
820.465	28957
820.605	28824
820.746	28904
820.886	28702
821.026	28934
821.167	28782
821.307	28748
821.447	28584
821.588	28683
821.728	28440
821.868	28261
822.008	28318
822.149	28147
822.289	28261
822.429	27857
822.569	27846
822.709	27968
822.849	27690
822.99	27644
823.13	27637
823.27	27606
823.41	27424
823.55	27412
823.69	27504
823.83	27526
823.97	27332
824.11	27264
824.25	27279
824.389	27348
824.529	27317
824.669	27260
824.809	27504
824.949	27370
825.089	27435
825.228	27275
825.368	27062
825.508	27161
825.648	27131
825.787	27188
825.927	27355
826.067	27062
826.206	27146
826.346	27051
826.485	27081
826.625	27074
826.765	27344
826.904	27104
827.044	27009
827.183	26811
827.323	26727
827.462	26940
827.601	26902
827.741	26777
827.88	26853
828.02	26731
828.159	26670
828.298	26796
828.437	26826
828.577	26743
828.716	26929
828.855	26598
828.994	26484
829.134	26545
829.273	26530
829.412	26484
829.551	26351
829.69	26412
829.829	26514
829.968	26606
830.107	26511
830.246	26442
830.385	26492
830.524	26389
830.663	26282
830.802	26202
830.941	26187
831.08	25982
831.219	26062
831.357	26065
831.496	26317
831.635	26069
831.774	25997
831.913	25966
832.051	25902
832.19	25818
832.329	25811
832.467	25704
832.606	25689
832.744	25658
832.883	25765
833.022	25674
833.16	25727
833.299	25757
833.437	25715
833.576	25849
833.714	25841
833.852	25879
833.991	25761
834.129	25913
834.267	25769
834.406	25791
834.544	25696
834.682	25670
834.821	25731
834.959	25906
835.097	25651
835.235	25830
835.373	25750
835.511	25731
835.65	25578
835.788	25445
835.926	25506
836.064	25362
836.202	25343
836.34	25727
836.478	25590
836.615	25514
836.753	25506
836.891	25620
837.029	25597
837.167	25483
837.305	25578
837.443	25324
837.58	25354
837.718	25422
837.856	25415
837.993	25396
838.131	25282
838.269	25206
838.406	25324
838.544	25179
838.681	24932
838.819	24962
838.956	24741
839.094	24764
839.231	24844
839.369	24958
839.506	25118
839.643	25141
839.781	24791
839.918	24875
840.055	24760
840.193	24726
840.33	24719
840.467	24795
840.604	24684
840.742	24985
840.879	24505
841.016	24570
841.153	24475
841.29	24829
841.427	24544
841.564	24692
841.701	24734
841.838	24593
841.975	24528
842.112	24528
842.249	24559
842.385	24437
842.522	24711
842.659	24395
842.796	24247
842.933	24289
843.069	24399
843.206	24232
843.343	24372
843.479	24403
843.616	24437
843.752	24129
843.889	24239
844.025	24220
844.162	24167
844.298	24091
844.435	24152
844.571	24194
844.708	24098
844.844	24224
844.98	24361
845.117	24220
845.253	24102
845.389	23980
845.525	24087
845.661	23942
845.798	23821
845.934	23870
846.07	23843
846.206	23901
846.342	24034
846.478	23665
846.614	23691
846.75	23444
846.886	23581
847.022	23516
847.158	23627
847.294	23558
847.429	23566
847.565	23562
847.701	23737
847.837	23151
847.972	23250
848.108	23372
848.244	23265
848.379	23052
848.515	23083
848.65	23052
848.786	23071
848.921	23136
849.057	23261
849.192	23155
849.328	23098
849.463	23147
849.598	22984
849.734	23083
849.869	22995
850.004	22854
850.14	22889
850.275	22881
850.41	22752
850.545	22869
850.68	22938
850.815	22858
850.95	22793
851.085	22915
851.22	22934
851.355	22778
851.49	22824
851.625	22763
851.76	22805
851.895	22771
852.03	22702
852.165	22729
852.299	22740
852.434	22911
852.569	22839
852.703	22809
852.838	22835
852.973	22953
853.107	22934
853.242	22812
853.376	22637
853.511	22573
853.645	22557
853.78	22908
853.914	22531
854.048	22504
854.183	22713
854.317	22801
854.451	22889
854.585	22630
854.72	22580
854.854	22812
854.988	22462
855.122	22637
855.256	22512
855.39	22565
855.524	22771
855.658	22637
855.792	22557
855.926	22569
856.06	22679
856.194	22740
856.327	22611
856.461	22596
856.595	22577
856.729	22550
856.862	22797
856.996	22611
857.13	22675
857.263	22649
857.397	22656
857.53	22653
857.664	22778
857.797	22713
857.931	22854
858.064	22698
858.197	22626
858.331	22698
858.464	22637
858.597	22550
858.731	22599
858.864	22497
858.997	22637
859.13	22641
859.263	22683
859.396	22675
859.529	22668
859.662	22550
859.795	22489
859.928	22691
860.061	22691
860.194	22660
860.327	22664
860.46	22580
860.592	22672
860.725	22752
860.858	22721
860.99	22615
861.123	22497
861.256	22440
861.388	22641
861.521	23170
861.653	22535
861.786	22284
861.918	22394
862.05	22462
862.183	22451
862.315	22485
862.447	22504
862.58	22550
862.712	22337
862.844	22242
862.976	22390
863.108	22344
863.24	22786
863.372	22192
863.504	22344
863.636	22238
863.768	22325
863.9	22329
864.032	22219
864.164	22211
864.296	22379
864.428	22386
864.559	22322
864.691	22192
864.823	22287
864.954	22303
865.086	22249
865.217	22230
865.349	22051
865.48	22204
865.612	22219
865.743	22295
865.875	22261
866.006	22112
866.137	22147
866.269	22188
866.4	22128
866.531	22192
866.662	22002
866.793	22116
866.924	22143
867.055	22070
867.186	22196
867.317	22048
867.448	22013
867.579	22067
867.71	21953
867.841	22032
867.972	22082
868.103	22086
868.233	22101
868.364	22067
868.495	22272
868.625	22211
868.756	22341
868.886	22196
869.017	22242
869.147	22466
869.278	22440
869.408	22280
869.539	22246
869.669	22341
869.799	22329
869.929	22390
870.06	22367
870.19	22668
870.32	22516
870.45	22634
870.58	22733
870.71	22790
870.84	22835
870.97	22748
871.1	22630
871.23	22885
871.36	22850
871.489	22835
871.619	22816
871.749	22862
871.879	22881
872.008	22946
872.138	22984
872.267	22847
872.397	22744
872.526	22630
872.656	22740
872.785	22763
872.915	22972
873.044	22934
873.173	23037
873.303	23128
873.432	22934
873.561	22972
873.69	22923
873.819	22847
873.948	22999
874.077	22942
874.206	23025
874.335	22987
874.464	23079
874.593	23124
874.722	23075
874.851	23181
874.979	23204
875.108	23071
875.237	23094
875.365	23006
875.494	23189
875.623	23250
875.751	23197
875.88	23208
876.008	23204
876.136	23315
876.265	23570
876.393	23627
876.521	23467
876.65	23646
876.778	23573
876.906	23543
877.034	23349
877.162	23577
877.29	23421
877.418	23512
877.546	23551
877.674	23512
877.802	23425
877.93	23493
878.058	23509
878.185	23406
878.313	23478
878.441	23429
878.568	23227
878.696	23364
878.824	23398
878.951	23516
879.079	23722
879.206	23870
879.333	23668
879.461	23562
879.588	23684
879.715	23570
879.842	23570
879.97	23398
880.097	23318
880.224	23474
880.351	23391
880.478	23204
880.605	23193
880.732	23231
880.859	23452
880.986	23315
881.112	23360
881.239	23239
881.366	22953
881.493	22946
881.619	22744
881.746	22828
881.872	22927
881.999	22919
882.125	22748
882.252	22919
882.378	22774
882.505	22919
882.631	22721
882.757	22599
882.883	22717
883.01	22550
883.136	22478
883.262	22390
883.388	22440
883.514	22596
883.64	22683
883.766	22478
883.892	22234
884.018	22382
884.143	22523
884.269	22432
884.395	22295
884.52	22109
884.646	22147
884.772	22086
884.897	22013
885.023	22177
885.148	22310
885.274	22344
885.399	22284
885.524	22067
885.65	22055
885.775	22234
885.9	22192
886.025	22306
886.15	22284
886.275	22120
886.4	22162
886.525	22128
886.65	22040
886.775	22025
886.9	22276
887.025	22253
887.149	22105
887.274	21991
887.399	22025
887.523	21930
887.648	21827
887.773	21762
887.897	21987
888.021	21899
888.146	21808
888.27	21888
888.395	22013
888.519	21903
888.643	21949
888.767	21964
888.891	21930
889.015	21679
889.139	21846
889.263	21701
889.387	21785
889.511	21880
889.635	21690
889.759	21587
889.883	21576
890.006	21694
890.13	21724
890.254	21568
890.377	21545
890.501	21458
890.624	21382
890.748	21473
890.871	21252
890.995	21203
891.118	21150
891.241	21226
891.364	21256
891.488	21355
891.611	21237
891.734	21222
891.857	21287
891.98	21222
892.103	21275
892.226	21192
892.349	21142
892.471	21036
892.594	21131
892.717	21150
892.839	21089
892.962	21222
893.085	21195
893.207	21116
893.33	21020
893.452	21112
893.575	21135
893.697	21093
893.819	21188
893.941	21294
894.064	21230
894.186	21028
894.308	21093
894.43	21119
894.552	21226
894.674	21188
894.796	21100
894.918	21100
895.04	21043
895.161	21135
895.283	21036
895.405	20971
895.526	21043
895.648	21070
895.769	21188
895.891	21199
896.012	21161
896.134	21237
896.255	21161
896.376	21070
896.498	21195
896.619	21218
896.74	21116
896.861	21104
896.982	21420
897.103	21557
897.224	21431
897.345	21389
897.466	21245
897.587	21348
897.708	21386
897.828	21393
897.949	21230
898.07	21211
898.19	21264
898.311	21367
898.431	21214
898.552	21245
898.672	21367
898.792	21279
898.913	21428
899.033	21302
899.153	21211
899.273	21028
899.393	21032
899.513	21085
899.633	21093
899.753	21032
899.873	21005
899.993	20941
900.113	20933
900.232	20979
900.352	20887
900.472	20906
900.591	20712
900.711	20906
900.83	20777
900.95	20845
901.069	20857
901.189	20724
901.308	20415
901.427	20343
901.546	20469
901.665	20328
901.784	20355
901.904	20168
902.023	20050
902.141	19986
902.26	19845
902.379	19947
902.498	19909
902.617	19776
902.735	19989
902.854	19856
902.973	19700
903.091	19514
903.21	19518
903.328	19548
903.446	19445
903.565	19316
903.683	19304
903.801	19187
903.919	19278
904.038	19263
904.156	19000
904.274	19114
904.392	19133
904.51	19084
904.627	19069
904.745	19107
904.863	19057
904.981	18897
905.098	18795
905.216	18673
905.334	18760
905.451	18650
905.569	18779
905.686	18764
905.803	18623
905.921	18467
906.038	18544
906.155	18471
906.272	18437
906.389	18376
906.506	18243
906.623	18281
906.74	18220
906.857	18068
906.974	18102
907.091	18323
907.208	18334
907.324	18171
907.441	18133
907.557	17912
907.674	18034
907.79	17748
907.907	17855
908.023	18026
908.139	17927
908.256	17984
908.372	17752
908.488	17813
908.604	17771
908.72	17566
908.836	17532
908.952	17592
909.068	17611
909.184	17661
909.3	17543
909.415	17539
909.531	17490
909.647	17296
909.762	17372
909.878	17208
909.993	17360
910.108	17261
910.224	17315
910.339	17223
910.454	17159
910.57	17189
910.685	17018
910.8	17250
910.915	17178
911.03	17086
911.145	16839
911.259	16850
911.374	16919
911.489	16782
911.604	16672
911.718	16626
911.833	16729
911.947	16603
912.062	16546
912.176	16687
912.291	16706
912.405	16550
912.519	16843
912.633	16843
912.748	16668
912.862	16546
912.976	16360
913.09	16310
913.204	16466
913.318	16413
913.431	16558
913.545	16550
913.659	16455
913.772	16356
913.886	16238
914	16192
914.113	16249
914.226	16246
914.34	16291
914.453	16131
914.566	16196
914.68	16105
914.793	16059
914.906	15842
915.019	15808
915.132	15701
915.245	15823
915.358	15842
915.47	15762
915.583	15728
915.696	15812
915.809	15880
915.921	15960
916.034	15694
916.146	15724
916.259	15667
916.371	15865
916.483	15660
916.595	15542
916.708	15557
916.82	15622
916.932	15496
917.044	15564
917.156	15557
917.268	15473
917.38	15473
917.491	15256
917.603	15412
917.715	15443
917.826	15488
917.938	15294
918.049	15203
918.161	15370
918.272	15477
918.384	15488
918.495	15294
918.606	15131
918.717	15138
918.828	15207
918.939	15169
919.05	15001
919.161	15161
919.272	15028
919.383	14960
919.494	15199
919.604	15226
919.715	15058
919.826	15009
919.936	15070
920.047	15116
920.157	15066
920.267	15256
920.378	15085
920.488	14960
920.598	15249
920.708	15321
920.818	15150
920.928	15249
921.038	15370
921.148	15287
921.258	14990
921.368	14895
921.477	14807
921.587	14800
921.697	14636
921.806	14834
921.916	14617
922.025	14473
922.134	14358
922.244	14355
922.353	14530
922.462	14282
922.571	14210
922.68	14183
922.789	14073
922.898	14084
923.007	13936
923.116	14024
923.224	14107
923.333	13997
923.442	13906
923.55	13890
923.659	13883
923.767	13955
923.876	13849
923.984	13879
924.092	13738
924.201	13803
924.309	13795
924.417	13807
924.525	13723
924.633	13731
924.741	14530
924.849	13480
924.956	13594
925.064	13464
925.172	13350
925.279	13521
925.387	13419
925.494	13388
925.602	13460
925.709	13510
925.816	13392
925.924	13327
926.031	13472
926.138	13438
926.245	13369
926.352	13259
926.459	13384
926.566	13472
926.673	13320
926.779	13228
926.886	13084
926.993	13107
927.099	12973
927.206	12939
927.312	12943
927.419	12958
927.525	12966
927.631	12958
927.737	12913
927.843	12852
927.95	12783
928.056	12829
928.162	12840
928.267	12939
928.373	13266
928.479	12882
928.585	12654
928.69	12730
928.796	12848
928.901	12650
929.007	12547
929.112	12623
929.218	12566
929.323	12551
929.428	12563
929.533	12669
929.638	12426
929.743	12490
929.848	12395
929.953	12509
930.058	12330
930.163	12106
930.267	12197
930.372	12239
930.477	12140
930.581	12308
930.685	12140
930.79	12091
930.894	12121
930.998	12045
931.103	12197
931.207	11840
931.311	11741
931.415	11672
931.519	11417
931.623	11497
