Data from test_V78500241_3425.txt Node
Date: Fri Mar 25 16:05:31 CST 2022
User: usil
Spectrometer: V785-0024
Trigger mode: 0
Integration Time (sec): 4.000000E-1
Scans to average: 1
Nonlinearity correction enabled: false
Boxcar width: 0
Storing dark spectrum: false
XAxis mode: Wavelengths
Number of Pixels in Spectrum: 1024
>>>>>Begin Spectral Data<<<<<
801.071	28786
801.214	28782
801.356	28645
801.499	28455
801.641	28474
801.783	28299
801.926	28436
802.068	28443
802.211	28310
802.353	28166
802.496	28025
802.638	28036
802.78	28032
802.923	28063
803.065	27983
803.208	28074
803.35	28078
803.492	28211
803.635	28181
803.777	28158
803.919	28291
804.061	28592
804.204	28253
804.346	28226
804.488	28124
804.63	28139
804.773	28116
804.915	28265
805.057	28382
805.199	28337
805.341	28341
805.483	28443
805.626	28379
805.768	28299
805.91	28447
806.052	28447
806.194	28379
806.336	28459
806.478	28481
806.62	28489
806.762	28729
806.904	28725
807.046	29071
807.188	28793
807.33	28976
807.472	28953
807.614	28934
807.756	28820
807.898	28805
808.04	28656
808.182	28630
808.324	28816
808.465	29025
808.607	29098
808.749	29147
808.891	29250
809.033	29273
809.174	29155
809.316	29178
809.458	29212
809.6	29181
809.741	29360
809.883	29181
810.025	29417
810.166	29375
810.308	29482
810.45	29482
810.591	29303
810.733	29311
810.875	29155
811.016	29124
811.158	29105
811.299	29166
811.441	29383
811.582	29334
811.724	29223
811.865	29220
812.007	29067
812.148	29273
812.29	29197
812.431	29341
812.573	29421
812.714	29729
812.855	29520
812.997	29653
813.138	29878
813.279	29931
813.421	29604
813.562	29577
813.703	29448
813.845	29292
813.986	29269
814.127	28995
814.268	28999
814.41	28881
814.551	28862
814.692	28999
814.833	28858
814.974	28908
815.115	29029
815.256	28839
815.397	28698
815.539	28736
815.68	28523
815.821	28729
815.962	28683
816.103	28729
816.244	28672
816.385	28618
816.526	28459
816.666	28291
816.807	28261
816.948	28272
817.089	28246
817.23	28223
817.371	28131
817.512	28367
817.653	28078
817.793	28147
817.934	28135
818.075	28135
818.216	28371
818.356	28204
818.497	28029
818.638	27930
818.778	27983
818.919	27922
819.06	28013
819.2	28093
819.341	28230
819.481	28268
819.622	28192
819.762	28592
819.903	28386
820.043	28379
820.184	28318
820.324	28284
820.465	28474
820.605	28459
820.746	28318
820.886	28177
821.026	28409
821.167	28329
821.307	28382
821.447	28215
821.588	28029
821.728	28017
821.868	27747
822.008	27724
822.149	27755
822.289	27606
822.429	27386
822.569	27348
822.709	27397
822.849	27344
822.99	27192
823.13	27028
823.27	27173
823.41	27032
823.55	26933
823.69	27085
823.83	27062
823.97	26902
824.11	26792
824.25	26762
824.389	26857
824.529	26876
824.669	26929
824.809	26708
824.949	26982
825.089	26952
825.228	26899
825.368	26708
825.508	26659
825.648	26807
825.787	26708
825.927	26762
826.067	26670
826.206	26777
826.346	26785
826.485	26830
826.625	26762
826.765	26838
826.904	26804
827.044	26533
827.183	26564
827.323	26339
827.462	26415
827.601	26503
827.741	26305
827.88	26518
828.02	26366
828.159	26286
828.298	26465
828.437	26450
828.577	26351
828.716	26461
828.855	26267
828.994	26096
829.134	26180
829.273	26130
829.412	26161
829.551	26168
829.69	26065
829.829	26244
829.968	26320
830.107	26126
830.246	26065
830.385	26122
830.524	26005
830.663	25875
830.802	26016
830.941	25818
831.08	25841
831.219	25712
831.357	25670
831.496	25970
831.635	25830
831.774	25689
831.913	25616
832.051	25563
832.19	25453
832.329	25575
832.467	25540
832.606	25297
832.744	25335
832.883	25422
833.022	25381
833.16	25419
833.299	25434
833.437	25346
833.576	25601
833.714	25514
833.852	25476
833.991	25582
834.129	25472
834.267	25582
834.406	25460
834.544	25514
834.682	25457
834.821	25499
834.959	25559
835.097	25354
835.235	25529
835.373	25358
835.511	25449
835.65	25362
835.788	25331
835.926	25206
836.064	25072
836.202	25122
836.34	25354
836.478	25293
836.615	25198
836.753	25221
836.891	25346
837.029	25400
837.167	25156
837.305	25236
837.443	25175
837.58	25088
837.718	25247
837.856	25072
837.993	25141
838.131	25110
838.269	25031
838.406	24920
838.544	24882
838.681	24772
838.819	24749
838.956	24536
839.094	24585
839.231	24692
839.369	24715
839.506	24947
839.643	24806
839.781	24711
839.918	24391
840.055	24646
840.193	24517
840.33	24471
840.467	24494
840.604	24551
840.742	24768
840.879	24350
841.016	24384
841.153	24376
841.29	24646
841.427	24505
841.564	24486
841.701	24391
841.838	24403
841.975	24296
842.112	24464
842.249	24216
842.385	24163
842.522	24441
842.659	24254
842.796	24277
842.933	24239
843.069	24136
843.206	24190
843.343	24281
843.479	24251
843.616	24292
843.752	23973
843.889	24026
844.025	24239
844.162	23927
844.298	24041
844.435	23984
844.571	23961
844.708	24022
844.844	24171
844.98	24072
845.117	24133
845.253	24026
845.389	23817
845.525	23889
845.661	23874
845.798	23813
845.934	23771
846.07	23760
846.206	23817
846.342	23828
846.478	23558
846.614	23528
846.75	23410
846.886	23459
847.022	23528
847.158	23600
847.294	23474
847.429	23684
847.565	23459
847.701	23703
847.837	23159
847.972	23132
848.108	23220
848.244	23318
848.379	23029
848.515	23083
848.65	22984
848.786	23003
848.921	23086
849.057	23052
849.192	23185
849.328	23064
849.463	23006
849.598	22946
849.734	22919
849.869	22774
850.004	22790
850.14	22938
850.275	22881
850.41	22797
850.545	22733
850.68	22896
850.815	22877
850.95	22797
851.085	23071
851.22	23010
851.355	22816
851.49	22748
851.625	22713
851.76	22771
851.895	22653
852.03	22763
852.165	22904
852.299	22828
852.434	22930
852.569	22885
852.703	22828
852.838	22881
852.973	22873
853.107	22927
853.242	22717
853.376	22694
853.511	22459
853.645	22603
853.78	22736
853.914	22535
854.048	22485
854.183	22596
854.317	22691
854.451	22869
854.585	22637
854.72	22656
854.854	22782
854.988	22504
855.122	22634
855.256	22485
855.39	22694
855.524	22649
855.658	22660
855.792	22771
855.926	22687
856.06	22645
856.194	22660
856.327	22478
856.461	22535
856.595	22573
856.729	22653
856.862	22763
856.996	22664
857.13	22706
857.263	22771
857.397	22687
857.53	22607
857.664	22733
857.797	22641
857.931	22717
858.064	22577
858.197	22675
858.331	22546
858.464	22596
858.597	22500
858.731	22672
858.864	22630
858.997	22653
859.13	22691
859.263	22660
859.396	22733
859.529	22626
859.662	22618
859.795	22508
859.928	22729
860.061	22805
860.194	22915
860.327	22759
860.46	22687
860.592	22801
860.725	22866
860.858	22668
860.99	22683
861.123	22535
861.256	22489
861.388	22588
861.521	23334
861.653	22428
861.786	22516
861.918	22432
862.05	22489
862.183	22523
862.315	22626
862.447	22523
862.58	22504
862.712	22394
862.844	22344
862.976	22325
863.108	22432
863.24	22793
863.372	22348
863.504	22291
863.636	22428
863.768	22474
863.9	22333
864.032	22284
864.164	22303
864.296	22386
864.428	22356
864.559	22466
864.691	22405
864.823	22306
864.954	22322
865.086	22451
865.217	22299
865.349	22135
865.48	22211
865.612	22303
865.743	22295
865.875	22253
866.006	22192
866.137	22105
866.269	22242
866.4	22177
866.531	22158
866.662	22078
866.793	22082
866.924	22147
867.055	22299
867.186	22124
867.317	22082
867.448	22162
867.579	22128
867.71	22044
867.841	22078
867.972	22238
868.103	22116
868.233	22192
868.364	22158
868.495	22261
868.625	22409
868.756	22432
868.886	22352
869.017	22409
869.147	22474
869.278	22615
869.408	22394
869.539	22447
869.669	22432
869.799	22474
869.929	22550
870.06	22542
870.19	22687
870.32	22660
870.45	22752
870.58	22736
870.71	22927
870.84	22949
870.97	22698
871.1	22847
871.23	23025
871.36	23105
871.489	22850
871.619	22900
871.749	22930
871.879	22972
872.008	23117
872.138	22972
872.267	23018
872.397	22790
872.526	22786
872.656	22725
872.785	22866
872.915	23044
873.044	23098
873.173	22904
873.303	23022
873.432	23117
873.561	23162
873.69	22999
873.819	23006
873.948	23094
874.077	22972
874.206	23071
874.335	23052
874.464	23067
874.593	23299
874.722	23265
874.851	23284
874.979	23216
875.108	23334
875.237	23193
875.365	23185
875.494	23083
875.623	23231
875.751	23064
875.88	23193
876.008	23315
876.136	23345
876.265	23608
876.393	23699
876.521	23707
876.65	23634
876.778	23619
876.906	23539
877.034	23471
877.162	23486
877.29	23543
877.418	23501
877.546	23509
877.674	23558
877.802	23512
877.93	23539
878.058	23520
878.185	23478
878.313	23493
878.441	23455
878.568	23379
878.696	23490
878.824	23501
878.951	23627
879.079	23783
879.206	23878
879.333	23684
879.461	23737
879.588	23661
879.715	23790
879.842	23988
879.97	23627
880.097	23337
880.224	23372
880.351	23402
880.478	23436
880.605	23353
880.732	23379
880.859	23577
880.986	23284
881.112	23440
881.239	23269
881.366	23155
881.493	22976
881.619	22999
881.746	23071
881.872	22938
881.999	23014
882.125	22862
882.252	22957
882.378	22892
882.505	23006
882.631	22828
882.757	22763
882.883	22698
883.01	22687
883.136	22584
883.262	22466
883.388	22440
883.514	22542
883.64	22641
883.766	22569
883.892	22462
884.018	22424
884.143	22485
884.269	22599
884.395	22413
884.52	22272
884.646	22261
884.772	22177
884.897	22169
885.023	22337
885.148	22287
885.274	22333
885.399	22261
885.524	22325
885.65	22204
885.775	22329
885.9	22196
886.025	22303
886.15	22219
886.275	22173
886.4	22120
886.525	22112
886.65	22105
886.775	22257
886.9	22375
887.025	22310
887.149	22032
887.274	22040
887.399	22040
887.523	22002
887.648	21945
887.773	21880
887.897	22101
888.021	22010
888.146	21880
888.27	22063
888.395	22143
888.519	22162
888.643	22059
888.767	21998
888.891	21953
889.015	21800
889.139	21880
889.263	21819
889.387	21785
889.511	22010
889.635	21911
889.759	21755
889.883	21770
890.006	21781
890.13	21907
890.254	21720
890.377	21789
890.501	21671
890.624	21485
890.748	21580
890.871	21374
890.995	21325
891.118	21321
891.241	21382
891.364	21275
891.488	21397
891.611	21416
891.734	21302
891.857	21393
891.98	21230
892.103	21275
892.226	21370
892.349	21230
892.471	21131
892.594	21317
892.717	21359
892.839	21359
892.962	21260
893.085	21306
893.207	21230
893.33	21116
893.452	21180
893.575	21192
893.697	21138
893.819	21511
893.941	21348
894.064	21351
894.186	21222
894.308	21188
894.43	21241
894.552	21317
894.674	21298
894.796	21100
894.918	21192
895.04	21192
895.161	21393
895.283	21192
895.405	21127
895.526	21123
895.648	21165
895.769	21169
895.891	21268
896.012	21279
896.134	21245
896.255	21336
896.376	21272
896.498	21138
896.619	21176
896.74	21089
896.861	21214
896.982	21454
897.103	21599
897.224	21561
897.345	21504
897.466	21222
897.587	21336
897.708	21515
897.828	21348
897.949	21313
898.07	21089
898.19	21310
898.311	21591
898.431	21298
898.552	21321
898.672	21447
898.792	21633
898.913	21389
899.033	21363
899.153	21302
899.273	21237
899.393	21119
899.513	21192
899.633	21081
899.753	21207
899.873	21100
899.993	21066
900.113	20914
900.232	21104
900.352	21074
900.472	21062
900.591	20918
900.711	20921
900.83	20902
900.95	21001
901.069	20990
901.189	20758
901.308	20568
901.427	20469
901.546	20469
901.665	20590
901.784	20358
901.904	20278
902.023	20282
902.141	20039
902.26	19982
902.379	20043
902.498	19959
902.617	19986
902.735	19940
902.854	19902
902.973	19833
903.091	19620
903.21	19635
903.328	19655
903.446	19582
903.565	19441
903.683	19441
903.801	19225
903.919	19381
904.038	19339
904.156	19179
904.274	19198
904.392	19209
904.51	19042
904.627	19156
904.745	19198
904.863	19236
904.981	18966
905.098	18962
905.216	18821
905.334	18791
905.451	18837
905.569	18795
905.686	18878
905.803	18920
905.921	18658
906.038	18795
906.155	18612
906.272	18623
906.389	18517
906.506	18372
906.623	18448
906.74	18330
906.857	18258
906.974	18338
907.091	18403
907.208	18486
907.324	18304
907.441	18121
907.557	18072
907.674	18163
907.79	17980
907.907	18038
908.023	18102
908.139	17996
908.256	17984
908.372	17961
908.488	17920
908.604	17874
908.72	17802
908.836	17779
908.952	17794
909.068	17809
909.184	17878
909.3	17809
909.415	17767
909.531	17760
909.647	17444
909.762	17421
909.878	17490
909.993	17509
910.108	17414
910.224	17395
910.339	17459
910.454	17299
910.57	17376
910.685	17223
910.8	17570
910.915	17463
911.03	17231
911.145	17048
911.259	17067
911.374	17075
911.489	16987
911.604	16862
911.718	16755
911.833	16809
911.947	16611
912.062	16664
912.176	16904
912.291	16774
912.405	16839
912.519	16976
912.633	16953
912.748	16866
912.862	16736
912.976	16626
913.09	16493
913.204	16569
913.318	16580
913.431	16683
913.545	16717
913.659	16607
913.772	16569
913.886	16508
914	16421
914.113	16424
914.226	16386
914.34	16337
914.453	16306
914.566	16500
914.68	16287
914.793	16230
914.906	15991
915.019	15922
915.132	15873
915.245	15964
915.358	16044
915.47	15949
915.583	15953
915.696	15930
915.809	16192
915.921	16097
916.034	15915
916.146	15926
916.259	15869
916.371	15979
916.483	15778
916.595	15778
916.708	15770
916.82	15797
916.932	15724
917.044	15797
917.156	15728
917.268	15580
917.38	15538
917.491	15641
917.603	15526
917.715	15675
917.826	15679
917.938	15488
918.049	15462
918.161	15492
918.272	15625
918.384	15663
918.495	15545
918.606	15291
918.717	15310
918.828	15378
918.939	15378
919.05	15252
919.161	15214
919.272	15123
919.383	15241
919.494	15329
919.604	15500
919.715	15378
919.826	15154
919.936	15157
920.047	15332
920.157	15283
920.267	15359
920.378	15294
920.488	15321
920.598	15397
920.708	15545
920.818	15416
920.928	15401
921.038	15587
921.148	15523
921.258	15260
921.368	15043
921.477	14963
921.587	14994
921.697	14785
921.806	14914
921.916	14838
922.025	14674
922.134	14613
922.244	14575
922.353	14667
922.462	14522
922.571	14522
922.68	14286
922.789	14313
922.898	14339
923.007	14172
923.116	14320
923.224	14240
923.333	14202
923.442	14180
923.55	14115
923.659	14202
923.767	14039
923.876	13989
923.984	14100
924.092	13978
924.201	14088
924.309	13989
924.417	14077
924.525	13879
924.633	13936
924.741	14838
924.849	13750
924.956	13845
925.064	13700
925.172	13662
925.279	13666
925.387	13712
925.494	13647
925.602	13681
925.709	13757
925.816	13575
925.924	13575
926.031	13681
926.138	13590
926.245	13658
926.352	13445
926.459	13632
926.566	13704
926.673	13487
926.779	13426
926.886	13327
926.993	13301
927.099	13247
927.206	13149
927.312	13152
927.419	13179
927.525	13251
927.631	13198
927.737	13015
927.843	13034
927.95	12958
928.056	13046
928.162	13061
928.267	13072
928.373	13696
928.479	13175
928.585	12875
928.69	13008
928.796	13034
928.901	12928
929.007	12760
929.112	12954
929.218	12833
929.323	12825
929.428	12734
929.533	12814
929.638	12700
929.743	12696
929.848	12768
929.953	12749
930.058	12582
930.163	12403
930.267	12445
930.372	12502
930.477	12315
930.581	12555
930.685	12464
930.79	12315
930.894	12315
930.998	12247
931.103	12292
931.207	12045
931.311	12007
931.415	11908
931.519	11661
931.623	11623
