Data from test_V78500241_1627.txt Node
Date: Fri Mar 25 15:53:04 CST 2022
User: usil
Spectrometer: V785-0024
Trigger mode: 0
Integration Time (sec): 4.000000E-1
Scans to average: 1
Nonlinearity correction enabled: false
Boxcar width: 0
Storing dark spectrum: false
XAxis mode: Wavelengths
Number of Pixels in Spectrum: 1024
>>>>>Begin Spectral Data<<<<<
801.071	28112
801.214	28101
801.356	27701
801.499	27778
801.641	27732
801.783	27663
801.926	27618
802.068	27568
802.211	27770
802.353	27462
802.496	27439
802.638	27283
802.78	27188
802.923	27207
803.065	27249
803.208	27325
803.35	27355
803.492	27572
803.635	27610
803.777	27492
803.919	27568
804.061	27778
804.204	27610
804.346	27431
804.488	27530
804.63	27496
804.773	27564
804.915	27648
805.057	27637
805.199	27545
805.341	27568
805.483	27660
805.626	27603
805.768	27538
805.91	27690
806.052	27842
806.194	27633
806.336	27930
806.478	27587
806.62	27701
806.762	27736
806.904	27994
807.046	28166
807.188	28036
807.33	27956
807.472	28154
807.614	27956
807.756	28021
807.898	27884
808.04	27892
808.182	27953
808.324	27945
808.465	27956
808.607	28185
808.749	28204
808.891	28386
809.033	28413
809.174	28481
809.316	28299
809.458	28474
809.6	28230
809.741	28363
809.883	28417
810.025	28653
810.166	28516
810.308	28634
810.45	28599
810.591	28466
810.733	28287
810.875	28306
811.016	28181
811.158	28166
811.299	28451
811.441	28443
811.582	28459
811.724	28424
811.865	28329
812.007	28363
812.148	28226
812.29	28398
812.431	28413
812.573	28653
812.714	28653
812.855	28896
812.997	28972
813.138	29044
813.279	28968
813.421	28759
813.562	28755
813.703	28626
813.845	28527
813.986	28310
814.127	28120
814.268	27968
814.41	27991
814.551	27930
814.692	28109
814.833	27941
814.974	27918
815.115	27972
815.256	27869
815.397	27914
815.539	27747
815.68	27766
815.821	27682
815.962	27747
816.103	27713
816.244	27766
816.385	27625
816.526	27538
816.666	27302
816.807	27119
816.948	27450
817.089	27367
817.23	27496
817.371	27188
817.512	27294
817.653	27279
817.793	27291
817.934	27329
818.075	27340
818.216	27237
818.356	27218
818.497	27173
818.638	26994
818.778	27085
818.919	27123
819.06	27180
819.2	27230
819.341	27348
819.481	27279
819.622	27515
819.762	27564
819.903	27447
820.043	27420
820.184	27397
820.324	27427
820.465	27393
820.605	27264
820.746	27412
820.886	27340
821.026	27439
821.167	27336
821.307	27492
821.447	27382
821.588	27222
821.728	27192
821.868	27020
822.008	26826
822.149	26781
822.289	26644
822.429	26530
822.569	26453
822.709	26343
822.849	26134
822.99	26267
823.13	26180
823.27	26168
823.41	26069
823.55	26035
823.69	26050
823.83	26088
823.97	26081
824.11	26027
824.25	25830
824.389	25883
824.529	25955
824.669	25913
824.809	26001
824.949	26164
825.089	26103
825.228	25944
825.368	25909
825.508	25765
825.648	25769
825.787	25841
825.927	25841
826.067	25742
826.206	25712
826.346	25845
826.485	25814
826.625	25731
826.765	25909
826.904	25841
827.044	25499
827.183	25441
827.323	25529
827.462	25605
827.601	25556
827.741	25449
827.88	25468
828.02	25362
828.159	25373
828.298	25548
828.437	25499
828.577	25400
828.716	25445
828.855	25346
828.994	25217
829.134	25122
829.273	25228
829.412	25152
829.551	25107
829.69	25114
829.829	25255
829.968	25335
830.107	25209
830.246	25171
830.385	25145
830.524	25107
830.663	24939
830.802	24890
830.941	24738
831.08	24814
831.219	24768
831.357	24852
831.496	25099
831.635	24688
831.774	24688
831.913	24703
832.051	24795
832.19	24525
832.329	24563
832.467	24452
832.606	24395
832.744	24376
832.883	24380
833.022	24350
833.16	24479
833.299	24555
833.437	24563
833.576	24620
833.714	24498
833.852	24551
833.991	24517
834.129	24559
834.267	24696
834.406	24433
834.544	24490
834.682	24589
834.821	24544
834.959	24597
835.097	24418
835.235	24646
835.373	24593
835.511	24544
835.65	24509
835.788	24521
835.926	24330
836.064	24163
836.202	24171
836.34	24376
836.478	24384
836.615	24410
836.753	24300
836.891	24505
837.029	24365
837.167	24426
837.305	24216
837.443	24201
837.58	24197
837.718	24327
837.856	24190
837.993	24068
838.131	24045
838.269	23954
838.406	24152
838.544	24102
838.681	23847
838.819	23859
838.956	23524
839.094	23627
839.231	23752
839.369	23855
839.506	24007
839.643	23927
839.781	23585
839.918	23501
840.055	23710
840.193	23684
840.33	23562
840.467	23596
840.604	23562
840.742	23889
840.879	23425
841.016	23391
841.153	23417
841.29	23630
841.427	23630
841.564	23668
841.701	23543
841.838	23455
841.975	23334
842.112	23455
842.249	23429
842.385	23330
842.522	23653
842.659	23440
842.796	23261
842.933	23246
843.069	23204
843.206	23189
843.343	23345
843.479	23326
843.616	23261
843.752	23044
843.889	23071
844.025	23250
844.162	23102
844.298	23166
844.435	23216
844.571	23014
844.708	23189
844.844	23246
844.98	23235
845.117	23105
845.253	23090
845.389	22927
845.525	22965
845.661	22911
845.798	22866
845.934	22900
846.07	22828
846.206	22820
846.342	22866
846.478	22717
846.614	22672
846.75	22478
846.886	22607
847.022	22618
847.158	22577
847.294	22557
847.429	22561
847.565	22504
847.701	22869
847.837	22306
847.972	22131
848.108	22344
848.244	22485
848.379	22093
848.515	22192
848.65	22105
848.786	22048
848.921	22177
849.057	22246
849.192	22268
849.328	22253
849.463	22131
849.598	21983
849.734	21991
849.869	21987
850.004	21819
850.14	22032
850.275	21960
850.41	21876
850.545	21781
850.68	21808
850.815	21846
850.95	21937
851.085	21922
851.22	21998
851.355	21865
851.49	21922
851.625	21880
851.76	21857
851.895	21823
852.03	21705
852.165	21850
852.299	21854
852.434	22013
852.569	21838
852.703	21911
852.838	21945
852.973	22067
853.107	21945
853.242	21804
853.376	21724
853.511	21652
853.645	21713
853.78	21922
853.914	21739
854.048	21629
854.183	21641
854.317	21679
854.451	21964
854.585	21732
854.72	21724
854.854	21797
854.988	21682
855.122	21835
855.256	21618
855.39	21797
855.524	21778
855.658	21625
855.792	21694
855.926	21629
856.06	21835
856.194	21831
856.327	21690
856.461	21690
856.595	21625
856.729	21732
856.862	21732
856.996	21682
857.13	21899
857.263	21888
857.397	21827
857.53	21694
857.664	21766
857.797	21759
857.931	21827
858.064	21743
858.197	21846
858.331	21701
858.464	21667
858.597	21641
858.731	21694
858.864	21667
858.997	21698
859.13	21728
859.263	21838
859.396	21732
859.529	21789
859.662	21637
859.795	21610
859.928	21762
860.061	21808
860.194	21903
860.327	21865
860.46	21641
860.592	21873
860.725	21987
860.858	21835
860.99	21808
861.123	21724
861.256	21774
861.388	21770
861.521	22379
861.653	21530
861.786	21416
861.918	21526
862.05	21686
862.183	21660
862.315	21842
862.447	21553
862.58	21694
862.712	21511
862.844	21401
862.976	21568
863.108	21557
863.24	21816
863.372	21348
863.504	21435
863.636	21359
863.768	21504
863.9	21534
864.032	21359
864.164	21374
864.296	21469
864.428	21523
864.559	21561
864.691	21557
864.823	21504
864.954	21412
865.086	21564
865.217	21351
865.349	21321
865.48	21237
865.612	21367
865.743	21420
865.875	21313
866.006	21226
866.137	21378
866.269	21367
866.4	21363
866.531	21359
866.662	21249
866.793	21226
866.924	21283
867.055	21344
867.186	21264
867.317	21195
867.448	21062
867.579	21249
867.71	21135
867.841	21260
867.972	21344
868.103	21275
868.233	21279
868.364	21195
868.495	21332
868.625	21492
868.756	21561
868.886	21443
869.017	21538
869.147	21591
869.278	21660
869.408	21549
869.539	21450
869.669	21606
869.799	21443
869.929	21587
870.06	21595
870.19	21854
870.32	21762
870.45	21789
870.58	21911
870.71	21899
870.84	22002
870.97	21884
871.1	21838
871.23	22120
871.36	22105
871.489	22090
871.619	22048
871.749	22162
871.879	22090
872.008	22147
872.138	22067
872.267	22128
872.397	21953
872.526	21945
872.656	21994
872.785	21800
872.915	22112
873.044	22204
873.173	22154
873.303	22112
873.432	22223
873.561	22337
873.69	22112
873.819	22162
873.948	22074
874.077	22147
874.206	22067
874.335	22112
874.464	22280
874.593	22348
874.722	22375
874.851	22318
874.979	22360
875.108	22375
875.237	22299
875.365	22204
875.494	22207
875.623	22405
875.751	22375
875.88	22215
876.008	22550
876.136	22500
876.265	22565
876.393	22881
876.521	22915
876.65	22744
876.778	22828
876.906	22691
877.034	22698
877.162	22641
877.29	22733
877.418	22641
877.546	22752
877.674	22573
877.802	22713
877.93	22710
878.058	22694
878.185	22550
878.313	22603
878.441	22611
878.568	22630
878.696	22653
878.824	22748
878.951	22717
879.079	22911
879.206	22953
879.333	22904
879.461	22607
879.588	22866
879.715	22919
879.842	23128
879.97	22767
880.097	22440
880.224	22527
880.351	22504
880.478	22592
880.605	22451
880.732	22459
880.859	22668
880.986	22371
881.112	22542
881.239	22299
881.366	22333
881.493	22211
881.619	22086
881.746	22143
881.872	22017
881.999	21975
882.125	21956
882.252	22078
882.378	21979
882.505	22093
882.631	21968
882.757	21774
882.883	21827
883.01	21766
883.136	21785
883.262	21610
883.388	21587
883.514	21778
883.64	21793
883.766	21720
883.892	21534
884.018	21557
884.143	21576
884.269	21778
884.395	21473
884.52	21348
884.646	21450
884.772	21351
884.897	21329
885.023	21458
885.148	21454
885.274	21622
885.399	21519
885.524	21329
885.65	21351
885.775	21386
885.9	21359
886.025	21500
886.15	21542
886.275	21405
886.4	21287
886.525	21260
886.65	21431
886.775	21291
886.9	21572
887.025	21576
887.149	21405
887.274	21252
887.399	21230
887.523	21195
887.648	21135
887.773	21017
887.897	21184
888.021	21214
888.146	21100
888.27	21359
888.395	21184
888.519	21249
888.643	21245
888.767	21218
888.891	21188
889.015	21009
889.139	21062
889.263	21020
889.387	21062
889.511	21230
889.635	21024
889.759	21108
889.883	20864
890.006	21024
890.13	21119
890.254	20925
890.377	20906
890.501	20758
890.624	20678
890.748	20807
890.871	20632
890.995	20606
891.118	20571
891.241	20507
891.364	20663
891.488	20667
891.611	20663
891.734	20629
891.857	20602
891.98	20518
892.103	20575
892.226	20598
892.349	20522
892.471	20495
892.594	20514
892.717	20480
892.839	20495
892.962	20465
893.085	20594
893.207	20480
893.33	20355
893.452	20446
893.575	20648
893.697	20518
893.819	20609
893.941	20663
894.064	20583
894.186	20431
894.308	20366
894.43	20503
894.552	20629
894.674	20446
894.796	20404
894.918	20457
895.04	20507
895.161	20503
895.283	20568
895.405	20377
895.526	20465
895.648	20442
895.769	20514
895.891	20571
896.012	20560
896.134	20495
896.255	20480
896.376	20457
896.498	20492
896.619	20446
896.74	20366
896.861	20400
896.982	20708
897.103	20845
897.224	20655
897.345	20693
897.466	20609
897.587	20625
897.708	20796
897.828	20796
897.949	20575
898.07	20389
898.19	20644
898.311	20621
898.431	20568
898.552	20648
898.672	20678
898.792	20724
898.913	20701
899.033	20640
899.153	20526
899.273	20374
899.393	20526
899.513	20431
899.633	20389
899.753	20507
899.873	20355
899.993	20358
900.113	20408
900.232	20450
900.352	20294
900.472	20256
900.591	20142
900.711	20202
900.83	20168
900.95	20282
901.069	20313
901.189	20107
901.308	19826
901.427	19746
901.546	19723
901.665	19864
901.784	19750
901.904	19628
902.023	19502
902.141	19365
902.26	19343
902.379	19335
902.498	19202
902.617	19339
902.735	19301
902.854	19297
902.973	19179
903.091	19076
903.21	18909
903.328	18867
903.446	18924
903.565	18650
903.683	18715
903.801	18601
903.919	18741
904.038	18677
904.156	18460
904.274	18696
904.392	18483
904.51	18513
904.627	18433
904.745	18498
904.863	18475
904.981	18334
905.098	18129
905.216	18163
905.334	18174
905.451	18148
905.569	18152
905.686	18296
905.803	18140
905.921	18034
906.038	18041
906.155	18015
906.272	17851
906.389	17794
906.506	17786
906.623	17653
906.74	17783
906.857	17604
906.974	17703
907.091	17817
907.208	17851
907.324	17745
907.441	17535
907.557	17539
907.674	17410
907.79	17421
907.907	17391
908.023	17478
908.139	17474
908.256	17341
908.372	17223
908.488	17242
908.604	17079
908.72	17113
908.836	17170
908.952	17090
909.068	17200
909.184	17254
909.3	17113
909.415	17178
909.531	17083
909.647	16900
909.762	16729
909.878	16866
909.993	16839
910.108	16877
910.224	16896
910.339	16793
910.454	16573
910.57	16596
910.685	16577
910.8	16885
910.915	16782
911.03	16580
911.145	16512
911.259	16424
911.374	16508
911.489	16382
911.604	16169
911.718	16196
911.833	16223
911.947	16044
912.062	15941
912.176	16234
912.291	16219
912.405	16173
912.519	16417
912.633	16451
912.748	16200
912.862	16238
912.976	15953
913.09	15804
913.204	16021
913.318	16017
913.431	16188
913.545	16105
913.659	16051
913.772	15926
913.886	15724
914	15789
914.113	15915
914.226	15953
914.34	15808
914.453	15686
914.566	15755
914.68	15641
914.793	15515
914.906	15428
915.019	15344
915.132	15287
915.245	15370
915.358	15408
915.47	15443
915.583	15408
915.696	15363
915.809	15428
915.921	15515
916.034	15382
916.146	15211
916.259	15207
916.371	15313
916.483	15378
916.595	15222
916.708	15252
916.82	15161
916.932	15135
917.044	15279
917.156	15093
917.268	15005
917.38	15085
917.491	14990
917.603	15070
917.715	15066
917.826	15081
917.938	14975
918.049	14819
918.161	14975
918.272	15150
918.384	15142
918.495	14971
918.606	14781
918.717	14746
918.828	14682
918.939	14853
919.05	14735
919.161	14750
919.272	14579
919.383	14571
919.494	14834
919.604	15089
919.715	14750
919.826	14807
919.936	14785
920.047	14899
920.157	14819
920.267	14929
920.378	14750
920.488	14777
920.598	14921
920.708	15116
920.818	14910
920.928	14914
921.038	15097
921.148	14975
921.258	14777
921.368	14625
921.477	14457
921.587	14438
921.697	14286
921.806	14454
921.916	14343
922.025	14123
922.134	14031
922.244	14065
922.353	14164
922.462	13940
922.571	13963
922.68	13852
922.789	13734
922.898	13704
923.007	13765
923.116	13662
923.224	13769
923.333	13719
923.442	13693
923.55	13601
923.659	13556
923.767	13696
923.876	13636
923.984	13624
924.092	13339
924.201	13464
924.309	13434
924.417	13502
924.525	13320
924.633	13392
924.741	14385
924.849	13255
924.956	13441
925.064	13274
925.172	13110
925.279	13137
925.387	13160
925.494	13228
925.602	13308
925.709	13145
925.816	13069
925.924	13145
926.031	13187
926.138	13103
926.245	13198
926.352	12993
926.459	13168
926.566	13156
926.673	12962
926.779	12894
926.886	12932
926.993	12684
927.099	12768
927.206	12719
927.312	12696
927.419	12738
927.525	12658
927.631	12734
927.737	12642
927.843	12616
927.95	12361
928.056	12494
928.162	12658
928.267	12547
928.373	13255
928.479	12585
928.585	12376
928.69	12456
928.796	12582
928.901	12448
929.007	12220
929.112	12353
929.218	12384
929.323	12338
929.428	12251
929.533	12380
929.638	12213
929.743	12186
929.848	12228
929.953	12194
930.058	12114
930.163	11950
930.267	11939
930.372	12015
930.477	11885
930.581	12171
930.685	11965
930.79	11870
930.894	11904
930.998	11786
931.103	11923
931.207	11512
931.311	11520
931.415	11417
931.519	11235
931.623	11197
