Data from test_V78500241_1494.txt Node
Date: Fri Mar 25 15:52:09 CST 2022
User: usil
Spectrometer: V785-0024
Trigger mode: 0
Integration Time (sec): 4.000000E-1
Scans to average: 1
Nonlinearity correction enabled: false
Boxcar width: 0
Storing dark spectrum: false
XAxis mode: Wavelengths
Number of Pixels in Spectrum: 1024
>>>>>Begin Spectral Data<<<<<
801.071	28120
801.214	28063
801.356	27835
801.499	27751
801.641	27701
801.783	27496
801.926	27568
802.068	27610
802.211	27504
802.353	27545
802.496	27329
802.638	27203
802.78	27214
802.923	27336
803.065	27123
803.208	27283
803.35	27203
803.492	27275
803.635	27382
803.777	27416
803.919	27431
804.061	27819
804.204	27538
804.346	27313
804.488	27317
804.63	27367
804.773	27397
804.915	27542
805.057	27660
805.199	27382
805.341	27557
805.483	27561
805.626	27637
805.768	27545
805.91	27652
806.052	27694
806.194	27530
806.336	27850
806.478	27549
806.62	27682
806.762	27759
806.904	27819
807.046	28181
807.188	27960
807.33	27956
807.472	28048
807.614	28059
807.756	27960
807.898	27926
808.04	27914
808.182	27838
808.324	27983
808.465	28002
808.607	28143
808.749	28154
808.891	28375
809.033	28466
809.174	28363
809.316	28128
809.458	28242
809.6	28211
809.741	28371
809.883	28474
810.025	28550
810.166	28588
810.308	28607
810.45	28421
810.591	28557
810.733	28284
810.875	28207
811.016	28162
811.158	28109
811.299	28356
811.441	28451
811.582	28367
811.724	28253
811.865	28223
812.007	28162
812.148	28188
812.29	28314
812.431	28470
812.573	28630
812.714	28630
812.855	28755
812.997	28820
813.138	28938
813.279	28786
813.421	28713
813.562	28683
813.703	28474
813.845	28550
813.986	28120
814.127	28055
814.268	27975
814.41	27949
814.551	27964
814.692	28032
814.833	27819
814.974	28017
815.115	28051
815.256	27816
815.397	27774
815.539	27816
815.68	27842
815.821	27648
815.962	27766
816.103	27720
816.244	27614
816.385	27530
816.526	27466
816.666	27306
816.807	27188
816.948	27325
817.089	27363
817.23	27340
817.371	27192
817.512	27226
817.653	27325
817.793	27211
817.934	27294
818.075	27313
818.216	27268
818.356	27176
818.497	27218
818.638	27093
818.778	26990
818.919	26994
819.06	27085
819.2	27100
819.341	27199
819.481	27294
819.622	27488
819.762	27637
819.903	27496
820.043	27454
820.184	27306
820.324	27374
820.465	27393
820.605	27477
820.746	27420
820.886	27154
821.026	27488
821.167	27389
821.307	27218
821.447	27245
821.588	27199
821.728	27252
821.868	26861
822.008	26861
822.149	26651
822.289	26773
822.429	26514
822.569	26434
822.709	26442
822.849	26256
822.99	26172
823.13	26168
823.27	26263
823.41	26001
823.55	25944
823.69	26096
823.83	26096
823.97	26092
824.11	25746
824.25	25772
824.389	25795
824.529	25928
824.669	25883
824.809	25890
824.949	25909
825.089	25936
825.228	25826
825.368	25795
825.508	25712
825.648	25750
825.787	25845
825.927	25814
826.067	25746
826.206	25795
826.346	25830
826.485	25685
826.625	25639
826.765	25750
826.904	25628
827.044	25499
827.183	25510
827.323	25426
827.462	25556
827.601	25483
827.741	25396
827.88	25540
828.02	25422
828.159	25472
828.298	25426
828.437	25540
828.577	25586
828.716	25483
828.855	25491
828.994	25141
829.134	25118
829.273	25274
829.412	25187
829.551	24989
829.69	25133
829.829	25129
829.968	25164
830.107	25145
830.246	25126
830.385	25023
830.524	24951
830.663	24909
830.802	24787
830.941	24760
831.08	24703
831.219	24848
831.357	24806
831.496	25000
831.635	24692
831.774	24608
831.913	24601
832.051	24532
832.19	24574
832.329	24547
832.467	24589
832.606	24532
832.744	24441
832.883	24486
833.022	24486
833.16	24521
833.299	24452
833.437	24395
833.576	24528
833.714	24471
833.852	24498
833.991	24551
834.129	24616
834.267	24570
834.406	24467
834.544	24437
834.682	24422
834.821	24563
834.959	24536
835.097	24445
835.235	24414
835.373	24540
835.511	24471
835.65	24361
835.788	24357
835.926	24216
836.064	24098
836.202	24243
836.34	24228
836.478	24479
836.615	24422
836.753	24228
836.891	24308
837.029	24361
837.167	24361
837.305	24273
837.443	24087
837.58	24129
837.718	24129
837.856	24186
837.993	24140
838.131	24087
838.269	24068
838.406	23992
838.544	24022
838.681	23733
838.819	23703
838.956	23672
839.094	23600
839.231	23714
839.369	23859
839.506	24022
839.643	23794
839.781	23642
839.918	23566
840.055	23600
840.193	23619
840.33	23455
840.467	23524
840.604	23627
840.742	23771
840.879	23414
841.016	23535
841.153	23414
841.29	23733
841.427	23463
841.564	23703
841.701	23596
841.838	23554
841.975	23417
842.112	23440
842.249	23395
842.385	23269
842.522	23531
842.659	23444
842.796	23128
842.933	23204
843.069	23288
843.206	23288
843.343	23322
843.479	23269
843.616	23303
843.752	23094
843.889	23098
844.025	23261
844.162	23178
844.298	23162
844.435	23022
844.571	23121
844.708	23064
844.844	23277
844.98	23204
845.117	23288
845.253	23003
845.389	22961
845.525	22938
845.661	22942
845.798	22763
845.934	22858
846.07	22733
846.206	22858
846.342	22858
846.478	22687
846.614	22607
846.75	22523
846.886	22489
847.022	22554
847.158	22561
847.294	22478
847.429	22508
847.565	22421
847.701	22702
847.837	22272
847.972	22234
848.108	22348
848.244	22333
848.379	22238
848.515	22150
848.65	22124
848.786	22105
848.921	22128
849.057	22223
849.192	22131
849.328	22128
849.463	22090
849.598	22013
849.734	22067
849.869	21987
850.004	21983
850.14	21857
850.275	21892
850.41	21873
850.545	21747
850.68	21816
850.815	21934
850.95	21975
851.085	22067
851.22	21915
851.355	22040
851.49	22010
851.625	21819
851.76	21793
851.895	21911
852.03	21751
852.165	21975
852.299	21972
852.434	22029
852.569	22040
852.703	21892
852.838	21915
852.973	21964
853.107	22025
853.242	22025
853.376	21625
853.511	21637
853.645	21713
853.78	21854
853.914	21781
854.048	21679
854.183	21652
854.317	21641
854.451	21846
854.585	21816
854.72	21675
854.854	21846
854.988	21644
855.122	21667
855.256	21542
855.39	21732
855.524	21762
855.658	21682
855.792	21709
855.926	21774
856.06	21770
856.194	21762
856.327	21690
856.461	21648
856.595	21698
856.729	21675
856.862	21899
856.996	21819
857.13	21785
857.263	21857
857.397	21797
857.53	21751
857.664	21694
857.797	21671
857.931	21873
858.064	21797
858.197	21857
858.331	21736
858.464	21622
858.597	21606
858.731	21675
858.864	21686
858.997	21618
859.13	21724
859.263	21717
859.396	21686
859.529	21701
859.662	21743
859.795	21698
859.928	21648
860.061	21816
860.194	21987
860.327	21728
860.46	21755
860.592	21831
860.725	21907
860.858	21835
860.99	21778
861.123	21606
861.256	21622
861.388	21747
861.521	22394
861.653	21625
861.786	21519
861.918	21591
862.05	21542
862.183	21717
862.315	21633
862.447	21728
862.58	21603
862.712	21504
862.844	21378
862.976	21462
863.108	21378
863.24	21793
863.372	21302
863.504	21428
863.636	21443
863.768	21511
863.9	21298
864.032	21317
864.164	21424
864.296	21485
864.428	21355
864.559	21355
864.691	21580
864.823	21439
864.954	21374
865.086	21412
865.217	21310
865.349	21302
865.48	21344
865.612	21264
865.743	21462
865.875	21298
866.006	21222
866.137	21332
866.269	21370
866.4	21279
866.531	21283
866.662	21241
866.793	21157
866.924	21146
867.055	21184
867.186	21294
867.317	21203
867.448	21116
867.579	21192
867.71	21093
867.841	21195
867.972	21329
868.103	21226
868.233	21256
868.364	21336
868.495	21435
868.625	21500
868.756	21622
868.886	21424
869.017	21416
869.147	21557
869.278	21641
869.408	21515
869.539	21542
869.669	21736
869.799	21561
869.929	21660
870.06	21667
870.19	21854
870.32	21808
870.45	21800
870.58	21903
870.71	21991
870.84	21869
870.97	21922
871.1	21873
871.23	22093
871.36	22124
871.489	21964
871.619	22112
871.749	22090
871.879	22150
872.008	22158
872.138	22048
872.267	22139
872.397	22029
872.526	21930
872.656	21895
872.785	21755
872.915	22128
873.044	22268
873.173	22105
873.303	22093
873.432	22219
873.561	22162
873.69	21934
873.819	22158
873.948	22185
874.077	22086
874.206	22097
874.335	22048
874.464	22325
874.593	22322
874.722	22303
874.851	22451
874.979	22356
875.108	22390
875.237	22284
875.365	22314
875.494	22310
875.623	22299
875.751	22204
875.88	22413
876.008	22538
876.136	22584
876.265	22763
876.393	22896
876.521	22793
876.65	22816
876.778	22843
876.906	22618
877.034	22672
877.162	22634
877.29	22630
877.418	22675
877.546	22801
877.674	22660
877.802	22713
877.93	22675
878.058	22573
878.185	22474
878.313	22618
878.441	22691
878.568	22447
878.696	22615
878.824	22668
878.951	22809
879.079	22820
879.206	23060
879.333	22854
879.461	22771
879.588	22801
879.715	22816
879.842	22930
879.97	22843
880.097	22512
880.224	22554
880.351	22656
880.478	22489
880.605	22573
880.732	22573
880.859	22584
880.986	22493
881.112	22493
881.239	22398
881.366	22341
881.493	22139
881.619	22158
881.746	22013
881.872	22188
881.999	22082
882.125	21968
882.252	22017
882.378	22124
882.505	22112
882.631	21876
882.757	21956
882.883	21804
883.01	21781
883.136	21709
883.262	21511
883.388	21561
883.514	21720
883.64	21800
883.766	21732
883.892	21561
884.018	21599
884.143	21701
884.269	21819
884.395	21393
884.52	21351
884.646	21378
884.772	21298
884.897	21325
885.023	21412
885.148	21633
885.274	21511
885.399	21428
885.524	21443
885.65	21412
885.775	21496
885.9	21351
886.025	21603
886.15	21348
886.275	21382
886.4	21287
886.525	21462
886.65	21294
886.775	21351
886.9	21469
887.025	21637
887.149	21291
887.274	21275
887.399	21249
887.523	21173
887.648	21211
887.773	21176
887.897	21180
888.021	21207
888.146	21184
888.27	21302
888.395	21256
888.519	21226
888.643	21226
888.767	21173
888.891	20998
889.015	20982
889.139	20941
889.263	20830
889.387	21066
889.511	21146
889.635	20994
889.759	20887
889.883	20880
890.006	20975
890.13	21074
890.254	20861
890.377	20914
890.501	20845
890.624	20667
890.748	20792
890.871	20655
890.995	20389
891.118	20469
891.241	20469
891.364	20541
891.488	20667
891.611	20556
891.734	20571
891.857	20549
891.98	20507
892.103	20503
892.226	20549
892.349	20454
892.471	20351
892.594	20423
892.717	20579
892.839	20571
892.962	20385
893.085	20385
893.207	20393
893.33	20374
893.452	20225
893.575	20511
893.697	20298
893.819	20571
893.941	20625
894.064	20522
894.186	20488
894.308	20343
894.43	20587
894.552	20514
894.674	20503
894.796	20381
894.918	20347
895.04	20298
895.161	20434
895.283	20492
895.405	20343
895.526	20469
895.648	20465
895.769	20434
895.891	20427
896.012	20492
896.134	20476
896.255	20438
896.376	20332
896.498	20434
896.619	20415
896.74	20355
896.861	20518
896.982	20811
897.103	20807
897.224	20697
897.345	20686
897.466	20530
897.587	20556
897.708	20750
897.828	20617
897.949	20598
898.07	20442
898.19	20598
898.311	20617
898.431	20503
898.552	20594
898.672	20629
898.792	20743
898.913	20743
899.033	20533
899.153	20560
899.273	20271
899.393	20446
899.513	20438
899.633	20374
899.753	20313
899.873	20408
899.993	20415
900.113	20317
900.232	20324
900.352	20336
900.472	20096
900.591	20096
900.711	20142
900.83	20111
900.95	20195
901.069	20240
901.189	20012
901.308	19791
901.427	19704
901.546	19742
901.665	19742
901.784	19689
901.904	19521
902.023	19457
902.141	19407
902.26	19324
902.379	19346
902.498	19278
902.617	19202
902.735	19164
902.854	19190
902.973	19110
903.091	18932
903.21	18821
903.328	18897
903.446	18878
903.565	18768
903.683	18730
903.801	18601
903.919	18696
904.038	18688
904.156	18429
904.274	18730
904.392	18460
904.51	18479
904.627	18498
904.745	18521
904.863	18448
904.981	18289
905.098	18106
905.216	18205
905.334	18083
905.451	18216
905.569	17973
905.686	18140
905.803	18129
905.921	17882
906.038	17977
906.155	18053
906.272	17798
906.389	17859
906.506	17680
906.623	17653
906.74	17680
906.857	17509
906.974	17558
907.091	17790
907.208	17790
907.324	17733
907.441	17600
907.557	17452
907.674	17455
907.79	17303
907.907	17467
908.023	17376
908.139	17364
908.256	17387
908.372	17292
908.488	17242
908.604	17208
908.72	17003
908.836	17113
908.952	17113
909.068	17136
909.184	17151
909.3	17056
909.415	17124
909.531	17136
909.647	16877
909.762	16820
909.878	16679
909.993	16850
910.108	16809
910.224	16831
910.339	16729
910.454	16656
910.57	16653
910.685	16470
910.8	16816
910.915	16736
911.03	16641
911.145	16478
911.259	16421
911.374	16344
911.489	16390
911.604	16291
911.718	16242
911.833	16204
911.947	15975
912.062	16048
912.176	16097
912.291	16109
912.405	16063
912.519	16253
912.633	16299
912.748	16147
912.862	16188
912.976	15968
913.09	15857
913.204	15945
913.318	16017
913.431	16120
913.545	16059
913.659	16074
913.772	15975
913.886	15800
914	15739
914.113	15899
914.226	15899
914.34	15762
914.453	15720
914.566	15800
914.68	15572
914.793	15648
914.906	15454
915.019	15408
915.132	15469
915.245	15237
915.358	15367
915.47	15378
915.583	15348
915.696	15321
915.809	15454
915.921	15542
916.034	15294
916.146	15256
916.259	15256
916.371	15336
916.483	15302
916.595	15165
916.708	15154
916.82	15176
916.932	15070
917.044	15195
917.156	15009
917.268	15108
917.38	15009
917.491	14994
917.603	14902
917.715	15047
917.826	15089
917.938	14937
918.049	14883
918.161	14990
918.272	15108
918.384	14986
918.495	15005
918.606	14883
918.717	14686
918.828	14754
918.939	14769
919.05	14743
919.161	14743
919.272	14545
919.383	14575
919.494	14724
919.604	14883
919.715	14644
919.826	14594
919.936	14693
920.047	14754
920.157	14788
920.267	14792
920.378	14689
920.488	14674
920.598	14906
920.708	14910
920.818	14914
920.928	14887
921.038	14975
921.148	14975
921.258	14670
921.368	14537
921.477	14530
921.587	14450
921.697	14339
921.806	14434
921.916	14393
922.025	14202
922.134	14073
922.244	14069
922.353	14107
922.462	14001
922.571	13894
922.68	13708
922.789	13700
922.898	13818
923.007	13715
923.116	13696
923.224	13677
923.333	13655
923.442	13601
923.55	13533
923.659	13594
923.767	13605
923.876	13472
923.984	13609
924.092	13476
924.201	13521
924.309	13525
924.417	13476
924.525	13430
924.633	13308
924.741	14275
924.849	13202
924.956	13324
925.064	13190
925.172	13114
925.279	13118
925.387	13107
925.494	13175
925.602	13209
925.709	13099
925.816	13069
925.924	13126
926.031	13110
926.138	13072
926.245	13031
926.352	12985
926.459	13091
926.566	13152
926.673	12935
926.779	12905
926.886	12916
926.993	12757
927.099	12757
927.206	12608
927.312	12639
927.419	12738
927.525	12646
927.631	12650
927.737	12635
927.843	12525
927.95	12414
928.056	12486
928.162	12509
928.267	12574
928.373	13141
928.479	12601
928.585	12342
928.69	12490
928.796	12479
928.901	12384
929.007	12163
929.112	12369
929.218	12300
929.323	12270
929.428	12232
929.533	12330
929.638	12262
929.743	12281
929.848	12182
929.953	12213
930.058	12060
930.163	11954
930.267	11878
930.372	12053
930.477	11897
930.581	12102
930.685	11996
930.79	11737
930.894	11897
930.998	11771
931.103	11961
931.207	11471
931.311	11539
931.415	11433
931.519	11204
931.623	11178
