Data from test_V78500241_1176.txt Node
Date: Fri Mar 25 15:49:56 CST 2022
User: usil
Spectrometer: V785-0024
Trigger mode: 0
Integration Time (sec): 4.000000E-1
Scans to average: 1
Nonlinearity correction enabled: false
Boxcar width: 0
Storing dark spectrum: false
XAxis mode: Wavelengths
Number of Pixels in Spectrum: 1024
>>>>>Begin Spectral Data<<<<<
801.071	28455
801.214	28401
801.356	28371
801.499	28276
801.641	28181
801.783	28188
801.926	28223
802.068	28074
802.211	28036
802.353	27888
802.496	27934
802.638	27797
802.78	27720
802.923	27724
803.065	27800
803.208	27743
803.35	27785
803.492	27850
803.635	27987
803.777	27964
803.919	28211
804.061	28306
804.204	27968
804.346	27960
804.488	27926
804.63	28048
804.773	28044
804.915	28154
805.057	28204
805.199	28101
805.341	28192
805.483	28344
805.626	28242
805.768	28143
805.91	28421
806.052	28211
806.194	28162
806.336	28493
806.478	28261
806.62	28188
806.762	28303
806.904	28516
807.046	28759
807.188	28713
807.33	28664
807.472	28736
807.614	28641
807.756	28630
807.898	28470
808.04	28569
808.182	28516
808.324	28569
808.465	28679
808.607	28809
808.749	28984
808.891	29056
809.033	29029
809.174	28927
809.316	28835
809.458	29025
809.6	28911
809.741	28987
809.883	29265
810.025	29322
810.166	29189
810.308	29200
810.45	29246
810.591	29239
810.733	28915
810.875	28968
811.016	29025
811.158	28877
811.299	29044
811.441	29159
811.582	29079
811.724	28915
811.865	28961
812.007	28995
812.148	28866
812.29	29018
812.431	29315
812.573	29311
812.714	29349
812.855	29619
812.997	29531
813.138	29619
813.279	29665
813.421	29463
813.562	29471
813.703	29318
813.845	29109
813.986	28877
814.127	28752
814.268	28611
814.41	28656
814.551	28630
814.692	28698
814.833	28656
814.974	28603
815.115	28748
815.256	28508
815.397	28569
815.539	28577
815.68	28360
815.821	28401
815.962	28413
816.103	28398
816.244	28306
816.385	28295
816.526	28173
816.666	27914
816.807	28097
816.948	28048
817.089	28128
817.23	27884
817.371	27899
817.512	28101
817.653	28025
817.793	27994
817.934	28040
818.075	27880
818.216	28067
818.356	27846
818.497	27960
818.638	27667
818.778	27778
818.919	27694
819.06	27732
819.2	27838
819.341	27884
819.481	27907
819.622	28090
819.762	28325
819.903	28257
820.043	28265
820.184	28135
820.324	28021
820.465	28135
820.605	27972
820.746	28025
820.886	27972
821.026	28158
821.167	28059
821.307	28029
821.447	28185
821.588	28055
821.728	27850
821.868	27629
822.008	27481
822.149	27435
822.289	27393
822.429	27108
822.569	27077
822.709	27074
822.849	27104
822.99	26994
823.13	26952
823.27	26944
823.41	26830
823.55	26743
823.69	26857
823.83	26701
823.97	26724
824.11	26758
824.25	26511
824.389	26579
824.529	26705
824.669	26587
824.809	26678
824.949	26773
825.089	26758
825.228	26629
825.368	26511
825.508	26453
825.648	26602
825.787	26545
825.927	26560
826.067	26453
826.206	26396
826.346	26461
826.485	26594
826.625	26457
826.765	26590
826.904	26488
827.044	26317
827.183	26336
827.323	26183
827.462	26309
827.601	26164
827.741	26092
827.88	26221
828.02	26058
828.159	26225
828.298	26176
828.437	26332
828.577	26096
828.716	26202
828.855	26092
828.994	25852
829.134	25959
829.273	25909
829.412	25837
829.551	25936
829.69	25894
829.829	25978
829.968	26031
830.107	25849
830.246	25871
830.385	25818
830.524	25769
830.663	25651
830.802	25677
830.941	25479
831.08	25373
831.219	25578
831.357	25502
831.496	25860
831.635	25457
831.774	25358
831.913	25396
832.051	25350
832.19	25331
832.329	25350
832.467	25263
832.606	25061
832.744	25213
832.883	25164
833.022	25179
833.16	25122
833.299	25198
833.437	25091
833.576	25213
833.714	25091
833.852	25339
833.991	25312
834.129	25343
834.267	25419
834.406	25324
834.544	25293
834.682	25312
834.821	25202
834.959	25362
835.097	25141
835.235	25468
835.373	25202
835.511	25270
835.65	25141
835.788	25137
835.926	24905
836.064	24776
836.202	24821
836.34	25187
836.478	25110
836.615	24935
836.753	25038
836.891	25027
837.029	24943
837.167	25053
837.305	24916
837.443	24924
837.58	24833
837.718	24871
837.856	24848
837.993	24829
838.131	24863
838.269	24669
838.406	24749
838.544	24650
838.681	24555
838.819	24604
838.956	24452
839.094	24300
839.231	24517
839.369	24486
839.506	24658
839.643	24608
839.781	24277
839.918	24285
840.055	24323
840.193	24338
840.33	24346
840.467	24296
840.604	24266
840.742	24582
840.879	24201
841.016	24213
841.153	24083
841.29	24277
841.427	24243
841.564	24365
841.701	24228
841.838	24205
841.975	24095
842.112	24125
842.249	24091
842.385	24167
842.522	24125
842.659	23996
842.796	24007
842.933	23977
843.069	24117
843.206	23946
843.343	24018
843.479	24136
843.616	24098
843.752	23840
843.889	23726
844.025	23893
844.162	23695
844.298	23904
844.435	23672
844.571	23798
844.708	23878
844.844	23942
844.98	23840
845.117	23851
845.253	23710
845.389	23600
845.525	23748
845.661	23649
845.798	23482
845.934	23539
846.07	23524
846.206	23604
846.342	23684
846.478	23490
846.614	23345
846.75	23235
846.886	23269
847.022	23231
847.158	23284
847.294	23200
847.429	23227
847.565	23147
847.701	23414
847.837	23083
847.972	22877
848.108	22949
848.244	23071
848.379	22946
848.515	22881
848.65	22774
848.786	22828
848.921	22854
849.057	22934
849.192	22797
849.328	22831
849.463	22896
849.598	22812
849.734	22694
849.869	22634
850.004	22481
850.14	22717
850.275	22679
850.41	22535
850.545	22481
850.68	22436
850.815	22588
850.95	22504
851.085	22736
851.22	22634
851.355	22634
851.49	22565
851.625	22459
851.76	22493
851.895	22436
852.03	22508
852.165	22675
852.299	22557
852.434	22630
852.569	22660
852.703	22618
852.838	22607
852.973	22653
853.107	22824
853.242	22512
853.376	22447
853.511	22280
853.645	22386
853.78	22535
853.914	22485
854.048	22428
854.183	22371
854.317	22459
854.451	22542
854.585	22466
854.72	22371
854.854	22531
854.988	22413
855.122	22402
855.256	22226
855.39	22402
855.524	22295
855.658	22523
855.792	22238
855.926	22455
856.06	22417
856.194	22447
856.327	22398
856.461	22242
856.595	22409
856.729	22303
856.862	22462
856.996	22421
857.13	22436
857.263	22596
857.397	22596
857.53	22485
857.664	22409
857.797	22554
857.931	22542
858.064	22459
858.197	22481
858.331	22375
858.464	22325
858.597	22215
858.731	22352
858.864	22485
858.997	22382
859.13	22443
859.263	22478
859.396	22535
859.529	22436
859.662	22303
859.795	22409
859.928	22394
860.061	22497
860.194	22668
860.327	22519
860.46	22398
860.592	22474
860.725	22577
860.858	22565
860.99	22386
861.123	22261
861.256	22177
861.388	22371
861.521	23075
861.653	22261
861.786	22093
861.918	22154
862.05	22333
862.183	22306
862.315	22375
862.447	22497
862.58	22257
862.712	22040
862.844	22177
862.976	22166
863.108	22154
863.24	22497
863.372	22131
863.504	22010
863.636	22097
863.768	22120
863.9	22017
864.032	22112
864.164	22131
864.296	22067
864.428	22314
864.559	22086
864.691	22162
864.823	22135
864.954	22002
865.086	22010
865.217	22010
865.349	21991
865.48	22017
865.612	21994
865.743	22048
865.875	22006
866.006	21998
866.137	21812
866.269	21869
866.4	21903
866.531	21926
866.662	21774
866.793	21903
866.924	21861
867.055	21968
867.186	21949
867.317	21975
867.448	21797
867.579	21819
867.71	21865
867.841	21739
867.972	21972
868.103	21895
868.233	21911
868.364	21850
868.495	22063
868.625	22150
868.756	22204
868.886	22013
869.017	22097
869.147	22192
869.278	22291
869.408	22253
869.539	22147
869.669	22257
869.799	22169
869.929	22204
870.06	22310
870.19	22440
870.32	22485
870.45	22565
870.58	22504
870.71	22626
870.84	22626
870.97	22577
871.1	22596
871.23	22653
871.36	22736
871.489	22637
871.619	22675
871.749	22653
871.879	22771
872.008	22858
872.138	22805
872.267	22596
872.397	22580
872.526	22634
872.656	22569
872.785	22516
872.915	22771
873.044	22873
873.173	22828
873.303	22767
873.432	22862
873.561	22866
873.69	22790
873.819	22736
873.948	22904
874.077	22809
874.206	22797
874.335	22679
874.464	22942
874.593	23014
874.722	22900
874.851	23079
874.979	22900
875.108	23083
875.237	22915
875.365	22930
875.494	22957
875.623	23079
875.751	22927
875.88	22965
876.008	23064
876.136	23170
876.265	23444
876.393	23471
876.521	23509
876.65	23402
876.778	23277
876.906	23345
877.034	23307
877.162	23410
877.29	23212
877.418	23239
877.546	23341
877.674	23239
877.802	23315
877.93	23231
878.058	23212
878.185	23170
878.313	23185
878.441	23353
878.568	23185
878.696	23162
878.824	23402
878.951	23410
879.079	23570
879.206	23486
879.333	23414
879.461	23414
879.588	23482
879.715	23395
879.842	23570
879.97	23402
880.097	23189
880.224	23159
880.351	23174
880.478	23178
880.605	23102
880.732	23064
880.859	23288
880.986	23109
881.112	23121
881.239	22923
881.366	22812
881.493	22778
881.619	22713
881.746	22729
881.872	22778
881.999	22702
882.125	22698
882.252	22577
882.378	22573
882.505	22641
882.631	22481
882.757	22329
882.883	22508
883.01	22478
883.136	22249
883.262	22249
883.388	22249
883.514	22455
883.64	22432
883.766	22192
883.892	22158
884.018	22131
884.143	22333
884.269	22405
884.395	22017
884.52	21945
884.646	22120
884.772	21903
884.897	21987
885.023	22006
885.148	22090
885.274	22261
885.399	22067
885.524	21968
885.65	21998
885.775	22013
885.9	22040
886.025	22150
886.15	22025
886.275	21945
886.4	21918
886.525	22036
886.65	21915
886.775	21934
886.9	22173
887.025	22215
887.149	21960
887.274	21838
887.399	21797
887.523	21819
887.648	21747
887.773	21671
887.897	21888
888.021	21759
888.146	21804
888.27	21869
888.395	21846
888.519	21812
888.643	21656
888.767	21774
888.891	21606
889.015	21431
889.139	21625
889.263	21469
889.387	21667
889.511	21751
889.635	21755
889.759	21534
889.883	21534
890.006	21526
890.13	21568
890.254	21477
890.377	21477
890.501	21332
890.624	21245
890.748	21298
890.871	21252
890.995	21043
891.118	21104
891.241	21020
891.364	21203
891.488	21195
891.611	21173
891.734	21062
891.857	21131
891.98	21108
892.103	21131
892.226	21100
892.349	21127
892.471	20960
892.594	21104
892.717	20998
892.839	20994
892.962	20986
893.085	21093
893.207	21005
893.33	20937
893.452	20899
893.575	21093
893.697	20994
893.819	21207
893.941	21184
894.064	21161
894.186	20956
894.308	20929
894.43	21100
894.552	21119
894.674	20979
894.796	20921
894.918	20941
895.04	20941
895.161	20944
895.283	20944
895.405	20944
895.526	20914
895.648	21009
895.769	20891
895.891	20960
896.012	21051
896.134	20937
896.255	20914
896.376	20956
896.498	21058
896.619	21051
896.74	20971
896.861	21032
896.982	21332
897.103	21405
897.224	21264
897.345	21287
897.466	21192
897.587	21230
897.708	21344
897.828	21268
897.949	21173
898.07	21009
898.19	21180
898.311	21203
898.431	21233
898.552	21245
898.672	21344
898.792	21249
898.913	21291
899.033	21036
899.153	20990
899.273	20750
899.393	20895
899.513	20906
899.633	20921
899.753	20910
899.873	20883
899.993	20921
900.113	20804
900.232	20921
900.352	20823
900.472	20823
900.591	20663
900.711	20781
900.83	20613
900.95	20743
901.069	20750
901.189	20625
901.308	20366
901.427	20294
901.546	20259
901.665	20240
901.784	20206
901.904	20103
902.023	19982
902.141	19868
902.26	19742
902.379	19871
902.498	19712
902.617	19658
902.735	19757
902.854	19723
902.973	19662
903.091	19460
903.21	19384
903.328	19441
903.446	19259
903.565	19327
903.683	19289
903.801	19084
903.919	19187
904.038	19095
904.156	18996
904.274	19004
904.392	18928
904.51	18928
904.627	18817
904.745	19057
904.863	19000
904.981	18802
905.098	18616
905.216	18585
905.334	18654
905.451	18612
905.569	18669
905.686	18639
905.803	18604
905.921	18388
906.038	18574
906.155	18357
906.272	18353
906.389	18342
906.506	18243
906.623	18125
906.74	18178
906.857	18060
906.974	18026
907.091	18117
907.208	18270
907.324	18163
907.441	18030
907.557	17897
907.674	17916
907.79	17786
907.907	17802
908.023	17794
908.139	17920
908.256	17783
908.372	17813
908.488	17714
908.604	17551
908.72	17581
908.836	17615
908.952	17592
909.068	17646
909.184	17760
909.3	17623
909.415	17638
909.531	17585
909.647	17311
909.762	17303
909.878	17193
909.993	17288
910.108	17288
910.224	17277
910.339	17391
910.454	17151
910.57	17052
910.685	16991
910.8	17242
910.915	17235
911.03	17014
911.145	16968
911.259	16908
911.374	16767
911.489	16744
911.604	16763
911.718	16459
911.833	16588
911.947	16603
912.062	16470
912.176	16653
912.291	16675
912.405	16679
912.519	16805
912.633	16706
912.748	16512
912.862	16489
912.976	16402
913.09	16268
913.204	16375
913.318	16432
913.431	16504
913.545	16466
913.659	16481
913.772	16253
913.886	16185
914	16128
914.113	16268
914.226	16356
914.34	16325
914.453	16093
914.566	16188
914.68	16169
914.793	16040
914.906	15861
915.019	15797
915.132	15804
915.245	15686
915.358	15831
915.47	15774
915.583	15869
915.696	15774
915.809	15911
915.921	15861
916.034	15751
916.146	15686
916.259	15603
916.371	15781
916.483	15663
916.595	15500
916.708	15637
916.82	15622
916.932	15675
917.044	15603
917.156	15511
917.268	15348
917.38	15439
917.491	15393
917.603	15458
917.715	15454
917.826	15553
917.938	15272
918.049	15321
918.161	15351
918.272	15591
918.384	15534
918.495	15291
918.606	15272
918.717	15157
918.828	15199
918.939	15161
919.05	15032
919.161	15165
919.272	14982
919.383	15005
919.494	15154
919.604	15317
919.715	15199
919.826	14986
919.936	15070
920.047	15169
920.157	15119
920.267	15329
920.378	15119
920.488	15169
920.598	15222
920.708	15355
920.818	15180
920.928	15211
921.038	15393
921.148	15313
921.258	15097
921.368	14929
921.477	14883
921.587	14800
921.697	14636
921.806	14762
921.916	14724
922.025	14545
922.134	14518
922.244	14488
922.353	14450
922.462	14317
922.571	14275
922.68	14180
922.789	14084
922.898	14024
923.007	14069
923.116	14107
923.224	14107
923.333	13978
923.442	13993
923.55	13947
923.659	13974
923.767	13997
923.876	13757
923.984	13974
924.092	13818
924.201	13864
924.309	13811
924.417	13902
924.525	13708
924.633	13788
924.741	14564
924.849	13510
924.956	13658
925.064	13495
925.172	13441
925.279	13472
925.387	13521
925.494	13514
925.602	13559
925.709	13480
925.816	13415
925.924	13426
926.031	13529
926.138	13426
926.245	13510
926.352	13354
926.459	13438
926.566	13407
926.673	13346
926.779	13308
926.886	13107
926.993	13034
927.099	13053
927.206	12928
927.312	13038
927.419	13133
927.525	12981
927.631	13000
927.737	12924
927.843	12890
927.95	12859
928.056	12791
928.162	12837
928.267	12848
928.373	13483
928.479	12954
928.585	12772
928.69	12837
928.796	12867
928.901	12745
929.007	12448
929.112	12684
929.218	12684
929.323	12688
929.428	12540
929.533	12715
929.638	12585
929.743	12563
929.848	12570
929.953	12452
930.058	12456
930.163	12254
930.267	12270
930.372	12376
930.477	12197
930.581	12422
930.685	12270
930.79	12152
930.894	12155
930.998	12068
931.103	12190
931.207	11874
931.311	11843
931.415	11688
931.519	11474
931.623	11493
