Data from test_V78500241_2782.txt Node
Date: Fri Mar 25 16:01:04 CST 2022
User: usil
Spectrometer: V785-0024
Trigger mode: 0
Integration Time (sec): 4.000000E-1
Scans to average: 1
Nonlinearity correction enabled: false
Boxcar width: 0
Storing dark spectrum: false
XAxis mode: Wavelengths
Number of Pixels in Spectrum: 1024
>>>>>Begin Spectral Data<<<<<
801.071	29315
801.214	29010
801.356	28980
801.499	28782
801.641	28672
801.783	28637
801.926	28687
802.068	28706
802.211	28637
802.353	28626
802.496	28455
802.638	28443
802.78	28276
802.923	28265
803.065	28318
803.208	28303
803.35	28565
803.492	28535
803.635	28519
803.777	28440
803.919	28702
804.061	29006
804.204	28664
804.346	28557
804.488	28649
804.63	28721
804.773	28554
804.915	28596
805.057	28801
805.199	28740
805.341	28839
805.483	28873
805.626	28816
805.768	28698
805.91	28881
806.052	28793
806.194	28740
806.336	29060
806.478	28675
806.62	28774
806.762	28908
806.904	29109
807.046	29307
807.188	29174
807.33	29356
807.472	29277
807.614	29265
807.756	29368
807.898	29315
808.04	29025
808.182	29022
808.324	29216
808.465	29208
808.607	29501
808.749	29566
808.891	29642
809.033	29737
809.174	29493
809.316	29391
809.458	29596
809.6	29383
809.741	29562
809.883	29573
810.025	29958
810.166	29862
810.308	29996
810.45	29767
810.591	29672
810.733	29661
810.875	29619
811.016	29467
811.158	29299
811.299	29577
811.441	29821
811.582	29741
811.724	29463
811.865	29581
812.007	29493
812.148	29634
812.29	29577
812.431	29870
812.573	29984
812.714	30117
812.855	29961
812.997	30117
813.138	30357
813.279	30228
813.421	30087
813.562	30041
813.703	29916
813.845	29805
813.986	29448
814.127	29349
814.268	29250
814.41	29345
814.551	29277
814.692	29269
814.833	29303
814.974	29288
815.115	29220
815.256	29212
815.397	29140
815.539	29193
815.68	29212
815.821	29060
815.962	29208
816.103	29113
816.244	28972
816.385	28790
816.526	28869
816.666	28645
816.807	28592
816.948	28531
817.089	28637
817.23	28630
817.371	28538
817.512	28569
817.653	28497
817.793	28592
817.934	28622
818.075	28656
818.216	28744
818.356	28569
818.497	28436
818.638	28382
818.778	28428
818.919	28401
819.06	28474
819.2	28390
819.341	28717
819.481	28656
819.622	28698
819.762	29033
819.903	28843
820.043	28881
820.184	28710
820.324	28869
820.465	28706
820.605	28869
820.746	28634
820.886	28664
821.026	28710
821.167	28763
821.307	28752
821.447	28569
821.588	28634
821.728	28417
821.868	28223
822.008	27922
822.149	28097
822.289	28204
822.429	27778
822.569	27747
822.709	27914
822.849	27671
822.99	27583
823.13	27568
823.27	27553
823.41	27401
823.55	27252
823.69	27561
823.83	27355
823.97	27370
824.11	27351
824.25	27192
824.389	27211
824.529	27344
824.669	27138
824.809	27378
824.949	27272
825.089	27287
825.228	27222
825.368	27047
825.508	27214
825.648	27161
825.787	27146
825.927	27150
826.067	27055
826.206	27230
826.346	27291
826.485	27249
826.625	27173
826.765	27294
826.904	27173
827.044	26906
827.183	26864
827.323	26906
827.462	26956
827.601	26765
827.741	26990
827.88	26918
828.02	26811
828.159	26880
828.298	26807
828.437	26910
828.577	26739
828.716	26994
828.855	26731
828.994	26545
829.134	26568
829.273	26537
829.412	26446
829.551	26594
829.69	26511
829.829	26693
829.968	26720
830.107	26556
830.246	26503
830.385	26594
830.524	26362
830.663	26153
830.802	26195
830.941	26145
831.08	26187
831.219	26134
831.357	26275
831.496	26343
831.635	26092
831.774	26153
831.913	26081
832.051	25966
832.19	25883
832.329	25871
832.467	25841
832.606	25864
832.744	25890
832.883	25871
833.022	25693
833.16	25727
833.299	25849
833.437	25864
833.576	25978
833.714	25860
833.852	25978
833.991	26012
834.129	26073
834.267	25947
834.406	25814
834.544	25906
834.682	25917
834.821	25769
834.959	25993
835.097	25940
835.235	25936
835.373	25849
835.511	25765
835.65	25742
835.788	25811
835.926	25559
836.064	25510
836.202	25529
836.34	25772
836.478	25696
836.615	25700
836.753	25632
836.891	25803
837.029	25731
837.167	25632
837.305	25609
837.443	25662
837.58	25483
837.718	25521
837.856	25525
837.993	25514
838.131	25411
838.269	25415
838.406	25464
838.544	25365
838.681	25217
838.819	25107
838.956	24996
839.094	25114
839.231	25171
839.369	25236
839.506	25388
839.643	25312
839.781	25019
839.918	25008
840.055	24951
840.193	24939
840.33	24920
840.467	24886
840.604	24890
840.742	25240
840.879	24779
841.016	24833
841.153	24749
841.29	24985
841.427	24814
841.564	24905
841.701	24966
841.838	24856
841.975	24753
842.112	24787
842.249	24654
842.385	24661
842.522	24825
842.659	24639
842.796	24665
842.933	24658
843.069	24753
843.206	24536
843.343	24635
843.479	24661
843.616	24688
843.752	24380
843.889	24429
844.025	24483
844.162	24365
844.298	24429
844.435	24410
844.571	24467
844.708	24559
844.844	24585
844.98	24536
845.117	24555
845.253	24391
845.389	24201
845.525	24292
845.661	24251
845.798	24197
845.934	24262
846.07	24041
846.206	24228
846.342	24311
846.478	24167
846.614	23980
846.75	23870
846.886	23840
847.022	24015
847.158	23958
847.294	23908
847.429	23912
847.565	23790
847.701	24053
847.837	23539
847.972	23505
848.108	23771
848.244	23638
848.379	23497
848.515	23531
848.65	23471
848.786	23436
848.921	23558
849.057	23676
849.192	23684
849.328	23497
849.463	23558
849.598	23471
849.734	23292
849.869	23341
850.004	23189
850.14	23391
850.275	23242
850.41	23151
850.545	23208
850.68	23124
850.815	23353
850.95	23185
851.085	23398
851.22	23402
851.355	23258
851.49	22999
851.625	23197
851.76	23208
851.895	23162
852.03	23140
852.165	23113
852.299	23242
852.434	23356
852.569	23208
852.703	23151
852.838	23212
852.973	23288
853.107	23307
853.242	23128
853.376	23041
853.511	22984
853.645	23048
853.78	23094
853.914	23071
854.048	23041
854.183	23102
854.317	23014
854.451	23197
854.585	23132
854.72	22930
854.854	23197
854.988	23041
855.122	23037
855.256	22908
855.39	23067
855.524	23136
855.658	23094
855.792	23010
855.926	22980
856.06	23048
856.194	22984
856.327	22999
856.461	22835
856.595	22987
856.729	23003
856.862	23128
856.996	22999
857.13	23067
857.263	22991
857.397	23204
857.53	23044
857.664	22968
857.797	23117
857.931	23155
858.064	23174
858.197	23014
858.331	23052
858.464	23010
858.597	22972
858.731	22934
858.864	22995
858.997	23079
859.13	23098
859.263	22976
859.396	23140
859.529	23006
859.662	22904
859.795	23010
859.928	23102
860.061	23254
860.194	23200
860.327	23010
860.46	23105
860.592	23136
860.725	23269
860.858	23147
860.99	23041
861.123	22896
861.256	22885
861.388	23025
861.521	23729
861.653	22927
861.786	22885
861.918	22866
862.05	22904
862.183	23003
862.315	22942
862.447	22934
862.58	22965
862.712	22740
862.844	22721
862.976	22774
863.108	22736
863.24	23197
863.372	22611
863.504	22816
863.636	22759
863.768	22790
863.9	22797
864.032	22675
864.164	22698
864.296	22725
864.428	22904
864.559	22908
864.691	22812
864.823	22763
864.954	22763
865.086	22683
865.217	22607
865.349	22554
865.48	22687
865.612	22603
865.743	22759
865.875	22611
866.006	22527
866.137	22588
866.269	22713
866.4	22611
866.531	22546
866.662	22455
866.793	22538
866.924	22512
867.055	22535
867.186	22637
867.317	22535
867.448	22436
867.579	22523
867.71	22504
867.841	22508
867.972	22512
868.103	22478
868.233	22516
868.364	22538
868.495	22706
868.625	22725
868.756	22801
868.886	22679
869.017	22767
869.147	22869
869.278	22805
869.408	22752
869.539	22763
869.669	22889
869.799	22892
869.929	22896
870.06	22885
870.19	23094
870.32	23044
870.45	23143
870.58	23212
870.71	23235
870.84	23212
870.97	23151
871.1	23105
871.23	23311
871.36	23417
871.489	23204
871.619	23337
871.749	23478
871.879	23372
872.008	23421
872.138	23421
872.267	23387
872.397	23269
872.526	23208
872.656	23200
872.785	23181
872.915	23391
873.044	23417
873.173	23474
873.303	23414
873.432	23452
873.561	23433
873.69	23376
873.819	23414
873.948	23516
874.077	23395
874.206	23425
874.335	23330
874.464	23406
874.593	23600
874.722	23554
874.851	23630
874.979	23528
875.108	23733
875.237	23444
875.365	23528
875.494	23707
875.623	23676
875.751	23406
875.88	23482
876.008	23714
876.136	23729
876.265	24022
876.393	24110
876.521	24087
876.65	24121
876.778	23935
876.906	23836
877.034	23950
877.162	23923
877.29	23855
877.418	23977
877.546	23980
877.674	23756
877.802	23958
877.93	23802
878.058	23946
878.185	23710
878.313	23923
878.441	23840
878.568	23764
878.696	23927
878.824	24060
878.951	24057
879.079	24121
879.206	24311
879.333	24121
879.461	23999
879.588	24144
879.715	24125
879.842	24133
879.97	23954
880.097	23756
880.224	23638
880.351	23710
880.478	23615
880.605	23627
880.732	23790
880.859	24064
880.986	23707
881.112	23779
881.239	23577
881.366	23463
881.493	23360
881.619	23318
881.746	23387
881.872	23269
881.999	23178
882.125	23235
882.252	23311
882.378	23246
882.505	23284
882.631	23128
882.757	23060
882.883	23102
883.01	22904
883.136	22820
883.262	22942
883.388	22873
883.514	22987
883.64	22984
883.766	22892
883.892	22752
884.018	22744
884.143	22736
884.269	22968
884.395	22634
884.52	22478
884.646	22664
884.772	22637
884.897	22363
885.023	22702
885.148	22816
885.274	22755
885.399	22824
885.524	22561
885.65	22542
885.775	22611
885.9	22550
886.025	22721
886.15	22554
886.275	22580
886.4	22398
886.525	22474
886.65	22554
886.775	22535
886.9	22668
887.025	22786
887.149	22607
887.274	22405
887.399	22333
887.523	22291
887.648	22322
887.773	22272
887.897	22409
888.021	22322
888.146	22280
888.27	22379
888.395	22447
888.519	22284
888.643	22303
888.767	22379
888.891	22268
889.015	22093
889.139	22135
889.263	22158
889.387	22219
889.511	22314
889.635	22150
889.759	22116
889.883	22055
890.006	22139
890.13	22238
890.254	21857
890.377	22097
890.501	21831
890.624	21846
890.748	21838
890.871	21774
890.995	21701
891.118	21572
891.241	21682
891.364	21675
891.488	21804
891.611	21751
891.734	21679
891.857	21778
891.98	21743
892.103	21686
892.226	21732
892.349	21603
892.471	21492
892.594	21496
892.717	21652
892.839	21568
892.962	21614
893.085	21564
893.207	21606
893.33	21363
893.452	21534
893.575	21534
893.697	21458
893.819	21663
893.941	21797
894.064	21637
894.186	21519
894.308	21511
894.43	21469
894.552	21819
894.674	21606
894.796	21374
894.918	21408
895.04	21439
895.161	21675
895.283	21545
895.405	21481
895.526	21515
895.648	21473
895.769	21492
895.891	21682
896.012	21618
896.134	21641
896.255	21637
896.376	21428
896.498	21492
896.619	21542
896.74	21515
896.861	21526
896.982	21701
897.103	21888
897.224	21827
897.345	21595
897.466	21667
897.587	21717
897.708	21895
897.828	21766
897.949	21720
898.07	21637
898.19	21637
898.311	21686
898.431	21595
898.552	21675
898.672	21690
898.792	21747
898.913	21835
899.033	21568
899.153	21500
899.273	21435
899.393	21519
899.513	21466
899.633	21542
899.753	21557
899.873	21199
899.993	21363
900.113	21363
900.232	21336
900.352	21291
900.472	21245
900.591	21252
900.711	21294
900.83	21207
900.95	21268
901.069	21260
901.189	21066
901.308	20880
901.427	20800
901.546	20735
901.665	20788
901.784	20682
901.904	20606
902.023	20526
902.141	20362
902.26	20290
902.379	20229
902.498	20221
902.617	20221
902.735	20282
902.854	20164
902.973	20161
903.091	20043
903.21	19944
903.328	19932
903.446	19780
903.565	19772
903.683	19719
903.801	19594
903.919	19727
904.038	19674
904.156	19464
904.274	19460
904.392	19453
904.51	19483
904.627	19491
904.745	19426
904.863	19594
904.981	19255
905.098	19187
905.216	19046
905.334	19171
905.451	19152
905.569	19053
905.686	19137
905.803	19061
905.921	18913
906.038	18958
906.155	18958
906.272	18825
906.389	18791
906.506	18635
906.623	18692
906.74	18589
906.857	18441
906.974	18582
907.091	18700
907.208	18700
907.324	18688
907.441	18559
907.557	18357
907.674	18258
907.79	18270
907.907	18376
908.023	18304
908.139	18448
908.256	18346
908.372	18224
908.488	18239
908.604	18038
908.72	18003
908.836	18057
908.952	18083
909.068	18015
909.184	18205
909.3	18011
909.415	18125
909.531	17973
909.647	17771
909.762	17775
909.878	17649
909.993	17615
910.108	17699
910.224	17687
910.339	17668
910.454	17566
910.57	17493
910.685	17402
910.8	17748
910.915	17707
911.03	17627
911.145	17345
911.259	17360
911.374	17284
911.489	17227
911.604	17170
911.718	17056
911.833	17067
911.947	16904
912.062	16885
912.176	17048
912.291	17155
912.405	17174
912.519	17223
912.633	17269
912.748	17045
912.862	16976
912.976	16900
913.09	16752
913.204	16869
913.318	16862
913.431	16831
913.545	16904
913.659	16889
913.772	16786
913.886	16618
914	16645
914.113	16679
914.226	16786
914.34	16675
914.453	16580
914.566	16603
914.68	16493
914.793	16519
914.906	16181
915.019	16253
915.132	16147
915.245	16314
915.358	16219
915.47	16181
915.583	16268
915.696	16112
915.809	16253
915.921	16261
916.034	16238
916.146	16162
916.259	15987
916.371	16207
916.483	16196
916.595	16059
916.708	16002
916.82	15983
916.932	15964
917.044	15945
917.156	15911
917.268	15762
917.38	15873
917.491	15816
917.603	15846
917.715	15930
917.826	15888
917.938	15880
918.049	15663
918.161	15846
918.272	15911
918.384	15907
918.495	15778
918.606	15526
918.717	15469
918.828	15519
918.939	15496
919.05	15485
919.161	15534
919.272	15367
919.383	15386
919.494	15534
919.604	15717
919.715	15534
919.826	15401
919.936	15500
920.047	15618
920.157	15564
920.267	15800
920.378	15572
920.488	15443
920.598	15671
920.708	15747
920.818	15713
920.928	15644
921.038	15747
921.148	15774
921.258	15450
921.368	15302
921.477	15287
921.587	15207
921.697	15116
921.806	15260
921.916	15020
922.025	14864
922.134	14895
922.244	14788
922.353	14834
922.462	14750
922.571	14686
922.68	14583
922.789	14476
922.898	14495
923.007	14537
923.116	14511
923.224	14393
923.333	14427
923.442	14317
923.55	14377
923.659	14351
923.767	14278
923.876	14221
923.984	14294
924.092	14138
924.201	14233
924.309	14240
924.417	14202
924.525	14073
924.633	14199
924.741	15116
924.849	14016
924.956	14096
925.064	13959
925.172	13807
925.279	13860
925.387	13989
925.494	13890
925.602	13909
925.709	13947
925.816	13776
925.924	13738
926.031	13814
926.138	13746
926.245	13894
926.352	13723
926.459	13795
926.566	13864
926.673	13734
926.779	13712
926.886	13647
926.993	13460
927.099	13308
927.206	13407
927.312	13392
927.419	13419
927.525	13350
927.631	13449
927.737	13308
927.843	13285
927.95	13168
928.056	13183
928.162	13217
928.267	13171
928.373	13746
928.479	13225
928.585	13107
928.69	13118
928.796	13198
928.901	12958
929.007	12954
929.112	13069
929.218	12909
929.323	12958
929.428	12871
929.533	13034
929.638	12802
929.743	12897
929.848	12909
929.953	12897
930.058	12703
930.163	12555
930.267	12589
930.372	12684
930.477	12502
930.581	12772
930.685	12620
930.79	12365
930.894	12494
930.998	12410
931.103	12574
931.207	12095
931.311	12133
931.415	12064
931.519	11840
931.623	11840
