Data from test_V78500241_3708.txt Node
Date: Fri Mar 25 16:07:29 CST 2022
User: usil
Spectrometer: V785-0024
Trigger mode: 0
Integration Time (sec): 4.000000E-1
Scans to average: 1
Nonlinearity correction enabled: false
Boxcar width: 0
Storing dark spectrum: false
XAxis mode: Wavelengths
Number of Pixels in Spectrum: 1024
>>>>>Begin Spectral Data<<<<<
801.071	28447
801.214	28390
801.356	28226
801.499	28272
801.641	28101
801.783	28055
801.926	28067
802.068	28097
802.211	28055
802.353	27850
802.496	27679
802.638	27633
802.78	27724
802.923	27557
803.065	27553
803.208	27778
803.35	27785
803.492	27827
803.635	27914
803.777	27808
803.919	27937
804.061	28295
804.204	28055
804.346	27960
804.488	27865
804.63	27888
804.773	27914
804.915	28032
805.057	28055
805.199	28036
805.341	28124
805.483	28135
805.626	28162
805.768	28116
805.91	28078
806.052	28074
806.194	28029
806.336	28265
806.478	28048
806.62	28192
806.762	28291
806.904	28401
807.046	28706
807.188	28580
807.33	28577
807.472	28683
807.614	28401
807.756	28569
807.898	28363
808.04	28367
808.182	28318
808.324	28436
808.465	28466
808.607	28694
808.749	28763
808.891	28965
809.033	29033
809.174	28839
809.316	28778
809.458	28740
809.6	28759
809.741	28900
809.883	28953
810.025	29052
810.166	29170
810.308	29121
810.45	28946
810.591	29022
810.733	28816
810.875	28797
811.016	28710
811.158	28850
811.299	28946
811.441	28965
811.582	29037
811.724	28816
811.865	28854
812.007	28835
812.148	28782
812.29	28858
812.431	29048
812.573	29254
812.714	29181
812.855	29288
812.997	29448
813.138	29505
813.279	29395
813.421	29356
813.562	29448
813.703	29064
813.845	29094
813.986	28824
814.127	28603
814.268	28630
814.41	28653
814.551	28485
814.692	28622
814.833	28428
814.974	28542
815.115	28573
815.256	28405
815.397	28554
815.539	28310
815.68	28314
815.821	28223
815.962	28493
816.103	28246
816.244	28219
816.385	28200
816.526	28154
816.666	27937
816.807	27804
816.948	27785
817.089	27937
817.23	27899
817.371	27797
817.512	27800
817.653	27937
817.793	27778
817.934	27865
818.075	27918
818.216	27766
818.356	27728
818.497	27648
818.638	27675
818.778	27717
818.919	27591
819.06	27614
819.2	27671
819.341	27728
819.481	27770
819.622	27987
819.762	28238
819.903	28029
820.043	27964
820.184	27926
820.324	27964
820.465	27998
820.605	27983
820.746	28002
820.886	27880
821.026	27918
821.167	27785
821.307	27861
821.447	27914
821.588	27812
821.728	27591
821.868	27272
822.008	27355
822.149	27374
822.289	27424
822.429	27032
822.569	27157
822.709	27074
822.849	26849
822.99	26880
823.13	26845
823.27	26804
823.41	26568
823.55	26469
823.69	26606
823.83	26670
823.97	26598
824.11	26431
824.25	26355
824.389	26355
824.529	26526
824.669	26309
824.809	26522
824.949	26549
825.089	26526
825.228	26530
825.368	26366
825.508	26389
825.648	26301
825.787	26298
825.927	26492
826.067	26324
826.206	26317
826.346	26377
826.485	26511
826.625	26400
826.765	26324
826.904	26374
827.044	26126
827.183	26149
827.323	26035
827.462	26062
827.601	25997
827.741	26081
827.88	26130
828.02	25925
828.159	25955
828.298	26176
828.437	26126
828.577	25993
828.716	26259
828.855	25940
828.994	25742
829.134	25685
829.273	25940
829.412	25719
829.551	25594
829.69	25807
829.829	25852
829.968	25791
830.107	25898
830.246	25677
830.385	25677
830.524	25712
830.663	25521
830.802	25540
830.941	25282
831.08	25312
831.219	25400
831.357	25255
831.496	25521
831.635	25362
831.774	25373
831.913	25148
832.051	25160
832.19	25183
832.329	25175
832.467	25095
832.606	24913
832.744	25194
832.883	25046
833.022	24935
833.16	24989
833.299	25152
833.437	25034
833.576	25171
833.714	25122
833.852	25141
833.991	25152
834.129	25240
834.267	25270
834.406	25118
834.544	25145
834.682	25194
834.821	24977
834.959	25247
835.097	25107
835.235	25015
835.373	25019
835.511	25110
835.65	24924
835.788	24996
835.926	24894
836.064	24700
836.202	24817
836.34	24878
836.478	25023
836.615	24966
836.753	24878
836.891	25023
837.029	24928
837.167	24894
837.305	24882
837.443	24837
837.58	24757
837.718	24776
837.856	24795
837.993	24544
838.131	24749
838.269	24646
838.406	24563
838.544	24559
838.681	24509
838.819	24308
838.956	24182
839.094	24209
839.231	24277
839.369	24460
839.506	24559
839.643	24505
839.781	24194
839.918	24178
840.055	24213
840.193	24152
840.33	24121
840.467	24133
840.604	24098
840.742	24315
840.879	23984
841.016	23999
841.153	23958
841.29	24232
841.427	24194
841.564	24194
841.701	24148
841.838	24079
841.975	23935
842.112	23893
842.249	23996
842.385	23939
842.522	24015
842.659	23973
842.796	23828
842.933	23882
843.069	23859
843.206	23977
843.343	23923
843.479	23836
843.616	23863
843.752	23775
843.889	23737
844.025	23764
844.162	23627
844.298	23661
844.435	23661
844.571	23558
844.708	23630
844.844	23699
844.98	23836
845.117	23668
845.253	23535
845.389	23463
845.525	23608
845.661	23581
845.798	23376
845.934	23558
846.07	23398
846.206	23395
846.342	23509
846.478	23223
846.614	23140
846.75	23094
846.886	23151
847.022	23242
847.158	23261
847.294	23166
847.429	23193
847.565	23048
847.701	23303
847.837	22968
847.972	22835
848.108	22869
848.244	22965
848.379	22771
848.515	22664
848.65	22561
848.786	22622
848.921	22729
849.057	22782
849.192	22828
849.328	22721
849.463	22694
849.598	22557
849.734	22561
849.869	22508
850.004	22497
850.14	22478
850.275	22394
850.41	22413
850.545	22417
850.68	22447
850.815	22497
850.95	22451
851.085	22713
851.22	22584
851.355	22573
851.49	22375
851.625	22466
851.76	22531
851.895	22341
852.03	22367
852.165	22542
852.299	22504
852.434	22508
852.569	22573
852.703	22493
852.838	22405
852.973	22645
853.107	22527
853.242	22390
853.376	22363
853.511	22204
853.645	22204
853.78	22329
853.914	22265
854.048	22188
854.183	22299
854.317	22219
854.451	22485
854.585	22287
854.72	22246
854.854	22375
854.988	22249
855.122	22265
855.256	22124
855.39	22204
855.524	22280
855.658	22295
855.792	22398
855.926	22299
856.06	22310
856.194	22379
856.327	22295
856.461	22207
856.595	22112
856.729	22291
856.862	22470
856.996	22417
857.13	22356
857.263	22398
857.397	22531
857.53	22352
857.664	22455
857.797	22257
857.931	22500
858.064	22303
858.197	22318
858.331	22371
858.464	22322
858.597	22272
858.731	22284
858.864	22150
858.997	22337
859.13	22333
859.263	22234
859.396	22413
859.529	22276
859.662	22246
859.795	22253
859.928	22261
860.061	22394
860.194	22527
860.327	22413
860.46	22379
860.592	22466
860.725	22314
860.858	22554
860.99	22310
861.123	22272
861.256	22257
861.388	22466
861.521	22915
861.653	22090
861.786	21994
861.918	22082
862.05	22204
862.183	22181
862.315	22226
862.447	22314
862.58	22211
862.712	21972
862.844	21918
862.976	22032
863.108	22181
863.24	22508
863.372	21857
863.504	21953
863.636	21972
863.768	22059
863.9	22021
864.032	21941
864.164	21994
864.296	22070
864.428	22093
864.559	22055
864.691	22090
864.823	21956
864.954	21911
865.086	22032
865.217	21804
865.349	21717
865.48	21850
865.612	21865
865.743	22021
865.875	21884
866.006	21892
866.137	21926
866.269	21785
866.4	21850
866.531	21865
866.662	21831
866.793	21766
866.924	21781
867.055	21861
867.186	21762
867.317	21728
867.448	21747
867.579	21755
867.71	21728
867.841	21633
867.972	21797
868.103	21819
868.233	21797
868.364	21846
868.495	21930
868.625	22021
868.756	22131
868.886	21941
869.017	22067
869.147	22120
869.278	22048
869.408	21987
869.539	22063
869.669	22048
869.799	21994
869.929	22147
870.06	22154
870.19	22394
870.32	22348
870.45	22382
870.58	22398
870.71	22531
870.84	22557
870.97	22440
871.1	22417
871.23	22584
871.36	22542
871.489	22489
871.619	22641
871.749	22649
871.879	22668
872.008	22710
872.138	22691
872.267	22683
872.397	22493
872.526	22561
872.656	22367
872.785	22516
872.915	22660
873.044	22679
873.173	22664
873.303	22698
873.432	22786
873.561	22744
873.69	22710
873.819	22611
873.948	22812
874.077	22752
874.206	22653
874.335	22577
874.464	22831
874.593	22927
874.722	22858
874.851	22869
874.979	22797
875.108	22904
875.237	22866
875.365	22797
875.494	22877
875.623	22991
875.751	22835
875.88	23098
876.008	22999
876.136	23014
876.265	23353
876.393	23398
876.521	23254
876.65	23368
876.778	23376
876.906	23227
877.034	23273
877.162	23330
877.29	23231
877.418	23330
877.546	23349
877.674	23113
877.802	23254
877.93	23064
878.058	23212
878.185	23079
878.313	23151
878.441	23181
878.568	23113
878.696	23174
878.824	23387
878.951	23273
879.079	23376
879.206	23425
879.333	23353
879.461	23280
879.588	23387
879.715	23341
879.842	23425
879.97	23326
880.097	23105
880.224	23064
880.351	23003
880.478	23102
880.605	23014
880.732	23086
880.859	23269
880.986	23094
881.112	23010
881.239	22896
881.366	22740
881.493	22645
881.619	22603
881.746	22725
881.872	22698
881.999	22615
882.125	22478
882.252	22679
882.378	22660
882.505	22767
882.631	22451
882.757	22360
882.883	22424
883.01	22249
883.136	22284
883.262	22200
883.388	22192
883.514	22276
883.64	22219
883.766	22284
883.892	21964
884.018	22109
884.143	22188
884.269	22268
884.395	21949
884.52	21975
884.646	21899
884.772	21842
884.897	21888
885.023	21941
885.148	21945
885.274	21945
885.399	22090
885.524	21979
885.65	22021
885.775	21930
885.9	21998
886.025	22078
886.15	21987
886.275	21888
886.4	21865
886.525	21869
886.65	21759
886.775	21838
886.9	22021
887.025	22166
887.149	21960
887.274	21793
887.399	21724
887.523	21656
887.648	21690
887.773	21618
887.897	21880
888.021	21770
888.146	21637
888.27	21800
888.395	21854
888.519	21713
888.643	21679
888.767	21656
888.891	21519
889.015	21450
889.139	21580
889.263	21500
889.387	21435
889.511	21682
889.635	21633
889.759	21363
889.883	21496
890.006	21428
890.13	21519
890.254	21412
890.377	21313
890.501	21260
890.624	21207
890.748	21283
890.871	21138
890.995	21001
891.118	21001
891.241	21070
891.364	20944
891.488	21157
891.611	20990
891.734	20986
891.857	21108
891.98	21055
892.103	20986
892.226	21100
892.349	21051
892.471	20819
892.594	20956
892.717	21017
892.839	20895
892.962	20823
893.085	20944
893.207	20899
893.33	20933
893.452	20804
893.575	20952
893.697	20921
893.819	21058
893.941	21108
894.064	21070
894.186	20815
894.308	20830
894.43	20948
894.552	21108
894.674	20990
894.796	20906
894.918	20876
895.04	20819
895.161	20963
895.283	20956
895.405	20819
895.526	20975
895.648	20902
895.769	20967
895.891	20933
896.012	21093
896.134	20925
896.255	20906
896.376	20880
896.498	20823
896.619	20963
896.74	20975
896.861	20994
896.982	21291
897.103	21344
897.224	21070
897.345	21066
897.466	21070
897.587	21119
897.708	21291
897.828	21199
897.949	21085
898.07	21047
898.19	21009
898.311	21233
898.431	21108
898.552	21138
898.672	21116
898.792	21165
898.913	21203
899.033	20921
899.153	20933
899.273	20929
899.393	20823
899.513	21017
899.633	20811
899.753	20823
899.873	20678
899.993	20948
900.113	20716
900.232	20735
900.352	20659
900.472	20598
900.591	20514
900.711	20640
900.83	20533
900.95	20678
901.069	20590
901.189	20640
901.308	20275
901.427	20180
901.546	20282
901.665	20244
901.784	20069
901.904	20012
902.023	20001
902.141	19746
902.26	19761
902.379	19761
902.498	19658
902.617	19731
902.735	19746
902.854	19788
902.973	19655
903.091	19400
903.21	19441
903.328	19354
903.446	19282
903.565	19095
903.683	19148
903.801	19095
903.919	19072
904.038	19046
904.156	19061
904.274	18924
904.392	18806
904.51	18951
904.627	18913
904.745	18970
904.863	19042
904.981	18696
905.098	18536
905.216	18593
905.334	18661
905.451	18654
905.569	18589
905.686	18623
905.803	18551
905.921	18353
906.038	18426
906.155	18418
906.272	18159
906.389	18311
906.506	18114
906.623	18110
906.74	18098
906.857	18064
906.974	18019
907.091	18155
907.208	18182
907.324	18106
907.441	17969
907.557	17882
907.674	17912
907.79	17783
907.907	17718
908.023	17931
908.139	17779
908.256	17821
908.372	17756
908.488	17615
908.604	17558
908.72	17528
908.836	17543
908.952	17459
909.068	17471
909.184	17665
909.3	17501
909.415	17562
909.531	17558
909.647	17299
909.762	17277
909.878	17216
909.993	17296
910.108	17193
910.224	17189
910.339	17075
910.454	17159
910.57	17052
910.685	16999
910.8	17185
910.915	17193
911.03	16976
911.145	16858
911.259	16710
911.374	16748
911.489	16687
911.604	16542
911.718	16630
911.833	16512
911.947	16523
912.062	16348
912.176	16538
912.291	16535
912.405	16569
912.519	16626
912.633	16797
912.748	16542
912.862	16554
912.976	16379
913.09	16287
913.204	16348
913.318	16382
913.431	16459
913.545	16497
913.659	16485
913.772	16322
913.886	16128
914	16158
914.113	16276
914.226	16265
914.34	16211
914.453	15968
914.566	16234
914.68	16048
914.793	16006
914.906	15869
915.019	15770
915.132	15686
915.245	15663
915.358	15823
915.47	15827
915.583	15720
915.696	15770
915.809	15827
915.921	15953
916.034	15694
916.146	15603
916.259	15572
916.371	15671
916.483	15660
916.595	15523
916.708	15599
916.82	15515
916.932	15443
917.044	15530
917.156	15393
917.268	15386
917.38	15386
917.491	15348
917.603	15386
917.715	15485
917.826	15420
917.938	15279
918.049	15279
918.161	15245
918.272	15454
918.384	15348
918.495	15245
918.606	15218
918.717	15070
918.828	15165
918.939	15154
919.05	14971
919.161	15138
919.272	14834
919.383	14933
919.494	15165
919.604	15237
919.715	15138
919.826	15013
919.936	15013
920.047	15226
920.157	15005
920.267	15214
920.378	15024
920.488	15085
920.598	15264
920.708	15466
920.818	15195
920.928	15237
921.038	15378
921.148	15226
921.258	14956
921.368	15013
921.477	14785
921.587	14758
921.697	14655
921.806	14750
921.916	14552
922.025	14495
922.134	14358
922.244	14377
922.353	14339
922.462	14206
922.571	14210
922.68	14126
922.789	14008
922.898	14005
923.007	14050
923.116	14100
923.224	14039
923.333	13963
923.442	13947
923.55	13879
923.659	13993
923.767	13860
923.876	13906
923.984	13967
924.092	13712
924.201	13753
924.309	13883
924.417	13628
924.525	13674
924.633	13662
924.741	14423
924.849	13464
924.956	13563
925.064	13449
925.172	13449
925.279	13445
925.387	13491
925.494	13411
925.602	13647
925.709	13434
925.816	13316
925.924	13438
926.031	13506
926.138	13400
926.245	13350
926.352	13369
926.459	13392
926.566	13457
926.673	13339
926.779	13168
926.886	13152
926.993	13061
927.099	12958
927.206	13012
927.312	12935
927.419	13031
927.525	12962
927.631	13042
927.737	12989
927.843	12837
927.95	12852
928.056	12833
928.162	12833
928.267	12871
928.373	13422
928.479	12890
928.585	12703
928.69	12753
928.796	12787
928.901	12696
929.007	12620
929.112	12734
929.218	12547
929.323	12483
929.428	12437
929.533	12696
929.638	12502
929.743	12433
929.848	12460
929.953	12433
930.058	12292
930.163	12106
930.267	12190
930.372	12319
930.477	12171
930.581	12422
930.685	12296
930.79	12034
930.894	12091
930.998	12098
931.103	12167
931.207	11786
931.311	11756
931.415	11642
931.519	11425
931.623	11414
