Data from test_V78500241_100.txt Node
Date: Fri Mar 25 15:42:29 CST 2022
User: usil
Spectrometer: V785-0024
Trigger mode: 0
Integration Time (sec): 4.000000E-1
Scans to average: 1
Nonlinearity correction enabled: false
Boxcar width: 0
Storing dark spectrum: false
XAxis mode: Wavelengths
Number of Pixels in Spectrum: 1024
>>>>>Begin Spectral Data<<<<<
801.071	29935
801.214	29862
801.356	29653
801.499	29421
801.641	29429
801.783	29463
801.926	29372
802.068	29421
802.211	29330
802.353	29170
802.496	29064
802.638	28999
802.78	29132
802.923	28953
803.065	28847
803.208	29124
803.35	29250
803.492	29227
803.635	29227
803.777	29121
803.919	29067
804.061	29284
804.204	29140
804.346	29193
804.488	29090
804.63	28949
804.773	29022
804.915	29048
805.057	29265
805.199	29079
805.341	29265
805.483	29292
805.626	29315
805.768	29170
805.91	29151
806.052	29330
806.194	29079
806.336	29433
806.478	29288
806.62	29193
806.762	29265
806.904	29520
807.046	29707
807.188	29665
807.33	29592
807.472	29790
807.614	29573
807.756	29592
807.898	29493
808.04	29387
808.182	29433
808.324	29467
808.465	29501
808.607	29558
808.749	29745
808.891	29862
809.033	29802
809.174	29931
809.316	29790
809.458	29798
809.6	29714
809.741	29912
809.883	29901
810.025	30026
810.166	30083
810.308	30034
810.45	29973
810.591	29996
810.733	29946
810.875	29760
811.016	29771
811.158	29668
811.299	29893
811.441	29973
811.582	29729
811.724	29687
811.865	29790
812.007	29718
812.148	29680
812.29	29710
812.431	29950
812.573	30045
812.714	30015
812.855	30315
812.997	30349
813.138	30376
813.279	30270
813.421	30205
813.562	30270
813.703	30159
813.845	29969
813.986	29615
814.127	29512
814.268	29455
814.41	29395
814.551	29471
814.692	29615
814.833	29292
814.974	29273
815.115	29254
815.256	29227
815.397	29094
815.539	29079
815.68	29098
815.821	29041
815.962	29124
816.103	29098
816.244	28984
816.385	28915
816.526	28866
816.666	28630
816.807	28481
816.948	28557
817.089	28588
817.23	28531
817.371	28375
817.512	28356
817.653	28413
817.793	28474
817.934	28615
818.075	28516
818.216	28428
818.356	28474
818.497	28360
818.638	28093
818.778	28162
818.919	28128
819.06	28207
819.2	28318
819.341	28375
819.481	28287
819.622	28527
819.762	28694
819.903	28713
820.043	28485
820.184	28432
820.324	28371
820.465	28668
820.605	28535
820.746	28542
820.886	28230
821.026	28421
821.167	28325
821.307	28443
821.447	28329
821.588	28318
821.728	28029
821.868	27964
822.008	27728
822.149	27808
822.289	27743
822.429	27420
822.569	27652
822.709	27389
822.849	27275
822.99	27252
823.13	27203
823.27	27195
823.41	27032
823.55	26823
823.69	27051
823.83	27036
823.97	26971
824.11	26819
824.25	26804
824.389	26838
824.529	26975
824.669	26830
824.809	26895
824.949	26937
825.089	26838
825.228	26845
825.368	26434
825.508	26777
825.648	26583
825.787	26678
825.927	26670
826.067	26644
826.206	26678
826.346	26705
826.485	26686
826.625	26667
826.765	26636
826.904	26651
827.044	26404
827.183	26343
827.323	26271
827.462	26309
827.601	26362
827.741	26191
827.88	26370
828.02	26183
828.159	26355
828.298	26358
828.437	26412
828.577	26214
828.716	26400
828.855	26187
828.994	25993
829.134	26008
829.273	25879
829.412	25856
829.551	25879
829.69	25986
829.829	25959
829.968	26020
830.107	25963
830.246	25849
830.385	25818
830.524	25822
830.663	25860
830.802	25594
830.941	25586
831.08	25525
831.219	25441
831.357	25590
831.496	25712
831.635	25468
831.774	25304
831.913	25358
832.051	25259
832.19	25183
832.329	25247
832.467	25206
832.606	25137
832.744	25046
832.883	25091
833.022	25095
833.16	25069
833.299	25129
833.437	25031
833.576	25148
833.714	25053
833.852	25118
833.991	25118
834.129	25080
834.267	25118
834.406	25000
834.544	25050
834.682	24985
834.821	25080
834.959	25285
835.097	25091
835.235	25145
835.373	25110
835.511	25038
835.65	24916
835.788	24897
835.926	24844
836.064	24608
836.202	24661
836.34	24867
836.478	24943
836.615	24741
836.753	24970
836.891	24992
837.029	24901
837.167	24768
837.305	24757
837.443	24882
837.58	24719
837.718	24741
837.856	24779
837.993	24597
838.131	24574
838.269	24681
838.406	24715
838.544	24635
838.681	24350
838.819	24338
838.956	24072
839.094	24007
839.231	24243
839.369	24330
839.506	24494
839.643	24403
839.781	24095
839.918	24041
840.055	24041
840.193	24091
840.33	24095
840.467	24129
840.604	24159
840.742	24114
840.879	23889
841.016	23832
841.153	23809
841.29	23980
841.427	24057
841.564	23931
841.701	23908
841.838	23821
841.975	23901
842.112	23912
842.249	23748
842.385	23760
842.522	23790
842.659	23653
842.796	23642
842.933	23676
843.069	23577
843.206	23608
843.343	23771
843.479	23699
843.616	23566
843.752	23444
843.889	23433
844.025	23600
844.162	23433
844.298	23505
844.435	23364
844.571	23356
844.708	23471
844.844	23444
844.98	23493
845.117	23474
845.253	23265
845.389	23326
845.525	23292
845.661	23117
845.798	23121
845.934	23121
846.07	23075
846.206	23033
846.342	23143
846.478	23136
846.614	22828
846.75	22782
846.886	22725
847.022	22949
847.158	22710
847.294	22934
847.429	22831
847.565	22694
847.701	22968
847.837	22455
847.972	22341
848.108	22630
848.244	22489
848.379	22390
848.515	22360
848.65	22402
848.786	22375
848.921	22375
849.057	22371
849.192	22421
849.328	22402
849.463	22367
849.598	22219
849.734	22219
849.869	22086
850.004	21975
850.14	22226
850.275	22120
850.41	22002
850.545	22063
850.68	21979
850.815	22044
850.95	22017
851.085	22322
851.22	22169
851.355	22029
851.49	22021
851.625	21918
851.76	22025
851.895	21968
852.03	21937
852.165	21922
852.299	22173
852.434	22078
852.569	22143
852.703	21968
852.838	22029
852.973	22196
853.107	22150
853.242	21975
853.376	21918
853.511	21728
853.645	21857
853.78	21907
853.914	21876
854.048	21903
854.183	21838
854.317	21983
854.451	21979
854.585	21850
854.72	21899
854.854	21941
854.988	21797
855.122	21747
855.256	21622
855.39	21857
855.524	21945
855.658	21785
855.792	21869
855.926	21701
856.06	21968
856.194	21876
856.327	21835
856.461	21720
856.595	21648
856.729	21679
856.862	21934
856.996	21759
857.13	21930
857.263	21861
857.397	21865
857.53	21759
857.664	21816
857.797	21850
857.931	21911
858.064	21793
858.197	21903
858.331	21785
858.464	21629
858.597	21606
858.731	21793
858.864	21736
858.997	21759
859.13	21759
859.263	21698
859.396	21873
859.529	21789
859.662	21793
859.795	21663
859.928	21778
860.061	21949
860.194	22013
860.327	21854
860.46	21759
860.592	21823
860.725	21876
860.858	21937
860.99	21762
861.123	21648
861.256	21701
861.388	21827
861.521	22314
861.653	21568
861.786	21526
861.918	21705
862.05	21671
862.183	21762
862.315	21797
862.447	21797
862.58	21720
862.712	21504
862.844	21485
862.976	21504
863.108	21561
863.24	21774
863.372	21469
863.504	21374
863.636	21469
863.768	21534
863.9	21408
864.032	21386
864.164	21348
864.296	21447
864.428	21481
864.559	21557
864.691	21545
864.823	21397
864.954	21355
865.086	21439
865.217	21272
865.349	21184
865.48	21485
865.612	21340
865.743	21355
865.875	21393
866.006	21268
866.137	21397
866.269	21359
866.4	21291
866.531	21184
866.662	21222
866.793	21077
866.924	21173
867.055	21252
867.186	21176
867.317	21249
867.448	21116
867.579	21195
867.71	21142
867.841	21123
867.972	21272
868.103	21264
868.233	21275
868.364	21283
868.495	21154
868.625	21454
868.756	21526
868.886	21496
869.017	21374
869.147	21694
869.278	21553
869.408	21561
869.539	21389
869.669	21500
869.799	21458
869.929	21660
870.06	21488
870.19	21770
870.32	21755
870.45	21857
870.58	21895
870.71	21953
870.84	21941
870.97	21854
871.1	21937
871.23	22029
871.36	22013
871.489	22048
871.619	21964
871.749	22147
871.879	22177
872.008	22120
872.138	22063
872.267	21907
872.397	21823
872.526	21736
872.656	21994
872.785	21907
872.915	22070
873.044	22131
873.173	22120
873.303	22109
873.432	22082
873.561	22185
873.69	22200
873.819	22109
873.948	22166
874.077	22002
874.206	21998
874.335	22063
874.464	22211
874.593	22367
874.722	22337
874.851	22299
874.979	22413
875.108	22417
875.237	22276
875.365	22238
875.494	22363
875.623	22386
875.751	22306
875.88	22356
876.008	22436
876.136	22459
876.265	22561
876.393	22809
876.521	22801
876.65	22771
876.778	22786
876.906	22523
877.034	22706
877.162	22618
877.29	22611
877.418	22698
877.546	22687
877.674	22668
877.802	22634
877.93	22637
878.058	22630
878.185	22565
878.313	22649
878.441	22565
878.568	22493
878.696	22706
878.824	22645
878.951	22683
879.079	22809
879.206	22938
879.333	22858
879.461	22755
879.588	22816
879.715	22786
879.842	22980
879.97	22687
880.097	22557
880.224	22497
880.351	22493
880.478	22599
880.605	22440
880.732	22516
880.859	22702
880.986	22554
881.112	22546
881.239	22424
881.366	22303
881.493	22192
881.619	22051
881.746	22135
881.872	22112
881.999	21987
882.125	22010
882.252	22070
882.378	22051
882.505	22341
882.631	21922
882.757	21660
882.883	21956
883.01	21827
883.136	21739
883.262	21739
883.388	21762
883.514	21682
883.64	21880
883.766	21762
883.892	21705
884.018	21591
884.143	21762
884.269	21816
884.395	21431
884.52	21450
884.646	21386
884.772	21374
884.897	21298
885.023	21519
885.148	21447
885.274	21538
885.399	21542
885.524	21386
885.65	21447
885.775	21298
885.9	21310
886.025	21389
886.15	21344
886.275	21336
886.4	21294
886.525	21370
886.65	21359
886.775	21348
886.9	21424
887.025	21572
887.149	21454
887.274	21051
887.399	21218
887.523	21180
887.648	21013
887.773	21096
887.897	21199
888.021	21055
888.146	21085
888.27	21279
888.395	21249
888.519	21138
888.643	21256
888.767	21188
888.891	21074
889.015	21062
889.139	21051
889.263	20929
889.387	20963
889.511	21180
889.635	20986
889.759	20777
889.883	20925
890.006	20838
890.13	20929
890.254	20868
890.377	20781
890.501	20552
890.624	20636
890.748	20712
890.871	20613
890.995	20488
891.118	20427
891.241	20583
891.364	20484
891.488	20533
891.611	20484
891.734	20522
891.857	20389
891.98	20495
892.103	20530
892.226	20415
892.349	20400
892.471	20210
892.594	20347
892.717	20442
892.839	20389
892.962	20522
893.085	20450
893.207	20450
893.33	20252
893.452	20278
893.575	20454
893.697	20434
893.819	20518
893.941	20648
894.064	20549
894.186	20252
894.308	20286
894.43	20503
894.552	20484
894.674	20377
894.796	20172
894.918	20339
895.04	20343
895.161	20355
895.283	20355
895.405	20237
895.526	20362
895.648	20374
895.769	20408
895.891	20305
896.012	20427
896.134	20438
896.255	20484
896.376	20412
896.498	20495
896.619	20484
896.74	20442
896.861	20434
896.982	20750
897.103	20880
897.224	20667
897.345	20735
897.466	20552
897.587	20564
897.708	20708
897.828	20682
897.949	20476
898.07	20552
898.19	20541
898.311	20629
898.431	20450
898.552	20583
898.672	20587
898.792	20587
898.913	20465
899.033	20313
899.153	20336
899.273	20081
899.393	20240
899.513	20366
899.633	20415
899.753	20282
899.873	20214
899.993	20267
900.113	20256
900.232	20298
900.352	20248
900.472	20027
900.591	20008
900.711	20149
900.83	19879
900.95	20168
901.069	20161
901.189	20035
901.308	19791
901.427	19662
901.546	19616
901.665	19655
901.784	19647
901.904	19529
902.023	19343
902.141	19148
902.26	19164
902.379	19282
902.498	19080
902.617	19095
902.735	19187
902.854	19019
902.973	19008
903.091	18722
903.21	18764
903.328	18837
903.446	18726
903.565	18604
903.683	18631
903.801	18536
903.919	18601
904.038	18566
904.156	18410
904.274	18467
904.392	18441
904.51	18327
904.627	18369
904.745	18441
904.863	18388
904.981	18194
905.098	18060
905.216	18091
905.334	18068
905.451	18098
905.569	17946
905.686	18057
905.803	17999
905.921	17745
906.038	17828
906.155	17813
906.272	17737
906.389	17657
906.506	17543
906.623	17608
906.74	17482
906.857	17280
906.974	17532
907.091	17543
907.208	17581
907.324	17486
907.441	17395
907.557	17170
907.674	17261
907.79	17162
907.907	17265
908.023	17162
908.139	17220
908.256	17212
908.372	17223
908.488	17102
908.604	16972
908.72	16843
908.836	16980
908.952	16904
909.068	16930
909.184	17064
909.3	16858
909.415	16911
909.531	16972
909.647	16615
909.762	16577
909.878	16554
909.993	16588
910.108	16558
910.224	16561
910.339	16519
910.454	16443
910.57	16428
910.685	16329
910.8	16466
910.915	16474
911.03	16348
911.145	16246
911.259	16207
911.374	16181
911.489	16036
911.604	16040
911.718	15892
911.833	15941
911.947	15857
912.062	15865
912.176	15876
912.291	15983
912.405	15854
912.519	16048
912.633	16185
912.748	15823
912.862	15857
912.976	15701
913.09	15603
913.204	15656
913.318	15648
913.431	15808
913.545	15747
913.659	15808
913.772	15644
913.886	15424
914	15439
914.113	15538
914.226	15587
914.34	15496
914.453	15420
914.566	15564
914.68	15332
914.793	15332
914.906	15146
915.019	15214
915.132	15047
915.245	14986
915.358	15150
915.47	15161
915.583	15100
915.696	15192
915.809	15291
915.921	15268
916.034	14956
916.146	15001
916.259	15085
916.371	15039
916.483	15039
916.595	15024
916.708	14891
916.82	14880
916.932	14872
917.044	14948
917.156	14834
917.268	14731
917.38	14815
917.491	14701
917.603	14781
917.715	14899
917.826	14872
917.938	14758
918.049	14629
918.161	14705
918.272	14739
918.384	14830
918.495	14701
918.606	14549
918.717	14484
918.828	14492
918.939	14465
919.05	14415
919.161	14438
919.272	14202
919.383	14324
919.494	14484
919.604	14602
919.715	14571
919.826	14431
919.936	14419
920.047	14514
920.157	14522
920.267	14697
920.378	14415
920.488	14427
920.598	14473
920.708	14651
920.818	14598
920.928	14442
921.038	14693
921.148	14602
921.258	14298
921.368	14275
921.477	14142
921.587	14149
921.697	14054
921.806	14130
921.916	14073
922.025	13852
922.134	13928
922.244	13830
922.353	13845
922.462	13693
922.571	13670
922.68	13419
922.789	13434
922.898	13415
923.007	13426
923.116	13373
923.224	13358
923.333	13449
923.442	13244
923.55	13259
923.659	13244
923.767	13240
923.876	13244
923.984	13297
924.092	13065
924.201	13198
924.309	13209
924.417	13141
924.525	13103
924.633	13099
924.741	13913
924.849	12817
924.956	13019
925.064	12829
925.172	12806
925.279	12779
925.387	12954
925.494	12810
925.602	13000
925.709	12901
925.816	12711
925.924	12806
926.031	12825
926.138	12764
926.245	12875
926.352	12734
926.459	12791
926.566	12875
926.673	12757
926.779	12597
926.886	12559
926.993	12410
927.099	12422
927.206	12407
927.312	12433
927.419	12403
927.525	12403
927.631	12490
927.737	12247
927.843	12167
927.95	12057
928.056	12228
928.162	12251
928.267	12334
928.373	12916
928.479	12323
928.585	12076
928.69	12163
928.796	12152
928.901	12057
929.007	11931
929.112	12019
929.218	12045
929.323	11935
929.428	11954
929.533	12079
929.638	11866
929.743	11863
929.848	11942
929.953	11889
930.058	11767
930.163	11695
930.267	11615
930.372	11798
930.477	11608
930.581	11874
930.685	11684
930.79	11566
930.894	11592
930.998	11478
931.103	11573
931.207	11174
931.311	11174
931.415	11052
931.519	10892
931.623	10801
