Data from test_V78500241_2038.txt Node
Date: Fri Mar 25 15:55:55 CST 2022
User: usil
Spectrometer: V785-0024
Trigger mode: 0
Integration Time (sec): 4.000000E-1
Scans to average: 1
Nonlinearity correction enabled: false
Boxcar width: 0
Storing dark spectrum: false
XAxis mode: Wavelengths
Number of Pixels in Spectrum: 1024
>>>>>Begin Spectral Data<<<<<
801.071	28767
801.214	28858
801.356	28615
801.499	28390
801.641	28436
801.783	28280
801.926	28436
802.068	28363
802.211	28382
802.353	28253
802.496	28299
802.638	28166
802.78	28063
802.923	28101
803.065	27956
803.208	28082
803.35	28082
803.492	28356
803.635	28249
803.777	28367
803.919	28367
804.061	28679
804.204	28306
804.346	28261
804.488	28090
804.63	28299
804.773	28405
804.915	28424
805.057	28550
805.199	28314
805.341	28519
805.483	28550
805.626	28356
805.768	28405
805.91	28489
806.052	28630
806.194	28428
806.336	28653
806.478	28554
806.62	28561
806.762	28596
806.904	28908
807.046	28991
807.188	28968
807.33	28972
807.472	29006
807.614	28961
807.756	28911
807.898	28835
808.04	28790
808.182	28843
808.324	28771
808.465	29029
808.607	29193
808.749	29356
808.891	29151
809.033	29379
809.174	29368
809.316	29212
809.458	29280
809.6	29258
809.741	29147
809.883	29433
810.025	29375
810.166	29402
810.308	29524
810.45	29425
810.591	29562
810.733	29277
810.875	29136
811.016	29178
811.158	29067
811.299	29318
811.441	29429
811.582	29311
811.724	29174
811.865	29299
812.007	29235
812.148	29318
812.29	29299
812.431	29337
812.573	29467
812.714	29558
812.855	29748
812.997	29699
813.138	30038
813.279	29939
813.421	29760
813.562	29619
813.703	29402
813.845	29410
813.986	29258
814.127	29098
814.268	28839
814.41	28980
814.551	28858
814.692	28911
814.833	28915
814.974	28908
815.115	29064
815.256	28831
815.397	28767
815.539	28729
815.68	28835
815.821	28615
815.962	28675
816.103	28793
816.244	28710
816.385	28554
816.526	28436
816.666	28421
816.807	28242
816.948	28325
817.089	28379
817.23	28295
817.371	28135
817.512	28230
817.653	28272
817.793	28219
817.934	28116
818.075	28318
818.216	28344
818.356	28112
818.497	28044
818.638	28078
818.778	27911
818.919	28105
819.06	28036
819.2	28105
819.341	28329
819.481	28295
819.622	28474
819.762	28675
819.903	28394
820.043	28474
820.184	28367
820.324	28409
820.465	28550
820.605	28356
820.746	28276
820.886	28253
821.026	28367
821.167	28360
821.307	28447
821.447	28265
821.588	28253
821.728	28090
821.868	27793
822.008	27838
822.149	27690
822.289	27583
822.429	27458
822.569	27424
822.709	27344
822.849	27184
822.99	27279
823.13	27241
823.27	27112
823.41	27081
823.55	26895
823.69	27051
823.83	27127
823.97	26986
824.11	26880
824.25	26819
824.389	26883
824.529	26910
824.669	26834
824.809	27089
824.949	26967
825.089	26933
825.228	26948
825.368	26708
825.508	26716
825.648	26739
825.787	26739
825.927	26769
826.067	26640
826.206	26895
826.346	26731
826.485	26940
826.625	26830
826.765	26823
826.904	26815
827.044	26594
827.183	26522
827.323	26408
827.462	26602
827.601	26644
827.741	26469
827.88	26598
828.02	26400
828.159	26415
828.298	26442
828.437	26636
828.577	26309
828.716	26568
828.855	26396
828.994	26168
829.134	26153
829.273	26149
829.412	26244
829.551	26054
829.69	26275
829.829	26237
829.968	26206
830.107	26240
830.246	25993
830.385	26157
830.524	25993
830.663	25989
830.802	25871
830.941	25776
831.08	25765
831.219	25921
831.357	25894
831.496	26031
831.635	25871
831.774	25776
831.913	25731
832.051	25597
832.19	25548
832.329	25525
832.467	25449
832.606	25422
832.744	25441
832.883	25384
833.022	25422
833.16	25407
833.299	25544
833.437	25457
833.576	25491
833.714	25548
833.852	25567
833.991	25479
834.129	25632
834.267	25674
834.406	25518
834.544	25506
834.682	25479
834.821	25533
834.959	25632
835.097	25445
835.235	25529
835.373	25384
835.511	25468
835.65	25369
835.788	25320
835.926	25076
836.064	25091
836.202	25156
836.34	25373
836.478	25472
836.615	25339
836.753	25289
836.891	25430
837.029	25274
837.167	25388
837.305	25263
837.443	25202
837.58	25118
837.718	25152
837.856	25145
837.993	25152
838.131	25088
838.269	25038
838.406	25126
838.544	24966
838.681	24825
838.819	24783
838.956	24601
839.094	24669
839.231	24589
839.369	24852
839.506	24897
839.643	24859
839.781	24483
839.918	24498
840.055	24597
840.193	24582
840.33	24475
840.467	24654
840.604	24585
840.742	24711
840.879	24357
841.016	24384
841.153	24475
841.29	24544
841.427	24551
841.564	24570
841.701	24479
841.838	24422
841.975	24372
842.112	24407
842.249	24285
842.385	24243
842.522	24585
842.659	24338
842.796	24220
842.933	24254
843.069	24220
843.206	24003
843.343	24243
843.479	24216
843.616	24418
843.752	24121
843.889	23988
844.025	24190
844.162	23996
844.298	24144
844.435	24015
844.571	23927
844.708	24129
844.844	24174
844.98	24140
845.117	24182
845.253	23988
845.389	23779
845.525	23783
845.661	23794
845.798	23756
845.934	23851
846.07	23733
846.206	23828
846.342	23999
846.478	23668
846.614	23649
846.75	23528
846.886	23444
847.022	23452
847.158	23562
847.294	23551
847.429	23509
847.565	23463
847.701	23684
847.837	23227
847.972	23117
848.108	23341
848.244	23189
848.379	23181
848.515	23128
848.65	23071
848.786	23124
848.921	23105
849.057	23147
849.192	23162
849.328	23056
849.463	23064
849.598	23090
849.734	22972
849.869	22869
850.004	22797
850.14	22809
850.275	22839
850.41	22641
850.545	22759
850.68	22816
850.815	22911
850.95	22744
851.085	23052
851.22	23041
851.355	22831
851.49	22843
851.625	22767
851.76	22839
851.895	22717
852.03	22778
852.165	22801
852.299	22965
852.434	22999
852.569	22843
852.703	22782
852.838	22889
852.973	22987
853.107	22984
853.242	22786
853.376	22641
853.511	22588
853.645	22588
853.78	22805
853.914	22771
854.048	22626
854.183	22637
854.317	22664
854.451	22877
854.585	22603
854.72	22592
854.854	22607
854.988	22767
855.122	22748
855.256	22550
855.39	22641
855.524	22698
855.658	22664
855.792	22710
855.926	22615
856.06	22634
856.194	22706
856.327	22630
856.461	22542
856.595	22512
856.729	22645
856.862	22771
856.996	22675
857.13	22809
857.263	22698
857.397	22706
857.53	22603
857.664	22599
857.797	22706
857.931	22752
858.064	22797
858.197	22736
858.331	22637
858.464	22504
858.597	22550
858.731	22603
858.864	22523
858.997	22615
859.13	22580
859.263	22717
859.396	22740
859.529	22683
859.662	22557
859.795	22542
859.928	22630
860.061	22729
860.194	22778
860.327	22687
860.46	22782
860.592	22763
860.725	22736
860.858	22786
860.99	22603
861.123	22432
861.256	22592
861.388	22596
861.521	23368
861.653	22577
861.786	22436
861.918	22611
862.05	22451
862.183	22607
862.315	22531
862.447	22634
862.58	22561
862.712	22356
862.844	22303
862.976	22402
863.108	22497
863.24	22763
863.372	22246
863.504	22265
863.636	22398
863.768	22379
863.9	22405
864.032	22268
864.164	22272
864.296	22409
864.428	22421
864.559	22405
864.691	22428
864.823	22386
864.954	22367
865.086	22306
865.217	22124
865.349	22131
865.48	22234
865.612	22382
865.743	22348
865.875	22287
866.006	22173
866.137	22185
866.269	22234
866.4	22341
866.531	22234
866.662	22010
866.793	22078
866.924	22249
867.055	22204
867.186	22196
867.317	22143
867.448	22013
867.579	22078
867.71	21968
867.841	22002
867.972	22173
868.103	22211
868.233	22192
868.364	22154
868.495	22196
868.625	22337
868.756	22500
868.886	22303
869.017	22428
869.147	22512
869.278	22538
869.408	22379
869.539	22428
869.669	22474
869.799	22379
869.929	22382
870.06	22455
870.19	22637
870.32	22713
870.45	22744
870.58	22782
870.71	22892
870.84	22904
870.97	22717
871.1	22778
871.23	22980
871.36	22923
871.489	22786
871.619	23037
871.749	23056
871.879	23079
872.008	23140
872.138	23010
872.267	22900
872.397	22889
872.526	22790
872.656	22904
872.785	22793
872.915	22976
873.044	23086
873.173	23018
873.303	22965
873.432	23029
873.561	23140
873.69	22999
873.819	23075
873.948	23105
874.077	23136
874.206	22957
874.335	23060
874.464	23170
874.593	23223
874.722	23269
874.851	23147
874.979	23269
875.108	23189
875.237	23117
875.365	23143
875.494	23170
875.623	23159
875.751	23246
875.88	23277
876.008	23318
876.136	23341
876.265	23585
876.393	23817
876.521	23646
876.65	23634
876.778	23573
876.906	23531
877.034	23566
877.162	23551
877.29	23486
877.418	23600
877.546	23554
877.674	23486
877.802	23611
877.93	23543
878.058	23558
878.185	23364
878.313	23543
878.441	23512
878.568	23349
878.696	23505
878.824	23562
878.951	23657
879.079	23741
879.206	23824
879.333	23764
879.461	23615
879.588	23665
879.715	23707
879.842	23863
879.97	23627
880.097	23516
880.224	23406
880.351	23372
880.478	23379
880.605	23212
880.732	23315
880.859	23703
880.986	23493
881.112	23311
881.239	23178
881.366	23162
881.493	22961
881.619	22812
881.746	23086
881.872	23037
881.999	22790
882.125	22774
882.252	23010
882.378	22854
882.505	23003
882.631	22763
882.757	22645
882.883	22641
883.01	22656
883.136	22516
883.262	22565
883.388	22489
883.514	22607
883.64	22645
883.766	22481
883.892	22375
884.018	22352
884.143	22527
884.269	22649
884.395	22284
884.52	22192
884.646	22257
884.772	22143
884.897	22147
885.023	22063
885.148	22325
885.274	22508
885.399	22204
885.524	22185
885.65	22284
885.775	22238
885.9	22139
886.025	22341
886.15	22386
886.275	22188
886.4	22112
886.525	22234
886.65	22093
886.775	22246
886.9	22341
887.025	22417
887.149	22211
887.274	22082
887.399	22044
887.523	21960
887.648	21888
887.773	21964
887.897	22101
888.021	21979
888.146	21922
888.27	22112
888.395	22078
888.519	21953
888.643	21991
888.767	21945
888.891	21846
889.015	21770
889.139	21785
889.263	21800
889.387	21937
889.511	22055
889.635	21983
889.759	21774
889.883	21755
890.006	21781
890.13	21827
890.254	21728
890.377	21819
890.501	21641
890.624	21420
890.748	21530
890.871	21378
890.995	21386
891.118	21344
891.241	21389
891.364	21321
891.488	21542
891.611	21393
891.734	21291
891.857	21317
891.98	21344
892.103	21321
892.226	21359
892.349	21169
892.471	21249
892.594	21222
892.717	21249
892.839	21096
892.962	21264
893.085	21233
893.207	21226
893.33	21150
893.452	21108
893.575	21203
893.697	21089
893.819	21367
893.941	21348
894.064	21321
894.186	21211
894.308	21062
894.43	21222
894.552	21310
894.674	21294
894.796	21131
894.918	21165
895.04	21180
895.161	21310
895.283	21203
895.405	21176
895.526	21096
895.648	21222
895.769	21112
895.891	21173
896.012	21241
896.134	21127
896.255	21256
896.376	21252
896.498	21226
896.619	21230
896.74	21161
896.861	21268
896.982	21466
897.103	21603
897.224	21424
897.345	21511
897.466	21340
897.587	21291
897.708	21591
897.828	21500
897.949	21351
898.07	21260
898.19	21283
898.311	21431
898.431	21291
898.552	21435
898.672	21477
898.792	21393
898.913	21332
899.033	21264
899.153	21226
899.273	21096
899.393	21184
899.513	21188
899.633	21123
899.753	21272
899.873	21051
899.993	21089
900.113	21199
900.232	21131
900.352	21089
900.472	20899
900.591	20998
900.711	21005
900.83	20819
900.95	21020
901.069	20979
901.189	20648
901.308	20549
901.427	20434
901.546	20476
901.665	20473
901.784	20381
901.904	20259
902.023	20240
902.141	19940
902.26	19993
902.379	19963
902.498	19856
902.617	19841
902.735	20001
902.854	19974
902.973	19845
903.091	19620
903.21	19552
903.328	19628
903.446	19491
903.565	19377
903.683	19327
903.801	19263
903.919	19400
904.038	19377
904.156	19015
904.274	19148
904.392	19126
904.51	19145
904.627	19198
904.745	19225
904.863	19209
904.981	18852
905.098	18886
905.216	18741
905.334	18825
905.451	18863
905.569	18741
905.686	18814
905.803	18795
905.921	18616
906.038	18779
906.155	18551
906.272	18578
906.389	18559
906.506	18422
906.623	18296
906.74	18452
906.857	18258
906.974	18262
907.091	18384
907.208	18456
907.324	18319
907.441	18346
907.557	18098
907.674	18083
907.79	17988
907.907	17988
908.023	18102
908.139	18079
908.256	17950
908.372	17931
908.488	17935
908.604	17878
908.72	17794
908.836	17790
908.952	17790
909.068	17771
909.184	17840
909.3	17695
909.415	17817
909.531	17764
909.647	17528
909.762	17505
909.878	17436
909.993	17520
910.108	17509
910.224	17501
910.339	17372
910.454	17372
910.57	17315
910.685	17170
910.8	17524
910.915	17440
911.03	17136
911.145	17109
911.259	17086
911.374	17056
911.489	17041
911.604	16980
911.718	16793
911.833	16858
911.947	16565
912.062	16713
912.176	16862
912.291	16812
912.405	16824
912.519	16877
912.633	16987
912.748	16774
912.862	16694
912.976	16637
913.09	16558
913.204	16550
913.318	16603
913.431	16755
913.545	16649
913.659	16721
913.772	16443
913.886	16432
914	16379
914.113	16333
914.226	16611
914.34	16402
914.453	16158
914.566	16417
914.68	16360
914.793	16382
914.906	16021
915.019	15949
915.132	15865
915.245	16013
915.358	15876
915.47	15998
915.583	15857
915.696	15998
915.809	16036
915.921	16055
916.034	15838
916.146	15759
916.259	15819
916.371	15953
916.483	15827
916.595	15739
916.708	15743
916.82	15770
916.932	15762
917.044	15660
917.156	15652
917.268	15660
917.38	15644
917.491	15564
917.603	15561
917.715	15652
917.826	15606
917.938	15568
918.049	15435
918.161	15488
918.272	15629
918.384	15644
918.495	15587
918.606	15264
918.717	15264
918.828	15378
918.939	15340
919.05	15112
919.161	15359
919.272	15089
919.383	15093
919.494	15317
919.604	15458
919.715	15230
919.826	15192
919.936	15268
920.047	15294
920.157	15287
920.267	15492
920.378	15336
920.488	15154
920.598	15420
920.708	15549
920.818	15348
920.928	15310
921.038	15572
921.148	15458
921.258	15264
921.368	15112
921.477	15005
921.587	14948
921.697	14891
921.806	15036
921.916	14815
922.025	14655
922.134	14632
922.244	14575
922.353	14530
922.462	14556
922.571	14400
922.68	14275
922.789	14374
922.898	14263
923.007	14195
923.116	14244
923.224	14240
923.333	14252
923.442	14172
923.55	14012
923.659	14183
923.767	14206
923.876	13967
923.984	13974
924.092	13978
924.201	14031
924.309	13906
924.417	13967
924.525	13921
924.633	13963
924.741	14819
924.849	13769
924.956	13906
925.064	13704
925.172	13670
925.279	13674
925.387	13700
925.494	13670
925.602	13719
925.709	13727
925.816	13460
925.924	13552
926.031	13757
926.138	13601
926.245	13590
926.352	13377
926.459	13601
926.566	13613
926.673	13495
926.779	13213
926.886	13377
926.993	13206
927.099	13293
927.206	13061
927.312	13152
927.419	13274
927.525	13069
927.631	13190
927.737	13038
927.843	13015
927.95	12954
928.056	13050
928.162	12954
928.267	13061
928.373	13693
928.479	13031
928.585	12768
928.69	12932
928.796	12928
928.901	12882
929.007	12669
929.112	12878
929.218	12734
929.323	12757
929.428	12635
929.533	12795
929.638	12688
929.743	12650
929.848	12688
929.953	12620
930.058	12536
930.163	12376
930.267	12342
930.372	12585
930.477	12380
930.581	12563
930.685	12281
930.79	12235
930.894	12194
930.998	12289
931.103	12308
931.207	11969
931.311	11851
931.415	11897
931.519	11638
931.623	11596
