Data from test_V78500241_60.txt Node
Date: Fri Mar 25 15:42:13 CST 2022
User: usil
Spectrometer: V785-0024
Trigger mode: 0
Integration Time (sec): 4.000000E-1
Scans to average: 1
Nonlinearity correction enabled: false
Boxcar width: 0
Storing dark spectrum: false
XAxis mode: Wavelengths
Number of Pixels in Spectrum: 1024
>>>>>Begin Spectral Data<<<<<
801.071	29767
801.214	29752
801.356	29330
801.499	29444
801.641	29334
801.783	29235
801.926	29337
802.068	29143
802.211	29121
802.353	29003
802.496	28805
802.638	29048
802.78	28809
802.923	28767
803.065	28706
803.208	28790
803.35	28733
803.492	28991
803.635	29044
803.777	28938
803.919	28976
804.061	29364
804.204	28957
804.346	28976
804.488	28729
804.63	28946
804.773	28824
804.915	29022
805.057	28888
805.199	28938
805.341	29086
805.483	29006
805.626	29109
805.768	28972
805.91	29143
806.052	29056
806.194	28919
806.336	29261
806.478	28995
806.62	29212
806.762	29227
806.904	29292
807.046	29391
807.188	29459
807.33	29322
807.472	29543
807.614	29353
807.756	29368
807.898	29284
808.04	29208
808.182	29212
808.324	29261
808.465	29220
808.607	29379
808.749	29349
808.891	29745
809.033	29684
809.174	29554
809.316	29604
809.458	29699
809.6	29493
809.741	29722
809.883	29608
810.025	29851
810.166	29889
810.308	29862
810.45	29832
810.591	29722
810.733	29687
810.875	29581
811.016	29398
811.158	29459
811.299	29600
811.441	29741
811.582	29783
811.724	29444
811.865	29608
812.007	29372
812.148	29448
812.29	29668
812.431	29657
812.573	29821
812.714	29828
812.855	30060
812.997	29988
813.138	30391
813.279	30057
813.421	30030
813.562	30022
813.703	29764
813.845	29733
813.986	29364
814.127	29147
814.268	29223
814.41	29235
814.551	29242
814.692	29220
814.833	29003
814.974	29071
815.115	29109
815.256	28812
815.397	28923
815.539	28995
815.68	28858
815.821	28790
815.962	28869
816.103	28767
816.244	28744
816.385	28466
816.526	28546
816.666	28287
816.807	28204
816.948	28337
817.089	28341
817.23	28223
817.371	28169
817.512	28257
817.653	28112
817.793	28086
817.934	28181
818.075	28432
818.216	28215
818.356	28101
818.497	27983
818.638	27979
818.778	27846
818.919	27991
819.06	27983
819.2	28086
819.341	28128
819.481	28044
819.622	28238
819.762	28569
819.903	28325
820.043	28367
820.184	28185
820.324	28284
820.465	28265
820.605	28215
820.746	28299
820.886	28017
821.026	28192
821.167	28010
821.307	28169
821.447	28211
821.588	28032
821.728	27884
821.868	27622
822.008	27485
822.149	27492
822.289	27622
822.429	27176
822.569	27233
822.709	27135
822.849	27028
822.99	27055
823.13	26940
823.27	26880
823.41	26777
823.55	26697
823.69	26743
823.83	26788
823.97	26575
824.11	26530
824.25	26442
824.389	26495
824.529	26583
824.669	26461
824.809	26686
824.949	26667
825.089	26674
825.228	26602
825.368	26404
825.508	26393
825.648	26412
825.787	26450
825.927	26263
826.067	26271
826.206	26332
826.346	26393
826.485	26412
826.625	26225
826.765	26549
826.904	26412
827.044	25959
827.183	26103
827.323	25986
827.462	26035
827.601	26012
827.741	25917
827.88	26107
828.02	25879
828.159	25852
828.298	25993
828.437	26043
828.577	25849
828.716	26050
828.855	25951
828.994	25689
829.134	25780
829.273	25674
829.412	25613
829.551	25556
829.69	25655
829.829	25734
829.968	25814
830.107	25700
830.246	25628
830.385	25651
830.524	25449
830.663	25327
830.802	25312
830.941	25228
831.08	25190
831.219	25259
831.357	25335
831.496	25491
831.635	25202
831.774	25168
831.913	24977
832.051	24970
832.19	24935
832.329	24890
832.467	24909
832.606	24753
832.744	24620
832.883	24764
833.022	24688
833.16	24726
833.299	24837
833.437	24890
833.576	24795
833.714	24654
833.852	24856
833.991	25019
834.129	24932
834.267	24943
834.406	24703
834.544	24863
834.682	24798
834.821	24924
834.959	24951
835.097	24646
835.235	24795
835.373	24768
835.511	24848
835.65	24623
835.788	24669
835.926	24464
836.064	24376
836.202	24441
836.34	24612
836.478	24772
836.615	24540
836.753	24669
836.891	24604
837.029	24627
837.167	24479
837.305	24555
837.443	24509
837.58	24471
837.718	24597
837.856	24460
837.993	24395
838.131	24414
838.269	24228
838.406	24304
838.544	24205
838.681	24209
838.819	23908
838.956	23935
839.094	23847
839.231	23897
839.369	24087
839.506	24190
839.643	24003
839.781	23798
839.918	23619
840.055	23764
840.193	23779
840.33	23619
840.467	23779
840.604	23756
840.742	23980
840.879	23630
841.016	23623
841.153	23680
841.29	23745
841.427	23661
841.564	23687
841.701	23657
841.838	23680
841.975	23623
842.112	23531
842.249	23490
842.385	23296
842.522	23570
842.659	23425
842.796	23360
842.933	23391
843.069	23303
843.206	23349
843.343	23379
843.479	23372
843.616	23376
843.752	23140
843.889	23113
844.025	23277
844.162	23105
844.298	23170
844.435	23064
844.571	23003
844.708	23060
844.844	23136
844.98	23143
845.117	23052
845.253	23010
845.389	22961
845.525	22999
845.661	22850
845.798	22858
845.934	22778
846.07	22835
846.206	22801
846.342	22934
846.478	22755
846.614	22615
846.75	22504
846.886	22512
847.022	22637
847.158	22725
847.294	22462
847.429	22451
847.565	22413
847.701	22744
847.837	22173
847.972	22166
848.108	22223
848.244	22230
848.379	22093
848.515	22139
848.65	21979
848.786	22219
848.921	22017
849.057	22093
849.192	22120
849.328	22021
849.463	22032
849.598	22029
849.734	21945
849.869	21857
850.004	21838
850.14	21892
850.275	21797
850.41	21751
850.545	21766
850.68	21747
850.815	21690
850.95	21671
851.085	21994
851.22	21804
851.355	21686
851.49	21808
851.625	21667
851.76	21583
851.895	21705
852.03	21694
852.165	21682
852.299	21709
852.434	21759
852.569	21857
852.703	21675
852.838	21709
852.973	21766
853.107	21755
853.242	21629
853.376	21652
853.511	21530
853.645	21481
853.78	21625
853.914	21469
854.048	21488
854.183	21504
854.317	21580
854.451	21720
854.585	21553
854.72	21488
854.854	21583
854.988	21363
855.122	21473
855.256	21477
855.39	21538
855.524	21439
855.658	21553
855.792	21473
855.926	21561
856.06	21526
856.194	21679
856.327	21591
856.461	21538
856.595	21477
856.729	21397
856.862	21545
856.996	21511
857.13	21416
857.263	21694
857.397	21610
857.53	21591
857.664	21637
857.797	21606
857.931	21542
858.064	21603
858.197	21564
858.331	21466
858.464	21431
858.597	21302
858.731	21572
858.864	21481
858.997	21424
859.13	21481
859.263	21481
859.396	21656
859.529	21416
859.662	21439
859.795	21351
859.928	21386
860.061	21523
860.194	21545
860.327	21435
860.46	21310
860.592	21488
860.725	21504
860.858	21583
860.99	21393
861.123	21393
861.256	21298
861.388	21439
861.521	22135
861.653	21264
861.786	21294
861.918	21306
862.05	21428
862.183	21477
862.315	21530
862.447	21561
862.58	21500
862.712	21005
862.844	21344
862.976	21268
863.108	21192
863.24	21519
863.372	21112
863.504	21154
863.636	21154
863.768	21089
863.9	21051
864.032	21036
864.164	20990
864.296	21070
864.428	21275
864.559	21249
864.691	21211
864.823	21116
864.954	21020
865.086	21074
865.217	21039
865.349	21013
865.48	20979
865.612	21058
865.743	21211
865.875	20937
866.006	20914
866.137	21104
866.269	20967
866.4	21020
866.531	20899
866.662	20979
866.793	20902
866.924	21001
867.055	20910
867.186	20937
867.317	20861
867.448	20880
867.579	20998
867.71	20948
867.841	20880
867.972	20925
868.103	20937
868.233	20929
868.364	20994
868.495	21123
868.625	21184
868.756	21222
868.886	21089
869.017	21096
869.147	21272
869.278	21272
869.408	21135
869.539	21077
869.669	21252
869.799	21214
869.929	21367
870.06	21230
870.19	21431
870.32	21412
870.45	21450
870.58	21561
870.71	21622
870.84	21530
870.97	21576
871.1	21625
871.23	21641
871.36	21705
871.489	21682
871.619	21724
871.749	21553
871.879	21762
872.008	21739
872.138	21568
872.267	21770
872.397	21629
872.526	21663
872.656	21652
872.785	21641
872.915	21732
873.044	21819
873.173	21793
873.303	21846
873.432	21880
873.561	22025
873.69	21816
873.819	21869
873.948	21888
874.077	21774
874.206	21743
874.335	21739
874.464	21953
874.593	21899
874.722	21895
874.851	21960
874.979	22036
875.108	22044
875.237	22051
875.365	21880
875.494	22055
875.623	22086
875.751	21964
875.88	22013
876.008	22101
876.136	22219
876.265	22421
876.393	22421
876.521	22474
876.65	22489
876.778	22360
876.906	22352
877.034	22382
877.162	22424
877.29	22276
877.418	22390
877.546	22314
877.674	22413
877.802	22363
877.93	22322
878.058	22329
878.185	22306
878.313	22268
878.441	22329
878.568	22135
878.696	22306
878.824	22390
878.951	22371
879.079	22455
879.206	22618
879.333	22611
879.461	22375
879.588	22478
879.715	22584
879.842	22611
879.97	22344
880.097	22295
880.224	22204
880.351	22242
880.478	22120
880.605	22131
880.732	22219
880.859	22379
880.986	22185
881.112	22238
881.239	22036
881.366	21884
881.493	21846
881.619	21762
881.746	21816
881.872	21797
881.999	21842
882.125	21789
882.252	21876
882.378	21846
882.505	21979
882.631	21625
882.757	21515
882.883	21675
883.01	21564
883.136	21370
883.262	21355
883.388	21294
883.514	21500
883.64	21610
883.766	21515
883.892	21256
884.018	21393
884.143	21393
884.269	21428
884.395	21214
884.52	21051
884.646	21100
884.772	21043
884.897	21051
885.023	21214
885.148	21260
885.274	21256
885.399	21245
885.524	21051
885.65	21062
885.775	21081
885.9	21138
886.025	21131
886.15	21108
886.275	21013
886.4	20982
886.525	21127
886.65	20990
886.775	20952
886.9	21203
887.025	21287
887.149	21154
887.274	20899
887.399	20925
887.523	20796
887.648	20800
887.773	20762
887.897	20979
888.021	20868
888.146	20739
888.27	21020
888.395	20876
888.519	20918
888.643	20883
888.767	20944
888.891	20788
889.015	20575
889.139	20640
889.263	20583
889.387	20773
889.511	20636
889.635	20648
889.759	20659
889.883	20545
890.006	20606
890.13	20617
890.254	20476
890.377	20480
890.501	20328
890.624	20336
890.748	20374
890.871	20206
890.995	20290
891.118	20145
891.241	20145
891.364	20271
891.488	20362
891.611	20142
891.734	20081
891.857	20366
891.98	20237
892.103	20195
892.226	20180
892.349	20130
892.471	19944
892.594	20001
892.717	20092
892.839	20039
892.962	20157
893.085	20058
893.207	20088
893.33	20084
893.452	20001
893.575	20157
893.697	20035
893.819	20229
893.941	20294
894.064	20180
894.186	20039
894.308	20024
894.43	20199
894.552	20366
894.674	20221
894.796	20065
894.918	20111
895.04	20100
895.161	20058
895.283	20195
895.405	20088
895.526	20103
895.648	20138
895.769	20084
895.891	20202
896.012	20233
896.134	20244
896.255	20138
896.376	20054
896.498	20195
896.619	20153
896.74	20195
896.861	20218
896.982	20442
897.103	20564
897.224	20427
897.345	20396
897.466	20290
897.587	20362
897.708	20457
897.828	20362
897.949	20282
898.07	20229
898.19	20294
898.311	20385
898.431	20298
898.552	20381
898.672	20347
898.792	20298
898.913	20389
899.033	20172
899.153	20077
899.273	19936
899.393	19875
899.513	20088
899.633	20001
899.753	19963
899.873	19967
899.993	20054
900.113	19894
900.232	19833
900.352	19830
900.472	19879
900.591	19799
900.711	19871
900.83	19731
900.95	19967
901.069	19986
901.189	19662
901.308	19445
901.427	19346
901.546	19548
901.665	19422
901.784	19480
901.904	19209
902.023	19206
902.141	18897
902.26	18932
902.379	18886
902.498	18867
902.617	18802
902.735	18954
902.854	18817
902.973	18760
903.091	18578
903.21	18608
903.328	18563
903.446	18506
903.565	18380
903.683	18361
903.801	18289
903.919	18186
904.038	18190
904.156	18167
904.274	18201
904.392	18228
904.51	18106
904.627	18022
904.745	18216
904.863	18289
904.981	17950
905.098	17741
905.216	17790
905.334	17718
905.451	17859
905.569	17684
905.686	17767
905.803	17771
905.921	17638
906.038	17638
906.155	17600
906.272	17360
906.389	17509
906.506	17356
906.623	17277
906.74	17269
906.857	17227
906.974	17250
907.091	17341
907.208	17387
907.324	17368
907.441	17151
907.557	17098
907.674	17022
907.79	16892
907.907	16984
908.023	17064
908.139	17003
908.256	16843
908.372	16828
908.488	16858
908.604	16778
908.72	16748
908.836	16637
908.952	16626
909.068	16687
909.184	16721
909.3	16634
909.415	16656
909.531	16706
909.647	16276
909.762	16284
909.878	16402
909.993	16402
910.108	16291
910.224	16405
910.339	16367
910.454	16310
910.57	16135
910.685	16059
910.8	16360
910.915	16234
911.03	16120
911.145	15922
911.259	15876
911.374	15892
911.489	15850
911.604	15854
911.718	15614
911.833	15789
911.947	15545
912.062	15488
912.176	15622
912.291	15652
912.405	15751
912.519	15720
912.633	15797
912.748	15694
912.862	15610
912.976	15481
913.09	15313
913.204	15393
913.318	15428
913.431	15572
913.545	15473
913.659	15443
913.772	15294
913.886	15336
914	15348
914.113	15412
914.226	15348
914.34	15294
914.453	15119
914.566	15192
914.68	15169
914.793	15077
914.906	14982
915.019	14876
915.132	14785
915.245	14838
915.358	15001
915.47	14876
915.583	14956
915.696	14948
915.809	15100
915.921	14990
916.034	14948
916.146	14830
916.259	14826
916.371	14838
916.483	14906
916.595	14788
916.708	14796
916.82	14800
916.932	14731
917.044	14746
917.156	14602
917.268	14545
917.38	14670
917.491	14514
917.603	14579
917.715	14610
917.826	14640
917.938	14415
918.049	14362
918.161	14552
918.272	14587
918.384	14610
918.495	14541
918.606	14404
918.717	14347
918.828	14446
918.939	14336
919.05	14221
919.161	14221
919.272	14069
919.383	14157
919.494	14400
919.604	14408
919.715	14328
919.826	14123
919.936	14275
920.047	14366
920.157	14244
920.267	14415
920.378	14366
920.488	14157
920.598	14450
920.708	14499
920.818	14347
920.928	14404
921.038	14564
921.148	14465
921.258	14206
921.368	14138
921.477	13989
921.587	13883
921.697	13818
921.806	13997
921.916	13807
922.025	13670
922.134	13696
922.244	13620
922.353	13765
922.462	13499
922.571	13415
922.68	13377
922.789	13255
922.898	13327
923.007	13274
923.116	13346
923.224	13289
923.333	13183
923.442	13114
923.55	13031
923.659	13065
923.767	13171
923.876	13114
923.984	12996
924.092	12977
924.201	13042
924.309	13072
924.417	12993
924.525	12913
924.633	12932
924.741	13978
924.849	12768
924.956	12924
925.064	12722
925.172	12620
925.279	12692
925.387	12688
925.494	12757
925.602	12871
925.709	12779
925.816	12635
925.924	12681
926.031	12749
926.138	12673
926.245	12703
926.352	12662
926.459	12749
926.566	12650
926.673	12639
926.779	12426
926.886	12429
926.993	12380
927.099	12277
927.206	12167
927.312	12247
927.419	12334
927.525	12228
927.631	12175
927.737	12163
927.843	12114
927.95	11969
928.056	12015
928.162	12186
928.267	12136
928.373	12741
928.479	12243
928.585	11889
928.69	12106
928.796	12121
928.901	11950
929.007	11878
929.112	11901
929.218	11893
929.323	11843
929.428	11821
929.533	11863
929.638	11653
929.743	11695
929.848	11783
929.953	11737
930.058	11638
930.163	11482
930.267	11554
930.372	11661
930.477	11395
930.581	11630
930.685	11417
930.79	11410
930.894	11440
930.998	11334
931.103	11474
931.207	11109
931.311	10961
931.415	10942
931.519	10767
931.623	10763
