Data from test_V78500241_3536.txt Node
Date: Fri Mar 25 16:06:17 CST 2022
User: usil
Spectrometer: V785-0024
Trigger mode: 0
Integration Time (sec): 4.000000E-1
Scans to average: 1
Nonlinearity correction enabled: false
Boxcar width: 0
Storing dark spectrum: false
XAxis mode: Wavelengths
Number of Pixels in Spectrum: 1024
>>>>>Begin Spectral Data<<<<<
801.071	28774
801.214	28862
801.356	28702
801.499	28516
801.641	28424
801.783	28531
801.926	28561
802.068	28485
802.211	28447
802.353	28234
802.496	28276
802.638	28101
802.78	28234
802.923	28078
803.065	28090
803.208	28131
803.35	28128
803.492	28447
803.635	28382
803.777	28379
803.919	28459
804.061	28736
804.204	28451
804.346	28310
804.488	28363
804.63	28440
804.773	28265
804.915	28470
805.057	28504
805.199	28379
805.341	28500
805.483	28504
805.626	28440
805.768	28299
805.91	28546
806.052	28546
806.194	28523
806.336	28702
806.478	28542
806.62	28459
806.762	28786
806.904	28919
807.046	29044
807.188	29064
807.33	28927
807.472	29166
807.614	28965
807.756	29044
807.898	28915
808.04	28812
808.182	28809
808.324	28831
808.465	28949
808.607	29071
808.749	29246
808.891	29368
809.033	29440
809.174	29360
809.316	29273
809.458	29265
809.6	29128
809.741	29337
809.883	29459
810.025	29551
810.166	29448
810.308	29562
810.45	29558
810.591	29463
810.733	29509
810.875	29258
811.016	29178
811.158	29159
811.299	29364
811.441	29501
811.582	29463
811.724	29360
811.865	29216
812.007	29421
812.148	29471
812.29	29353
812.431	29474
812.573	29741
812.714	29672
812.855	29805
812.997	29851
813.138	29988
813.279	29939
813.421	29726
813.562	29699
813.703	29589
813.845	29372
813.986	29216
814.127	29098
814.268	29033
814.41	28991
814.551	28847
814.692	29166
814.833	29140
814.974	29071
815.115	29033
815.256	28824
815.397	28869
815.539	28835
815.68	28790
815.821	28763
815.962	28755
816.103	28717
816.244	28535
816.385	28835
816.526	28584
816.666	28382
816.807	28261
816.948	28299
817.089	28421
817.23	28329
817.371	28223
817.512	28253
817.653	28344
817.793	28257
817.934	28337
818.075	28337
818.216	28295
818.356	28226
818.497	28207
818.638	28063
818.778	28128
818.919	28021
819.06	28135
819.2	28242
819.341	28337
819.481	28249
819.622	28489
819.762	28538
819.903	28588
820.043	28531
820.184	28489
820.324	28531
820.465	28637
820.605	28299
820.746	28436
820.886	28284
821.026	28470
821.167	28344
821.307	28527
821.447	28386
821.588	28192
821.728	28112
821.868	27892
822.008	27869
822.149	27880
822.289	27766
822.429	27545
822.569	27576
822.709	27401
822.849	27222
822.99	27397
823.13	27344
823.27	27218
823.41	27104
823.55	26895
823.69	27184
823.83	27161
823.97	27032
824.11	26990
824.25	26823
824.389	26963
824.529	27028
824.669	27001
824.809	26975
824.949	26948
825.089	27226
825.228	26921
825.368	26800
825.508	26819
825.648	26921
825.787	26902
825.927	26861
826.067	26708
826.206	26891
826.346	26940
826.485	26998
826.625	26750
826.765	26796
826.904	26906
827.044	26632
827.183	26644
827.323	26667
827.462	26560
827.601	26644
827.741	26492
827.88	26552
828.02	26473
828.159	26492
828.298	26598
828.437	26571
828.577	26560
828.716	26518
828.855	26374
828.994	26225
829.134	26309
829.273	26324
829.412	26263
829.551	26115
829.69	26320
829.829	26355
829.968	26282
830.107	26358
830.246	26229
830.385	26195
830.524	26119
830.663	26088
830.802	26069
830.941	25830
831.08	25917
831.219	25978
831.357	25799
831.496	25997
831.635	25753
831.774	25651
831.913	25769
832.051	25765
832.19	25525
832.329	25658
832.467	25499
832.606	25479
832.744	25445
832.883	25586
833.022	25472
833.16	25339
833.299	25460
833.437	25499
833.576	25605
833.714	25670
833.852	25670
833.991	25674
834.129	25693
834.267	25715
834.406	25712
834.544	25681
834.682	25738
834.821	25605
834.959	25811
835.097	25453
835.235	25655
835.373	25586
835.511	25544
835.65	25495
835.788	25468
835.926	25327
836.064	25266
836.202	25232
836.34	25449
836.478	25396
836.615	25373
836.753	25502
836.891	25597
837.029	25381
837.167	25343
837.305	25244
837.443	25168
837.58	25259
837.718	25312
837.856	25198
837.993	25114
838.131	25255
838.269	25228
838.406	25137
838.544	25141
838.681	25000
838.819	24970
838.956	24684
839.094	24627
839.231	24734
839.369	24947
839.506	25141
839.643	24840
839.781	24627
839.918	24601
840.055	24722
840.193	24642
840.33	24559
840.467	24749
840.604	24597
840.742	24867
840.879	24380
841.016	24483
841.153	24544
841.29	24722
841.427	24658
841.564	24684
841.701	24593
841.838	24528
841.975	24498
842.112	24422
842.249	24517
842.385	24289
842.522	24551
842.659	24418
842.796	24357
842.933	24422
843.069	24391
843.206	24232
843.343	24486
843.479	24464
843.616	24323
843.752	24190
843.889	24171
844.025	24197
844.162	23988
844.298	24277
844.435	24133
844.571	24121
844.708	24114
844.844	24247
844.98	24114
845.117	24247
845.253	24053
845.389	24057
845.525	24011
845.661	24011
845.798	23821
845.934	23999
846.07	23802
846.206	24015
846.342	24030
846.478	23878
846.614	23726
846.75	23512
846.886	23562
847.022	23684
847.158	23684
847.294	23558
847.429	23649
847.565	23661
847.701	23745
847.837	23311
847.972	23315
848.108	23379
848.244	23368
848.379	23299
848.515	23239
848.65	23216
848.786	23128
848.921	23296
849.057	23288
849.192	23200
849.328	23200
849.463	23181
849.598	23242
849.734	23102
849.869	22995
850.004	22938
850.14	22911
850.275	22923
850.41	22839
850.545	22961
850.68	22942
850.815	22904
850.95	22927
851.085	23109
851.22	23029
851.355	22915
851.49	22915
851.625	22885
851.76	22949
851.895	22877
852.03	22797
852.165	22744
852.299	22927
852.434	22934
852.569	23060
852.703	22812
852.838	22919
852.973	22938
853.107	22850
853.242	22793
853.376	22881
853.511	22740
853.645	22721
853.78	22793
853.914	22786
854.048	22675
854.183	22889
854.317	22759
854.451	22976
854.585	22744
854.72	22778
854.854	22915
854.988	22778
855.122	22820
855.256	22565
855.39	22782
855.524	22759
855.658	22862
855.792	22710
855.926	22862
856.06	22896
856.194	22934
856.327	22809
856.461	22668
856.595	22725
856.729	22744
856.862	22881
856.996	22710
857.13	22672
857.263	22835
857.397	22873
857.53	22713
857.664	22854
857.797	22847
857.931	22934
858.064	22877
858.197	22809
858.331	22660
858.464	22698
858.597	22683
858.731	22771
858.864	22717
858.997	22744
859.13	22710
859.263	22824
859.396	22793
859.529	22618
859.662	22805
859.795	22717
859.928	22668
860.061	22862
860.194	22816
860.327	22793
860.46	22820
860.592	22869
860.725	22786
860.858	22930
860.99	22816
861.123	22603
861.256	22698
861.388	22759
861.521	23372
861.653	22580
861.786	22618
861.918	22569
862.05	22596
862.183	22702
862.315	22755
862.447	22755
862.58	22801
862.712	22466
862.844	22318
862.976	22611
863.108	22527
863.24	22896
863.372	22379
863.504	22459
863.636	22481
863.768	22421
863.9	22398
864.032	22424
864.164	22402
864.296	22508
864.428	22535
864.559	22432
864.691	22527
864.823	22512
864.954	22409
865.086	22348
865.217	22500
865.349	22268
865.48	22451
865.612	22280
865.743	22402
865.875	22322
866.006	22371
866.137	22348
866.269	22398
866.4	22390
866.531	22322
866.662	22280
866.793	22306
866.924	22223
867.055	22371
867.186	22223
867.317	22196
867.448	22253
867.579	22150
867.71	22131
867.841	22299
867.972	22246
868.103	22287
868.233	22287
868.364	22215
868.495	22375
868.625	22588
868.756	22546
868.886	22512
869.017	22436
869.147	22535
869.278	22649
869.408	22485
869.539	22497
869.669	22603
869.799	22592
869.929	22740
870.06	22672
870.19	22763
870.32	22691
870.45	22889
870.58	22835
870.71	23029
870.84	23014
870.97	22889
871.1	22797
871.23	23022
871.36	23060
871.489	23018
871.619	23044
871.749	23041
871.879	23174
872.008	23273
872.138	23128
872.267	23014
872.397	22949
872.526	22831
872.656	22915
872.785	22873
872.915	23132
873.044	23204
873.173	23121
873.303	23121
873.432	23124
873.561	23242
873.69	23132
873.819	22965
873.948	23174
874.077	23132
874.206	23003
874.335	23162
874.464	23239
874.593	23288
874.722	23356
874.851	23368
874.979	23242
875.108	23356
875.237	23326
875.365	23200
875.494	23303
875.623	23364
875.751	23299
875.88	23349
876.008	23398
876.136	23520
876.265	23733
876.393	23855
876.521	23764
876.65	23775
876.778	23661
876.906	23535
877.034	23737
877.162	23722
877.29	23638
877.418	23722
877.546	23726
877.674	23589
877.802	23600
877.93	23589
878.058	23646
878.185	23634
878.313	23642
878.441	23634
878.568	23653
878.696	23703
878.824	23642
878.951	23707
879.079	23901
879.206	24015
879.333	23897
879.461	23805
879.588	23813
879.715	23771
879.842	23980
879.97	23783
880.097	23665
880.224	23474
880.351	23505
880.478	23528
880.605	23406
880.732	23505
880.859	23661
880.986	23501
881.112	23440
881.239	23402
881.366	23166
881.493	23178
881.619	23037
881.746	23113
881.872	22889
881.999	23083
882.125	23075
882.252	23079
882.378	22999
882.505	23079
882.631	22752
882.757	22687
882.883	22881
883.01	22790
883.136	22615
883.262	22622
883.388	22592
883.514	22778
883.64	22694
883.766	22698
883.892	22523
884.018	22546
884.143	22702
884.269	22691
884.395	22322
884.52	22367
884.646	22181
884.772	22226
884.897	22306
885.023	22417
885.148	22565
885.274	22337
885.399	22451
885.524	22413
885.65	22287
885.775	22413
885.9	22280
886.025	22466
886.15	22478
886.275	22375
886.4	22246
886.525	22272
886.65	22356
886.775	22276
886.9	22451
887.025	22565
887.149	22291
887.274	22249
887.399	22036
887.523	22093
887.648	22025
887.773	21949
887.897	22105
888.021	22044
888.146	22063
888.27	22211
888.395	22287
888.519	22169
888.643	22128
888.767	22166
888.891	21964
889.015	21941
889.139	22021
889.263	21854
889.387	22006
889.511	22067
889.635	21964
889.759	21842
889.883	21888
890.006	21926
890.13	21972
890.254	21728
890.377	21804
890.501	21603
890.624	21641
890.748	21633
890.871	21466
890.995	21420
891.118	21355
891.241	21405
891.364	21477
891.488	21545
891.611	21641
891.734	21412
891.857	21587
891.98	21443
892.103	21439
892.226	21481
892.349	21336
892.471	21272
892.594	21256
892.717	21439
892.839	21321
892.962	21237
893.085	21454
893.207	21447
893.33	21161
893.452	21176
893.575	21389
893.697	21230
893.819	21462
893.941	21576
894.064	21416
894.186	21294
894.308	21184
894.43	21428
894.552	21477
894.674	21291
894.796	21146
894.918	21313
895.04	21245
895.161	21348
895.283	21424
895.405	21241
895.526	21310
895.648	21272
895.769	21294
895.891	21340
896.012	21412
896.134	21306
896.255	21260
896.376	21161
896.498	21317
896.619	21211
896.74	21317
896.861	21401
896.982	21648
897.103	21759
897.224	21568
897.345	21545
897.466	21241
897.587	21583
897.708	21583
897.828	21534
897.949	21466
898.07	21367
898.19	21355
898.311	21511
898.431	21496
898.552	21515
898.672	21591
898.792	21424
898.913	21435
899.033	21401
899.153	21252
899.273	21138
899.393	21165
899.513	21093
899.633	21268
899.753	21123
899.873	21214
899.993	21203
900.113	21176
900.232	21237
900.352	21089
900.472	21039
900.591	20921
900.711	20986
900.83	20773
900.95	20979
901.069	21119
901.189	20800
901.308	20670
901.427	20537
901.546	20583
901.665	20476
901.784	20522
901.904	20457
902.023	20317
902.141	20214
902.26	20084
902.379	20126
902.498	20027
902.617	19978
902.735	19986
902.854	20054
902.973	19906
903.091	19677
903.21	19624
903.328	19723
903.446	19616
903.565	19685
903.683	19426
903.801	19411
903.919	19491
904.038	19453
904.156	19263
904.274	19350
904.392	19171
904.51	19209
904.627	19156
904.745	19198
904.863	19259
904.981	19012
905.098	19012
905.216	18913
905.334	18932
905.451	18890
905.569	18890
905.686	18977
905.803	18859
905.921	18661
906.038	18878
906.155	18703
906.272	18544
906.389	18631
906.506	18388
906.623	18467
906.74	18338
906.857	18334
906.974	18361
907.091	18597
907.208	18483
907.324	18467
907.441	18376
907.557	18232
907.674	18258
907.79	18091
907.907	18106
908.023	18213
908.139	18243
908.256	18022
908.372	18034
908.488	18022
908.604	17980
908.72	17821
908.836	17798
908.952	17935
909.068	17878
909.184	17939
909.3	17882
909.415	17866
909.531	17889
909.647	17668
909.762	17535
909.878	17551
909.993	17459
910.108	17512
910.224	17532
910.339	17509
910.454	17452
910.57	17337
910.685	17242
910.8	17619
910.915	17554
911.03	17326
911.145	17200
911.259	17223
911.374	17132
911.489	16995
911.604	17006
911.718	16911
911.833	16987
911.947	16839
912.062	16702
912.176	16797
912.291	16900
912.405	16805
912.519	17060
912.633	17098
912.748	16889
912.862	16896
912.976	16767
913.09	16577
913.204	16641
913.318	16725
913.431	16782
913.545	16717
913.659	16717
913.772	16634
913.886	16508
914	16440
914.113	16504
914.226	16679
914.34	16546
914.453	16360
914.566	16443
914.68	16253
914.793	16246
914.906	16150
915.019	16067
915.132	15937
915.245	16071
915.358	15983
915.47	15949
915.583	16040
915.696	16063
915.809	16074
915.921	16131
916.034	16048
916.146	15987
916.259	16002
916.371	15918
916.483	15987
916.595	15846
916.708	15930
916.82	15861
916.932	15888
917.044	15698
917.156	15816
917.268	15675
917.38	15717
917.491	15591
917.603	15686
917.715	15660
917.826	15694
917.938	15690
918.049	15496
918.161	15606
918.272	15781
918.384	15797
918.495	15530
918.606	15450
918.717	15408
918.828	15408
918.939	15408
919.05	15332
919.161	15374
919.272	15100
919.383	15150
919.494	15424
919.604	15622
919.715	15382
919.826	15336
919.936	15283
920.047	15344
920.157	15298
920.267	15481
920.378	15306
920.488	15348
920.598	15557
920.708	15739
920.818	15466
920.928	15469
921.038	15603
921.148	15603
921.258	15435
921.368	15222
921.477	15199
921.587	15089
921.697	14925
921.806	14979
921.916	14853
922.025	14739
922.134	14804
922.244	14727
922.353	14686
922.462	14552
922.571	14503
922.68	14431
922.789	14385
922.898	14374
923.007	14339
923.116	14377
923.224	14313
923.333	14290
923.442	14233
923.55	14180
923.659	14244
923.767	14240
923.876	14119
923.984	14195
924.092	14065
924.201	14058
924.309	14020
924.417	14115
924.525	13944
924.633	13955
924.741	14929
924.849	13833
924.956	13906
925.064	13780
925.172	13738
925.279	13624
925.387	13742
925.494	13616
925.602	13742
925.709	13731
925.816	13605
925.924	13624
926.031	13655
926.138	13624
926.245	13666
926.352	13445
926.459	13639
926.566	13704
926.673	13525
926.779	13381
926.886	13426
926.993	13274
927.099	13320
927.206	13202
927.312	13152
927.419	13240
927.525	13206
927.631	13202
927.737	13198
927.843	13156
927.95	13057
928.056	13046
928.162	13015
928.267	13107
928.373	13670
928.479	13084
928.585	12886
928.69	12977
928.796	13038
928.901	12947
929.007	12795
929.112	12905
929.218	12749
929.323	12783
929.428	12814
929.533	12821
929.638	12654
929.743	12654
929.848	12696
929.953	12665
930.058	12563
930.163	12422
930.267	12456
930.372	12483
930.477	12513
930.581	12673
930.685	12502
930.79	12285
930.894	12327
930.998	12281
931.103	12372
931.207	11965
931.311	12030
931.415	11882
931.519	11608
931.623	11691
