Data from test_V78500241_4.txt Node
Date: Fri Mar 25 15:41:49 CST 2022
User: usil
Spectrometer: V785-0024
Trigger mode: 0
Integration Time (sec): 4.000000E-1
Scans to average: 1
Nonlinearity correction enabled: false
Boxcar width: 0
Storing dark spectrum: false
XAxis mode: Wavelengths
Number of Pixels in Spectrum: 1024
>>>>>Begin Spectral Data<<<<<
801.071	27116
801.214	27047
801.356	26842
801.499	26788
801.641	26697
801.783	26526
801.926	26632
802.068	26320
802.211	26396
802.353	26343
802.496	26271
802.638	26084
802.78	26088
802.923	25921
803.065	25989
803.208	26035
803.35	26111
803.492	26214
803.635	26161
803.777	26119
803.919	26237
804.061	26412
804.204	26145
804.346	26008
804.488	25860
804.63	26016
804.773	25837
804.915	26001
805.057	26027
805.199	25864
805.341	26027
805.483	26058
805.626	26046
805.768	25811
805.91	26130
806.052	26008
806.194	26096
806.336	26324
806.478	25986
806.62	26008
806.762	26138
806.904	26199
807.046	26465
807.188	26362
807.33	26195
807.472	26533
807.614	26358
807.756	26221
807.898	26176
808.04	26043
808.182	26157
808.324	26240
808.465	26111
808.607	26396
808.749	26343
808.891	26484
809.033	26777
809.174	26556
809.316	26450
809.458	26522
809.6	26389
809.741	26564
809.883	26533
810.025	26735
810.166	26648
810.308	26674
810.45	26473
810.591	26617
810.733	26537
810.875	26415
811.016	26244
811.158	26271
811.299	26389
811.441	26457
811.582	26305
811.724	26427
811.865	26275
812.007	26248
812.148	26328
812.29	26366
812.431	26518
812.573	26667
812.714	26724
812.855	26746
812.997	26823
813.138	27051
813.279	26906
813.421	26861
813.562	26773
813.703	26575
813.845	26431
813.986	26081
814.127	25936
814.268	25864
814.41	25803
814.551	25655
814.692	25902
814.833	25693
814.974	25795
815.115	25830
815.256	25586
815.397	25537
815.539	25681
815.68	25468
815.821	25419
815.962	25506
816.103	25453
816.244	25457
816.385	25244
816.526	25171
816.666	25088
816.807	24882
816.948	25168
817.089	25065
817.23	24966
817.371	24772
817.512	24779
817.653	24700
817.793	24863
817.934	24837
818.075	25000
818.216	24814
818.356	24837
818.497	24673
818.638	24566
818.778	24566
818.919	24479
819.06	24673
819.2	24681
819.341	24722
819.481	24741
819.622	24989
819.762	25061
819.903	24924
820.043	24909
820.184	24779
820.324	24905
820.465	24886
820.605	24863
820.746	24779
820.886	24570
821.026	24859
821.167	24665
821.307	24962
821.447	24749
821.588	24719
821.728	24490
821.868	24437
822.008	24174
822.149	24133
822.289	24174
822.429	23988
822.569	23802
822.709	23805
822.849	23566
822.99	23680
823.13	23577
823.27	23581
823.41	23326
823.55	23372
823.69	23383
823.83	23421
823.97	23296
824.11	23223
824.25	23143
824.389	23117
824.529	23212
824.669	23170
824.809	23330
824.949	23178
825.089	23121
825.228	23242
825.368	23018
825.508	22938
825.648	22900
825.787	23155
825.927	22953
826.067	22831
826.206	22847
826.346	22896
826.485	23010
826.625	22949
826.765	23044
826.904	23060
827.044	22523
827.183	22649
827.323	22599
827.462	22577
827.601	22607
827.741	22432
827.88	22508
828.02	22485
828.159	22462
828.298	22542
828.437	22561
828.577	22478
828.716	22565
828.855	22455
828.994	22261
829.134	22257
829.273	22272
829.412	22211
829.551	22101
829.69	22200
829.829	22249
829.968	22341
830.107	22226
830.246	22306
830.385	22162
830.524	22101
830.663	22078
830.802	21907
830.941	21975
831.08	21766
831.219	21827
831.357	21831
831.496	22078
831.635	21781
831.774	21625
831.913	21553
832.051	21564
832.19	21473
832.329	21523
832.467	21340
832.606	21393
832.744	21386
832.883	21435
833.022	21435
833.16	21348
833.299	21519
833.437	21405
833.576	21412
833.714	21329
833.852	21534
833.991	21458
834.129	21504
834.267	21443
834.406	21416
834.544	21523
834.682	21386
834.821	21298
834.959	21500
835.097	21192
835.235	21374
835.373	21386
835.511	21420
835.65	21211
835.788	21245
835.926	21032
836.064	20971
836.202	20967
836.34	21176
836.478	21382
836.615	21298
836.753	21298
836.891	21218
837.029	21237
837.167	21176
837.305	21195
837.443	21226
837.58	21112
837.718	21089
837.856	21150
837.993	21009
838.131	21100
838.269	21009
838.406	20941
838.544	20899
838.681	20754
838.819	20629
838.956	20503
839.094	20480
839.231	20583
839.369	20682
839.506	20948
839.643	20838
839.781	20541
839.918	20358
840.055	20541
840.193	20461
840.33	20404
840.467	20518
840.604	20511
840.742	20686
840.879	20263
841.016	20358
841.153	20267
841.29	20442
841.427	20431
841.564	20541
841.701	20446
841.838	20412
841.975	20252
842.112	20351
842.249	20180
842.385	20172
842.522	20324
842.659	20191
842.796	20012
842.933	20043
843.069	19928
843.206	20027
843.343	20077
843.479	20134
843.616	20043
843.752	19909
843.889	19799
844.025	19967
844.162	19849
844.298	19947
844.435	19830
844.571	19898
844.708	19883
844.844	20050
844.98	19997
845.117	19906
845.253	19742
845.389	19696
845.525	19685
845.661	19734
845.798	19563
845.934	19533
846.07	19571
846.206	19525
846.342	19689
846.478	19499
846.614	19396
846.75	19278
846.886	19293
847.022	19316
847.158	19331
847.294	19240
847.429	19369
847.565	19251
847.701	19540
847.837	19004
847.972	18894
848.108	19080
848.244	19137
848.379	18810
848.515	18837
848.65	18871
848.786	18859
848.921	18863
849.057	18962
849.192	18890
849.328	18894
849.463	18776
849.598	18814
849.734	18787
849.869	18669
850.004	18684
850.14	18631
850.275	18601
850.41	18486
850.545	18532
850.68	18528
850.815	18582
850.95	18517
851.085	18795
851.22	18631
851.355	18574
851.49	18551
851.625	18509
851.76	18372
851.895	18376
852.03	18437
852.165	18452
852.299	18639
852.434	18646
852.569	18544
852.703	18559
852.838	18498
852.973	18635
853.107	18749
853.242	18448
853.376	18464
853.511	18292
853.645	18410
853.78	18479
853.914	18407
854.048	18395
854.183	18304
854.317	18342
854.451	18467
854.585	18467
854.72	18273
854.854	18353
854.988	18353
855.122	18346
855.256	18311
855.39	18334
855.524	18536
855.658	18369
855.792	18342
855.926	18330
856.06	18388
856.194	18388
856.327	18254
856.461	18300
856.595	18407
856.729	18258
856.862	18452
856.996	18441
857.13	18429
857.263	18448
857.397	18448
857.53	18342
857.664	18372
857.797	18452
857.931	18414
858.064	18346
858.197	18452
858.331	18361
858.464	18410
858.597	18148
858.731	18239
858.864	18285
858.997	18266
859.13	18315
859.263	18258
859.396	18372
859.529	18338
859.662	18308
859.795	18148
859.928	18285
860.061	18452
860.194	18452
860.327	18323
860.46	18201
860.592	18380
860.725	18513
860.858	18475
860.99	18304
861.123	18178
861.256	18182
861.388	18235
861.521	18871
861.653	18159
861.786	18182
861.918	18243
862.05	18273
862.183	18330
862.315	18308
862.447	18433
862.58	18315
862.712	18079
862.844	17939
862.976	18190
863.108	18079
863.24	18426
863.372	18034
863.504	17996
863.636	17977
863.768	18148
863.9	17996
864.032	17836
864.164	17996
864.296	18057
864.428	18049
864.559	18095
864.691	18129
864.823	18083
864.954	18003
865.086	18038
865.217	18011
865.349	17882
865.48	17973
865.612	18041
865.743	18197
865.875	17969
866.006	17866
866.137	17973
866.269	18026
866.4	17931
866.531	17958
866.662	17802
866.793	17984
866.924	17882
867.055	17885
867.186	17878
867.317	17828
867.448	17855
867.579	17802
867.71	17908
867.841	17786
867.972	17920
868.103	17882
868.233	17961
868.364	17840
868.495	18003
868.625	18243
868.756	18254
868.886	18015
869.017	18205
869.147	18098
869.278	18197
869.408	18102
869.539	18205
869.669	18266
869.799	18121
869.929	18323
870.06	18391
870.19	18490
870.32	18448
870.45	18547
870.58	18509
870.71	18604
870.84	18707
870.97	18585
871.1	18506
871.23	18749
871.36	18795
871.489	18776
871.619	18700
871.749	18719
871.879	18795
872.008	18848
872.138	18768
872.267	18829
872.397	18661
872.526	18544
872.656	18532
872.785	18517
872.915	18825
873.044	18817
873.173	18852
873.303	18783
873.432	18810
873.561	18867
873.69	18814
873.819	18821
873.948	18897
874.077	18802
874.206	18620
874.335	18852
874.464	18886
874.593	19031
874.722	19012
874.851	19141
874.979	19164
875.108	19198
875.237	19019
875.365	19012
875.494	19038
875.623	19171
875.751	18962
875.88	19213
876.008	19244
876.136	19217
876.265	19441
876.393	19643
876.521	19616
876.65	19571
876.778	19533
876.906	19502
877.034	19415
877.162	19422
877.29	19426
877.418	19491
877.546	19460
877.674	19476
877.802	19457
877.93	19533
878.058	19369
878.185	19411
878.313	19407
878.441	19415
878.568	19137
878.696	19392
878.824	19468
878.951	19441
879.079	19635
879.206	19757
879.333	19613
879.461	19476
879.588	19696
879.715	19575
879.842	19761
879.97	19449
880.097	19343
880.224	19240
880.351	19312
880.478	19255
880.605	19301
880.732	19278
880.859	19510
880.986	19289
881.112	19335
881.239	19354
881.366	19164
881.493	18909
881.619	18951
881.746	18970
881.872	18882
881.999	18848
882.125	18783
882.252	18977
882.378	18928
882.505	19084
882.631	18920
882.757	18825
882.883	18856
883.01	18650
883.136	18601
883.262	18570
883.388	18627
883.514	18749
883.64	18745
883.766	18597
883.892	18589
884.018	18559
884.143	18650
884.269	18745
884.395	18414
884.52	18353
884.646	18384
884.772	18327
884.897	18353
885.023	18304
885.148	18429
885.274	18559
885.399	18407
885.524	18327
885.65	18330
885.775	18353
885.9	18350
886.025	18460
886.15	18399
886.275	18350
886.4	18262
886.525	18266
886.65	18270
886.775	18258
886.9	18445
887.025	18536
887.149	18308
887.274	18038
887.399	18091
887.523	18136
887.648	18163
887.773	18053
887.897	18273
888.021	18144
888.146	18083
888.27	18186
888.395	18289
888.519	18136
888.643	18114
888.767	18201
888.891	18087
889.015	17996
889.139	17973
889.263	17912
889.387	18003
889.511	18220
889.635	18015
889.759	17923
889.883	17908
890.006	17889
890.13	17961
890.254	17786
890.377	17916
890.501	17687
890.624	17661
890.748	17748
890.871	17592
890.995	17478
891.118	17452
891.241	17566
891.364	17554
891.488	17714
891.611	17577
891.734	17524
891.857	17615
891.98	17661
892.103	17665
892.226	17528
892.349	17417
892.471	17395
892.594	17516
892.717	17551
892.839	17566
892.962	17577
893.085	17558
893.207	17505
893.33	17444
893.452	17444
893.575	17577
893.697	17463
893.819	17699
893.941	17729
894.064	17634
894.186	17482
894.308	17524
894.43	17596
894.552	17726
894.674	17611
894.796	17490
894.918	17543
895.04	17512
895.161	17707
895.283	17615
895.405	17543
895.526	17581
895.648	17585
895.769	17535
895.891	17680
896.012	17722
896.134	17558
896.255	17687
896.376	17646
896.498	17547
896.619	17577
896.74	17668
896.861	17767
896.982	18003
897.103	18182
897.224	18011
897.345	17893
897.466	17813
897.587	17824
897.708	17916
897.828	17779
897.949	17771
898.07	17684
898.19	17748
898.311	17961
898.431	17798
898.552	17832
898.672	17912
898.792	18007
898.913	17809
899.033	17775
899.153	17676
899.273	17524
899.393	17619
899.513	17695
899.633	17642
899.753	17649
899.873	17589
899.993	17661
900.113	17478
900.232	17429
900.352	17558
900.472	17516
900.591	17395
900.711	17554
900.83	17398
900.95	17539
901.069	17596
901.189	17425
901.308	17132
901.427	17037
901.546	17143
901.665	17216
901.784	17132
901.904	16957
902.023	16896
902.141	16584
902.26	16565
902.379	16698
902.498	16561
902.617	16459
902.735	16573
902.854	16565
902.973	16478
903.091	16226
903.21	16238
903.328	16261
903.446	16185
903.565	16090
903.683	16082
903.801	16101
903.919	16116
904.038	15964
904.156	15972
904.274	15926
904.392	15797
904.51	15918
904.627	15892
904.745	15953
904.863	15934
904.981	15660
905.098	15496
905.216	15587
905.334	15641
905.451	15652
905.569	15534
905.686	15557
905.803	15564
905.921	15241
906.038	15500
906.155	15325
906.272	15313
906.389	15199
906.506	15150
906.623	15218
906.74	15024
906.857	14937
906.974	15036
907.091	15142
907.208	15275
907.324	15081
907.441	14902
907.557	14872
907.674	14777
907.79	14686
907.907	14731
908.023	14777
908.139	14899
908.256	14670
908.372	14724
908.488	14682
908.604	14556
908.72	14454
908.836	14552
908.952	14355
909.068	14499
909.184	14564
909.3	14450
909.415	14564
909.531	14370
909.647	14336
909.762	14202
909.878	14107
909.993	14164
910.108	14187
910.224	14096
910.339	14145
910.454	14123
910.57	14050
910.685	13955
910.8	14301
910.915	14187
911.03	13955
911.145	13795
911.259	13753
911.374	13788
911.489	13712
911.604	13791
911.718	13590
911.833	13578
911.947	13502
912.062	13502
912.176	13628
912.291	13643
912.405	13632
912.519	13757
912.633	13772
912.748	13620
912.862	13571
912.976	13419
913.09	13293
913.204	13346
913.318	13460
913.431	13445
913.545	13510
913.659	13540
913.772	13464
913.886	13247
914	13202
914.113	13301
914.226	13392
914.34	13438
914.453	13095
914.566	13362
914.68	13175
914.793	13141
914.906	13031
915.019	12989
915.132	12768
915.245	12852
915.358	12871
915.47	12996
915.583	12901
915.696	12905
915.809	13069
915.921	13004
916.034	12856
916.146	12791
916.259	12817
916.371	13019
916.483	12875
916.595	12791
916.708	12783
916.82	12863
916.932	12901
917.044	12798
917.156	12741
917.268	12608
917.38	12722
917.491	12631
917.603	12604
917.715	12753
917.826	12776
917.938	12639
918.049	12369
918.161	12612
918.272	12779
918.384	12711
918.495	12578
918.606	12433
918.717	12380
918.828	12448
918.939	12525
919.05	12372
919.161	12460
919.272	12201
919.383	12285
919.494	12528
919.604	12654
919.715	12467
919.826	12422
919.936	12407
920.047	12506
920.157	12433
920.267	12604
920.378	12369
920.488	12399
920.598	12551
920.708	12776
920.818	12578
920.928	12627
921.038	12791
921.148	12764
921.258	12304
921.368	12281
921.477	12216
921.587	12148
921.697	12049
921.806	12258
921.916	12144
922.025	11889
922.134	11859
922.244	11893
922.353	11855
922.462	11779
922.571	11680
922.68	11512
922.789	11535
922.898	11539
923.007	11505
923.116	11596
923.224	11539
923.333	11425
923.442	11334
923.55	11414
923.659	11307
923.767	11364
923.876	11379
923.984	11429
924.092	11261
924.201	11318
924.309	11345
924.417	11303
924.525	11303
924.633	11242
924.741	12213
924.849	11071
924.956	11174
925.064	11075
925.172	11010
925.279	11052
925.387	11071
925.494	11052
925.602	11181
925.709	11025
925.816	10980
925.924	10995
926.031	11151
926.138	11022
926.245	11052
926.352	10847
926.459	11041
926.566	11132
926.673	10915
926.779	10816
926.886	10889
926.993	10702
927.099	10653
927.206	10607
927.312	10691
927.419	10721
927.525	10694
927.631	10721
927.737	10637
927.843	10554
927.95	10516
928.056	10512
928.162	10523
928.267	10588
928.373	11292
928.479	10694
928.585	10341
928.69	10531
928.796	10584
928.901	10436
929.007	10287
929.112	10466
929.218	10398
929.323	10352
929.428	10295
929.533	10489
929.638	10291
929.743	10272
929.848	10352
929.953	10314
930.058	10158
930.163	10059
930.267	10074
930.372	10211
930.477	10013
930.581	10276
930.685	10116
930.79	9915
930.894	9972
930.998	9869
931.103	10040
931.207	9759
931.311	9633
931.415	9572
931.519	9481
931.623	9367
