Data from test_V78500241_1900.txt Node
Date: Fri Mar 25 15:54:57 CST 2022
User: usil
Spectrometer: V785-0024
Trigger mode: 0
Integration Time (sec): 4.000000E-1
Scans to average: 1
Nonlinearity correction enabled: false
Boxcar width: 0
Storing dark spectrum: false
XAxis mode: Wavelengths
Number of Pixels in Spectrum: 1024
>>>>>Begin Spectral Data<<<<<
801.071	28078
801.214	28154
801.356	27888
801.499	27812
801.641	27698
801.783	27698
801.926	27781
802.068	27819
802.211	27705
802.353	27698
802.496	27473
802.638	27431
802.78	27359
802.923	27332
803.065	27298
803.208	27473
803.35	27504
803.492	27587
803.635	27557
803.777	27401
803.919	27599
804.061	27994
804.204	27713
804.346	27629
804.488	27660
804.63	27717
804.773	27492
804.915	27625
805.057	27747
805.199	27610
805.341	27766
805.483	27808
805.626	27819
805.768	27724
805.91	27728
806.052	27835
806.194	27660
806.336	27911
806.478	27728
806.62	27618
806.762	27892
806.904	28101
807.046	28291
807.188	28261
807.33	28139
807.472	28360
807.614	28120
807.756	28093
807.898	28150
808.04	28010
808.182	28055
808.324	28078
808.465	28204
808.607	28261
808.749	28550
808.891	28519
809.033	28497
809.174	28485
809.316	28489
809.458	28459
809.6	28432
809.741	28432
809.883	28557
810.025	28656
810.166	28790
810.308	28698
810.45	28774
810.591	28729
810.733	28409
810.875	28584
811.016	28382
811.158	28310
811.299	28588
811.441	28577
811.582	28481
811.724	28443
811.865	28390
812.007	28272
812.148	28398
812.29	28508
812.431	28516
812.573	28816
812.714	28820
812.855	28919
812.997	28965
813.138	29090
813.279	29105
813.421	28968
813.562	29010
813.703	28816
813.845	28717
813.986	28379
814.127	28169
814.268	27949
814.41	28135
814.551	28211
814.692	28147
814.833	28025
814.974	28090
815.115	28223
815.256	27960
815.397	28025
815.539	28067
815.68	27953
815.821	27972
815.962	27911
816.103	28044
816.244	27705
816.385	27759
816.526	27865
816.666	27663
816.807	27424
816.948	27637
817.089	27568
817.23	27462
817.371	27454
817.512	27507
817.653	27389
817.793	27313
817.934	27408
818.075	27447
818.216	27431
818.356	27230
818.497	27161
818.638	27146
818.778	27108
818.919	27161
819.06	27287
819.2	27291
819.341	27378
819.481	27317
819.622	27606
819.762	27728
819.903	27732
820.043	27507
820.184	27492
820.324	27564
820.465	27606
820.605	27515
820.746	27504
820.886	27492
821.026	27412
821.167	27393
821.307	27561
821.447	27496
821.588	27427
821.728	27161
821.868	27116
822.008	27020
822.149	26788
822.289	26895
822.429	26670
822.569	26606
822.709	26617
822.849	26294
822.99	26374
823.13	26271
823.27	26351
823.41	26252
823.55	26065
823.69	26107
823.83	26202
823.97	26092
824.11	25906
824.25	26020
824.389	26084
824.529	26142
824.669	26092
824.809	26142
824.949	26221
825.089	26168
825.228	26084
825.368	25894
825.508	25909
825.648	25982
825.787	25887
825.927	25940
826.067	26020
826.206	25898
826.346	25868
826.485	25944
826.625	25951
826.765	25925
826.904	25955
827.044	25769
827.183	25719
827.323	25594
827.462	25616
827.601	25605
827.741	25700
827.88	25780
828.02	25537
828.159	25521
828.298	25734
828.437	25731
828.577	25662
828.716	25674
828.855	25635
828.994	25396
829.134	25339
829.273	25297
829.412	25274
829.551	25304
829.69	25301
829.829	25365
829.968	25316
830.107	25559
830.246	25327
830.385	25297
830.524	25221
830.663	25202
830.802	25050
830.941	24783
831.08	24871
831.219	24897
831.357	24935
831.496	25141
831.635	25023
831.774	24829
831.913	24692
832.051	24760
832.19	24783
832.329	24544
832.467	24745
832.606	24471
832.744	24540
832.883	24456
833.022	24563
833.16	24608
833.299	24692
833.437	24616
833.576	24681
833.714	24627
833.852	24642
833.991	24665
834.129	24661
834.267	24692
834.406	24745
834.544	24688
834.682	24585
834.821	24532
834.959	24772
835.097	24486
835.235	24604
835.373	24715
835.511	24597
835.65	24597
835.788	24330
835.926	24429
836.064	24399
836.202	24262
836.34	24490
836.478	24521
836.615	24365
836.753	24490
836.891	24490
837.029	24437
837.167	24467
837.305	24395
837.443	24372
837.58	24350
837.718	24399
837.856	24182
837.993	24254
838.131	24266
838.269	24186
838.406	24224
838.544	24060
838.681	23950
838.819	23885
838.956	23805
839.094	23832
839.231	23832
839.369	23958
839.506	24213
839.643	24144
839.781	23783
839.918	23748
840.055	23646
840.193	23714
840.33	23684
840.467	23672
840.604	23703
840.742	23965
840.879	23493
841.016	23524
841.153	23558
841.29	23691
841.427	23661
841.564	23680
841.701	23642
841.838	23589
841.975	23638
842.112	23562
842.249	23482
842.385	23531
842.522	23608
842.659	23493
842.796	23417
842.933	23433
843.069	23322
843.206	23334
843.343	23535
843.479	23436
843.616	23402
843.752	23273
843.889	23155
844.025	23516
844.162	23124
844.298	23330
844.435	23178
844.571	23155
844.708	23265
844.844	23364
844.98	23265
845.117	23261
845.253	23128
845.389	23094
845.525	23181
845.661	23098
845.798	22904
845.934	23060
846.07	22847
846.206	23052
846.342	22995
846.478	22942
846.614	22713
846.75	22679
846.886	22763
847.022	22645
847.158	22596
847.294	22691
847.429	22599
847.565	22599
847.701	22957
847.837	22451
847.972	22318
848.108	22489
848.244	22436
848.379	22417
848.515	22295
848.65	22268
848.786	22265
848.921	22295
849.057	22424
849.192	22356
849.328	22333
849.463	22200
849.598	22204
849.734	22169
849.869	21945
850.004	22025
850.14	22040
850.275	22002
850.41	21926
850.545	21991
850.68	21964
850.815	22002
850.95	22032
851.085	22162
851.22	22105
851.355	22013
851.49	22032
851.625	21994
851.76	22097
851.895	22078
852.03	21907
852.165	22059
852.299	22017
852.434	22112
852.569	21956
852.703	22040
852.838	22036
852.973	22078
853.107	22032
853.242	21975
853.376	21907
853.511	21884
853.645	21709
853.78	21899
853.914	21850
854.048	21865
854.183	21819
854.317	21926
854.451	22143
854.585	21880
854.72	21941
854.854	21892
854.988	21759
855.122	21857
855.256	21747
855.39	21895
855.524	21937
855.658	21762
855.792	21960
855.926	21816
856.06	21987
856.194	22059
856.327	21854
856.461	21698
856.595	21766
856.729	21835
856.862	21838
856.996	21926
857.13	21888
857.263	21884
857.397	21994
857.53	21747
857.664	22006
857.797	21907
857.931	21895
858.064	21835
858.197	21979
858.331	21827
858.464	21739
858.597	21641
858.731	21831
858.864	21884
858.997	21770
859.13	21850
859.263	21972
859.396	21880
859.529	21789
859.662	21694
859.795	21819
859.928	21827
860.061	21979
860.194	22032
860.327	21888
860.46	21895
860.592	22059
860.725	22017
860.858	22067
860.99	21842
861.123	21762
861.256	21766
861.388	21816
861.521	22683
861.653	21709
861.786	21625
861.918	21724
862.05	21713
862.183	21819
862.315	21785
862.447	21736
862.58	21728
862.712	21667
862.844	21625
862.976	21595
863.108	21545
863.24	22063
863.372	21583
863.504	21576
863.636	21549
863.768	21545
863.9	21523
864.032	21477
864.164	21583
864.296	21523
864.428	21720
864.559	21637
864.691	21629
864.823	21545
864.954	21545
865.086	21469
865.217	21431
865.349	21420
865.48	21325
865.612	21477
865.743	21507
865.875	21564
866.006	21374
866.137	21481
866.269	21397
866.4	21325
866.531	21386
866.662	21332
866.793	21275
866.924	21382
867.055	21492
867.186	21287
867.317	21344
867.448	21454
867.579	21488
867.71	21249
867.841	21294
867.972	21401
868.103	21416
868.233	21450
868.364	21386
868.495	21492
868.625	21530
868.756	21686
868.886	21534
869.017	21538
869.147	21823
869.278	21698
869.408	21633
869.539	21701
869.669	21781
869.799	21724
869.929	21770
870.06	21751
870.19	21774
870.32	21964
870.45	21854
870.58	21998
870.71	22112
870.84	22166
870.97	22070
871.1	22048
871.23	22223
871.36	22150
871.489	22124
871.619	22204
871.749	22181
871.879	22295
872.008	22394
872.138	22295
872.267	22238
872.397	22219
872.526	22082
872.656	22135
872.785	22048
872.915	22196
873.044	22363
873.173	22234
873.303	22154
873.432	22261
873.561	22295
873.69	22173
873.819	22116
873.948	22265
874.077	22249
874.206	22265
874.335	22162
874.464	22405
874.593	22516
874.722	22440
874.851	22500
874.979	22569
875.108	22489
875.237	22405
875.365	22421
875.494	22409
875.623	22519
875.751	22363
875.88	22531
876.008	22447
876.136	22824
876.265	22816
876.393	23083
876.521	22999
876.65	22866
876.778	22877
876.906	22653
877.034	22755
877.162	22767
877.29	22767
877.418	22896
877.546	22862
877.674	22809
877.802	22782
877.93	22820
878.058	22725
878.185	22622
878.313	22790
878.441	22774
878.568	22736
878.696	22828
878.824	22987
878.951	22908
879.079	22980
879.206	23086
879.333	22980
879.461	22854
879.588	22862
879.715	22987
879.842	23151
879.97	22923
880.097	22713
880.224	22672
880.351	22812
880.478	22721
880.605	22573
880.732	22580
880.859	22828
880.986	22577
881.112	22679
881.239	22500
881.366	22421
881.493	22318
881.619	22120
881.746	22333
881.872	22363
881.999	22177
882.125	22112
882.252	22211
882.378	22192
882.505	22272
882.631	22021
882.757	22010
882.883	22025
883.01	21903
883.136	21793
883.262	21831
883.388	21732
883.514	21922
883.64	21930
883.766	21865
883.892	21724
884.018	21709
884.143	21930
884.269	22006
884.395	21690
884.52	21523
884.646	21545
884.772	21450
884.897	21500
885.023	21603
885.148	21553
885.274	21618
885.399	21637
885.524	21576
885.65	21694
885.775	21713
885.9	21458
886.025	21656
886.15	21523
886.275	21481
886.4	21310
886.525	21458
886.65	21515
886.775	21515
886.9	21660
887.025	21698
887.149	21458
887.274	21382
887.399	21302
887.523	21317
887.648	21279
887.773	21256
887.897	21367
888.021	21435
888.146	21268
888.27	21393
888.395	21351
888.519	21252
888.643	21363
888.767	21351
888.891	21180
889.015	21283
889.139	21161
889.263	21081
889.387	21233
889.511	21401
889.635	21142
889.759	20975
889.883	21100
890.006	21184
890.13	21325
890.254	21013
890.377	21013
890.501	20887
890.624	20720
890.748	20944
890.871	20682
890.995	20598
891.118	20705
891.241	20678
891.364	20727
891.488	20868
891.611	20663
891.734	20564
891.857	20773
891.98	20716
892.103	20697
892.226	20632
892.349	20644
892.471	20511
892.594	20568
892.717	20686
892.839	20590
892.962	20636
893.085	20655
893.207	20495
893.33	20503
893.452	20537
893.575	20533
893.697	20495
893.819	20686
893.941	20731
894.064	20648
894.186	20484
894.308	20473
894.43	20655
894.552	20724
894.674	20648
894.796	20488
894.918	20522
895.04	20480
895.161	20609
895.283	20598
895.405	20396
895.526	20606
895.648	20644
895.769	20651
895.891	20609
896.012	20609
896.134	20746
896.255	20503
896.376	20560
896.498	20640
896.619	20587
896.74	20545
896.861	20575
896.982	20845
897.103	21089
897.224	20830
897.345	20689
897.466	20648
897.587	20743
897.708	20838
897.828	20758
897.949	20667
898.07	20655
898.19	20746
898.311	20773
898.431	20743
898.552	20682
898.672	20781
898.792	21001
898.913	20811
899.033	20724
899.153	20613
899.273	20537
899.393	20495
899.513	20526
899.633	20545
899.753	20476
899.873	20507
899.993	20377
900.113	20301
900.232	20526
900.352	20355
900.472	20362
900.591	20282
900.711	20240
900.83	20244
900.95	20393
901.069	20381
901.189	20259
901.308	19921
901.427	19909
901.546	19868
901.665	19909
901.784	19795
901.904	19696
902.023	19662
902.141	19396
902.26	19434
902.379	19491
902.498	19270
902.617	19278
902.735	19373
902.854	19244
902.973	19236
903.091	19091
903.21	19008
903.328	19069
903.446	19012
903.565	18897
903.683	18787
903.801	18722
903.919	18776
904.038	18810
904.156	18589
904.274	18669
904.392	18574
904.51	18490
904.627	18517
904.745	18593
904.863	18677
904.981	18350
905.098	18395
905.216	18197
905.334	18388
905.451	18251
905.569	18216
905.686	18327
905.803	18300
905.921	18194
906.038	18136
906.155	18117
906.272	17946
906.389	17958
906.506	17691
906.623	17805
906.74	17775
906.857	17676
906.974	17707
907.091	17931
907.208	17954
907.324	17798
907.441	17619
907.557	17562
907.674	17474
907.79	17478
907.907	17524
908.023	17501
908.139	17474
908.256	17421
908.372	17406
908.488	17391
908.604	17341
908.72	17311
908.836	17235
908.952	17178
909.068	17303
909.184	17360
909.3	17231
909.415	17292
909.531	17341
909.647	16965
909.762	17025
909.878	16790
909.993	16972
910.108	16866
910.224	16904
910.339	16915
910.454	16843
910.57	16820
910.685	16725
910.8	16957
910.915	16900
911.03	16706
911.145	16558
911.259	16550
911.374	16592
911.489	16512
911.604	16375
911.718	16303
911.833	16257
911.947	16200
912.062	16166
912.176	16257
912.291	16284
912.405	16135
912.519	16493
912.633	16459
912.748	16379
912.862	16287
912.976	16093
913.09	15873
913.204	16029
913.318	16059
913.431	16135
913.545	16150
913.659	16078
913.772	16093
913.886	15926
914	15778
914.113	16002
914.226	15960
914.34	15861
914.453	15789
914.566	16025
914.68	15781
914.793	15739
914.906	15584
915.019	15428
915.132	15401
915.245	15416
915.358	15485
915.47	15462
915.583	15393
915.696	15469
915.809	15595
915.921	15625
916.034	15428
916.146	15351
916.259	15329
916.371	15420
916.483	15431
916.595	15222
916.708	15203
916.82	15348
916.932	15294
917.044	15306
917.156	15222
917.268	15180
917.38	15104
917.491	14975
917.603	15108
917.715	15077
917.826	15154
917.938	15112
918.049	14918
918.161	15024
918.272	15154
918.384	15260
918.495	15058
918.606	14834
918.717	14762
918.828	14883
918.939	14876
919.05	14845
919.161	14868
919.272	14590
919.383	14632
919.494	14906
919.604	15043
919.715	14785
919.826	14750
919.936	14735
920.047	14929
920.157	14781
920.267	14994
920.378	14792
920.488	14712
920.598	14891
920.708	15142
920.818	14902
920.928	14925
921.038	15081
921.148	15039
921.258	14811
921.368	14587
921.477	14552
921.587	14514
921.697	14404
921.806	14549
921.916	14377
922.025	14210
922.134	14164
922.244	14054
922.353	14199
922.462	14100
922.571	13997
922.68	13807
922.789	13875
922.898	13967
923.007	13738
923.116	13803
923.224	13898
923.333	13799
923.442	13719
923.55	13681
923.659	13712
923.767	13643
923.876	13590
923.984	13662
924.092	13563
924.201	13510
924.309	13502
924.417	13533
924.525	13483
924.633	13495
924.741	14259
924.849	13301
924.956	13426
925.064	13285
925.172	13145
925.279	13110
925.387	13259
925.494	13255
925.602	13320
925.709	13297
925.816	13126
925.924	13122
926.031	13301
926.138	13091
926.245	13270
926.352	12977
926.459	13152
926.566	13251
926.673	13061
926.779	13015
926.886	12905
926.993	12833
927.099	12848
927.206	12719
927.312	12726
927.419	12825
927.525	12741
927.631	12848
927.737	12707
927.843	12639
927.95	12456
928.056	12684
928.162	12654
928.267	12631
928.373	13320
928.479	12707
928.585	12486
928.69	12502
928.796	12582
928.901	12525
929.007	12220
929.112	12475
929.218	12433
929.323	12376
929.428	12277
929.533	12441
929.638	12266
929.743	12273
929.848	12220
929.953	12285
930.058	12133
930.163	11969
930.267	12038
930.372	12102
930.477	12057
930.581	12201
930.685	12057
930.79	11840
930.894	11882
930.998	11851
931.103	11958
931.207	11627
931.311	11474
931.415	11459
931.519	11318
931.623	11231
