Data from test_V78500241_1069.txt Node
Date: Fri Mar 25 15:49:12 CST 2022
User: usil
Spectrometer: V785-0024
Trigger mode: 0
Integration Time (sec): 4.000000E-1
Scans to average: 1
Nonlinearity correction enabled: false
Boxcar width: 0
Storing dark spectrum: false
XAxis mode: Wavelengths
Number of Pixels in Spectrum: 1024
>>>>>Begin Spectral Data<<<<<
801.071	28698
801.214	28584
801.356	28284
801.499	28322
801.641	28086
801.783	28162
801.926	28265
802.068	28128
802.211	28166
802.353	28097
802.496	28017
802.638	27975
802.78	27914
802.923	27747
803.065	27804
803.208	27953
803.35	27854
803.492	27899
803.635	28093
803.777	27918
803.919	28185
804.061	28424
804.204	28230
804.346	28166
804.488	27895
804.63	28192
804.773	28185
804.915	28185
805.057	28215
805.199	28090
805.341	28166
805.483	28287
805.626	28344
805.768	28261
805.91	28306
806.052	28325
806.194	28318
806.336	28493
806.478	28318
806.62	28238
806.762	28401
806.904	28554
807.046	28733
807.188	28713
807.33	28691
807.472	28793
807.614	28694
807.756	28752
807.898	28557
808.04	28577
808.182	28394
808.324	28645
808.465	28672
808.607	28999
808.749	28965
808.891	29041
809.033	29079
809.174	29018
809.316	28942
809.458	28900
809.6	28927
809.741	29086
809.883	29022
810.025	29254
810.166	29307
810.308	29231
810.45	29124
810.591	29204
810.733	29132
810.875	28991
811.016	29083
811.158	28911
811.299	29090
811.441	29246
811.582	29193
811.724	28923
811.865	28995
812.007	29071
812.148	29022
812.29	29048
812.431	29269
812.573	29341
812.714	29471
812.855	29452
812.997	29600
813.138	29600
813.279	29585
813.421	29596
813.562	29710
813.703	29375
813.845	29166
813.986	28946
814.127	28915
814.268	28649
814.41	28839
814.551	28733
814.692	28767
814.833	28706
814.974	28691
815.115	28778
815.256	28668
815.397	28599
815.539	28679
815.68	28428
815.821	28360
815.962	28527
816.103	28504
816.244	28401
816.385	28367
816.526	28344
816.666	28017
816.807	28017
816.948	28207
817.089	28124
817.23	28101
817.371	28116
817.512	28055
817.653	28021
817.793	27873
817.934	28044
818.075	28040
818.216	28040
818.356	27953
818.497	27835
818.638	27610
818.778	27717
818.919	27778
819.06	27823
819.2	27975
819.341	28048
819.481	27899
819.622	28070
819.762	28417
819.903	28265
820.043	28337
820.184	28120
820.324	28112
820.465	28207
820.605	28116
820.746	28120
820.886	28074
821.026	28196
821.167	28105
821.307	28207
821.447	28139
821.588	27975
821.728	27854
821.868	27728
822.008	27576
822.149	27572
822.289	27633
822.429	27135
822.569	27169
822.709	27150
822.849	27135
822.99	26998
823.13	27009
823.27	27081
823.41	26883
823.55	26724
823.69	26899
823.83	26849
823.97	26853
824.11	26575
824.25	26697
824.389	26659
824.529	26819
824.669	26583
824.809	26864
824.949	26864
825.089	26861
825.228	26705
825.368	26552
825.508	26602
825.648	26659
825.787	26587
825.927	26674
826.067	26522
826.206	26651
826.346	26651
826.485	26575
826.625	26644
826.765	26674
826.904	26598
827.044	26358
827.183	26278
827.323	26294
827.462	26248
827.601	26294
827.741	26259
827.88	26122
828.02	26111
828.159	26415
828.298	26374
828.437	26298
828.577	26221
828.716	26389
828.855	26024
828.994	25932
829.134	25898
829.273	26065
829.412	25879
829.551	25925
829.69	25978
829.829	26054
829.968	26058
830.107	26046
830.246	25906
830.385	25951
830.524	25814
830.663	25837
830.802	25670
830.941	25464
831.08	25677
831.219	25605
831.357	25712
831.496	25837
831.635	25453
831.774	25597
831.913	25457
832.051	25407
832.19	25396
832.329	25403
832.467	25324
832.606	25263
832.744	25209
832.883	25327
833.022	25232
833.16	25137
833.299	25327
833.437	25289
833.576	25244
833.714	25289
833.852	25343
833.991	25403
834.129	25392
834.267	25430
834.406	25320
834.544	25278
834.682	25460
834.821	25343
834.959	25441
835.097	25145
835.235	25270
835.373	25289
835.511	25228
835.65	25110
835.788	25194
835.926	25034
836.064	24992
836.202	24924
836.34	25080
836.478	25126
836.615	25080
836.753	25133
836.891	25225
837.029	25065
837.167	24970
837.305	24966
837.443	25038
837.58	25080
837.718	25019
837.856	24962
837.993	24985
838.131	24920
838.269	24806
838.406	24798
838.544	24783
838.681	24696
838.819	24578
838.956	24517
839.094	24327
839.231	24372
839.369	24585
839.506	24787
839.643	24768
839.781	24388
839.918	24418
840.055	24346
840.193	24418
840.33	24311
840.467	24486
840.604	24441
840.742	24490
840.879	24182
841.016	24220
841.153	24148
841.29	24330
841.427	24289
841.564	24426
841.701	24319
841.838	24167
841.975	24247
842.112	24296
842.249	24258
842.385	24083
842.522	24315
842.659	24057
842.796	24030
842.933	24011
843.069	24041
843.206	23965
843.343	24095
843.479	24136
843.616	24174
843.752	23908
843.889	23901
844.025	23961
844.162	23786
844.298	24148
844.435	23950
844.571	23843
844.708	23775
844.844	24087
844.98	23916
845.117	23965
845.253	23897
845.389	23767
845.525	23748
845.661	23767
845.798	23535
845.934	23676
846.07	23570
846.206	23672
846.342	23733
846.478	23649
846.614	23341
846.75	23254
846.886	23193
847.022	23349
847.158	23406
847.294	23280
847.429	23459
847.565	23254
847.701	23570
847.837	22995
847.972	23094
848.108	23060
848.244	23056
848.379	22987
848.515	22885
848.65	22896
848.786	22847
848.921	22968
849.057	22949
849.192	22991
849.328	22915
849.463	22725
849.598	22858
849.734	22877
849.869	22721
850.004	22649
850.14	22736
850.275	22622
850.41	22637
850.545	22535
850.68	22599
850.815	22759
850.95	22596
851.085	22869
851.22	22763
851.355	22637
851.49	22599
851.625	22622
851.76	22588
851.895	22664
852.03	22599
852.165	22713
852.299	22588
852.434	22691
852.569	22626
852.703	22550
852.838	22763
852.973	22752
853.107	22774
853.242	22565
853.376	22352
853.511	22185
853.645	22497
853.78	22538
853.914	22542
854.048	22440
854.183	22394
854.317	22508
854.451	22607
854.585	22379
854.72	22508
854.854	22535
854.988	22462
855.122	22580
855.256	22318
855.39	22523
855.524	22519
855.658	22481
855.792	22447
855.926	22462
856.06	22421
856.194	22557
856.327	22508
856.461	22352
856.595	22379
856.729	22561
856.862	22607
856.996	22440
857.13	22645
857.263	22565
857.397	22615
857.53	22542
857.664	22478
857.797	22459
857.931	22580
858.064	22489
858.197	22634
858.331	22329
858.464	22428
858.597	22341
858.731	22493
858.864	22352
858.997	22474
859.13	22462
859.263	22542
859.396	22485
859.529	22466
859.662	22409
859.795	22394
859.928	22394
860.061	22656
860.194	22683
860.327	22577
860.46	22424
860.592	22660
860.725	22645
860.858	22535
860.99	22569
861.123	22329
861.256	22386
861.388	22481
861.521	23056
861.653	22154
861.786	22242
861.918	22211
862.05	22390
862.183	22394
862.315	22440
862.447	22474
862.58	22367
862.712	22196
862.844	22219
862.976	22215
863.108	22265
863.24	22733
863.372	22082
863.504	22207
863.636	22162
863.768	22120
863.9	22147
864.032	22131
864.164	22188
864.296	22166
864.428	22322
864.559	22242
864.691	22299
864.823	22192
864.954	22177
865.086	22128
865.217	22097
865.349	22059
865.48	22116
865.612	22150
865.743	22219
865.875	22082
866.006	22070
866.137	22082
866.269	22139
866.4	22021
866.531	22048
866.662	21949
866.793	21983
866.924	21987
867.055	22078
867.186	22006
867.317	21918
867.448	21865
867.579	21953
867.71	21850
867.841	21816
867.972	21998
868.103	22032
868.233	21987
868.364	22006
868.495	22219
868.625	22306
868.756	22253
868.886	22177
869.017	22261
869.147	22325
869.278	22337
869.408	22238
869.539	22173
869.669	22390
869.799	22325
869.929	22272
870.06	22306
870.19	22436
870.32	22557
870.45	22698
870.58	22584
870.71	22664
870.84	22767
870.97	22603
871.1	22649
871.23	22710
871.36	22801
871.489	22774
871.619	22664
871.749	22835
871.879	22934
872.008	22850
872.138	22908
872.267	22710
872.397	22675
872.526	22592
872.656	22645
872.785	22550
872.915	22816
873.044	22858
873.173	22820
873.303	22946
873.432	22778
873.561	23003
873.69	22961
873.819	22752
873.948	22843
874.077	22801
874.206	22850
874.335	22782
874.464	22938
874.593	22984
874.722	23022
874.851	23155
874.979	23044
875.108	23075
875.237	23006
875.365	22934
875.494	23086
875.623	23143
875.751	22957
875.88	22984
876.008	23242
876.136	23307
876.265	23360
876.393	23581
876.521	23482
876.65	23600
876.778	23349
876.906	23455
877.034	23296
877.162	23509
877.29	23261
877.418	23482
877.546	23436
877.674	23395
877.802	23360
877.93	23311
878.058	23299
878.185	23296
878.313	23421
878.441	23284
878.568	23345
878.696	23227
878.824	23482
878.951	23493
879.079	23512
879.206	23630
879.333	23600
879.461	23440
879.588	23505
879.715	23570
879.842	23665
879.97	23433
880.097	23227
880.224	23200
880.351	23193
880.478	23235
880.605	23083
880.732	23071
880.859	23341
880.986	23337
881.112	23242
881.239	23075
881.366	22972
881.493	22869
881.619	22816
881.746	22653
881.872	22694
881.999	22733
882.125	22645
882.252	22736
882.378	22771
882.505	22877
882.631	22573
882.757	22474
882.883	22577
883.01	22504
883.136	22497
883.262	22413
883.388	22272
883.514	22542
883.64	22504
883.766	22310
883.892	22154
884.018	22215
884.143	22333
884.269	22481
884.395	22162
884.52	22109
884.646	22105
884.772	21991
884.897	22006
885.023	22055
885.148	22230
885.274	22257
885.399	22150
885.524	22109
885.65	22029
885.775	22002
885.9	22032
886.025	22215
886.15	22158
886.275	21998
886.4	22048
886.525	21987
886.65	21922
886.775	21873
886.9	22230
887.025	22223
887.149	22109
887.274	21911
887.399	21766
887.523	21888
887.648	21789
887.773	21793
887.897	21926
888.021	21876
888.146	21797
888.27	21926
888.395	21941
888.519	21846
888.643	21937
888.767	21808
888.891	21698
889.015	21675
889.139	21698
889.263	21492
889.387	21743
889.511	21800
889.635	21793
889.759	21549
889.883	21599
890.006	21648
890.13	21759
890.254	21473
890.377	21507
890.501	21344
890.624	21321
890.748	21485
890.871	21310
890.995	21100
891.118	21043
891.241	21184
891.364	21138
891.488	21367
891.611	21135
891.734	21184
891.857	21226
891.98	21093
892.103	21150
892.226	21093
892.349	21135
892.471	20906
892.594	21051
892.717	21142
892.839	20960
892.962	21203
893.085	21138
893.207	21127
893.33	20906
893.452	20971
893.575	21104
893.697	21039
893.819	21195
893.941	21192
894.064	21192
894.186	21051
894.308	20929
894.43	21188
894.552	21245
894.674	21146
894.796	20887
894.918	21077
895.04	21020
895.161	21127
895.283	20994
895.405	21032
895.526	21116
895.648	20971
895.769	21157
895.891	21055
896.012	21169
896.134	21138
896.255	20979
896.376	21024
896.498	21093
896.619	21009
896.74	21039
896.861	21043
896.982	21264
897.103	21378
897.224	21306
897.345	21146
897.466	21233
897.587	21157
897.708	21306
897.828	21180
897.949	21184
898.07	21096
898.19	21047
898.311	21310
898.431	21165
898.552	21218
898.672	21245
898.792	21298
898.913	21260
899.033	21112
899.153	21013
899.273	20948
899.393	20948
899.513	21096
899.633	20963
899.753	20899
899.873	20830
899.993	20982
900.113	21001
900.232	20941
900.352	20952
900.472	20826
900.591	20682
900.711	20743
900.83	20689
900.95	20785
901.069	20792
901.189	20644
901.308	20385
901.427	20259
901.546	20301
901.665	20355
901.784	20229
901.904	20191
902.023	20016
902.141	19970
902.26	19753
902.379	19997
902.498	19868
902.617	19765
902.735	19818
902.854	19845
902.973	19674
903.091	19502
903.21	19350
903.328	19430
903.446	19304
903.565	19251
903.683	19285
903.801	19118
903.919	19228
904.038	19228
904.156	19069
904.274	19053
904.392	19129
904.51	19069
904.627	18993
904.745	19015
904.863	18943
904.981	18787
905.098	18642
905.216	18738
905.334	18700
905.451	18817
905.569	18745
905.686	18635
905.803	18616
905.921	18441
906.038	18566
906.155	18410
906.272	18342
906.389	18452
906.506	18232
906.623	18167
906.74	18232
906.857	18171
906.974	18167
907.091	18319
907.208	18251
907.324	18209
907.441	18079
907.557	17996
907.674	17999
907.79	17836
907.907	17950
908.023	17931
908.139	17961
908.256	17878
908.372	17760
908.488	17851
908.604	17646
908.72	17638
908.836	17497
908.952	17604
909.068	17627
909.184	17828
909.3	17596
909.415	17604
909.531	17619
909.647	17292
909.762	17414
909.878	17284
909.993	17353
910.108	17299
910.224	17261
910.339	17261
910.454	17242
910.57	17143
910.685	17124
910.8	17372
910.915	17307
911.03	17174
911.145	16976
911.259	16778
911.374	16828
911.489	16866
911.604	16736
911.718	16694
911.833	16580
911.947	16573
912.062	16516
912.176	16573
912.291	16611
912.405	16599
912.519	16820
912.633	16828
912.748	16672
912.862	16577
912.976	16508
913.09	16371
913.204	16405
913.318	16436
913.431	16485
913.545	16527
913.659	16489
913.772	16466
913.886	16314
914	16215
914.113	16440
914.226	16333
914.34	16341
914.453	16131
914.566	16299
914.68	16105
914.793	16101
914.906	15926
915.019	15884
915.132	15793
915.245	15876
915.358	15983
915.47	15918
915.583	15781
915.696	15876
915.809	15953
915.921	15991
916.034	15785
916.146	15724
916.259	15671
916.371	15835
916.483	15724
916.595	15591
916.708	15732
916.82	15542
916.932	15515
917.044	15568
917.156	15561
917.268	15530
917.38	15542
917.491	15405
917.603	15488
917.715	15564
917.826	15523
917.938	15496
918.049	15279
918.161	15351
918.272	15534
918.384	15523
918.495	15359
918.606	15260
918.717	15157
918.828	15173
918.939	15275
919.05	15135
919.161	15252
919.272	15058
919.383	15047
919.494	15169
919.604	15321
919.715	15313
919.826	15066
919.936	15020
920.047	15283
920.157	15275
920.267	15393
920.378	15180
920.488	15104
920.598	15363
920.708	15488
920.818	15389
920.928	15279
921.038	15519
921.148	15462
921.258	15127
921.368	15009
921.477	15020
921.587	14876
921.697	14804
921.806	14952
921.916	14724
922.025	14610
922.134	14571
922.244	14385
922.353	14526
922.462	14450
922.571	14263
922.68	14191
922.789	14164
922.898	14210
923.007	14096
923.116	14275
923.224	14138
923.333	14172
923.442	14024
923.55	13849
923.659	14024
923.767	14111
923.876	13841
923.984	13963
924.092	13887
924.201	13875
924.309	13871
924.417	13780
924.525	13750
924.633	13803
924.741	14549
924.849	13567
924.956	13769
925.064	13582
925.172	13430
925.279	13559
925.387	13563
925.494	13533
925.602	13639
925.709	13518
925.816	13415
925.924	13415
926.031	13567
926.138	13514
926.245	13453
926.352	13297
926.459	13441
926.566	13521
926.673	13403
926.779	13343
926.886	13270
926.993	13118
927.099	13065
927.206	13042
927.312	13012
927.419	13042
927.525	13095
927.631	13004
927.737	12916
927.843	12913
927.95	12791
928.056	12867
928.162	12905
928.267	12913
928.373	13483
928.479	12859
928.585	12734
928.69	12776
928.796	12935
928.901	12734
929.007	12604
929.112	12722
929.218	12665
929.323	12654
929.428	12631
929.533	12779
929.638	12589
929.743	12593
929.848	12650
929.953	12517
930.058	12490
930.163	12285
930.267	12220
930.372	12361
930.477	12167
930.581	12483
930.685	12357
930.79	12034
930.894	12167
930.998	12205
931.103	12311
931.207	11969
931.311	11767
931.415	11718
931.519	11558
931.623	11512
