Data from test_V78500241_998.txt Node
Date: Fri Mar 25 15:48:42 CST 2022
User: usil
Spectrometer: V785-0024
Trigger mode: 0
Integration Time (sec): 4.000000E-1
Scans to average: 1
Nonlinearity correction enabled: false
Boxcar width: 0
Storing dark spectrum: false
XAxis mode: Wavelengths
Number of Pixels in Spectrum: 1024
>>>>>Begin Spectral Data<<<<<
801.071	28204
801.214	28002
801.356	27835
801.499	27690
801.641	27717
801.783	27781
801.926	27698
802.068	27690
802.211	27603
802.353	27496
802.496	27412
802.638	27306
802.78	27408
802.923	27241
803.065	27272
803.208	27408
803.35	27298
803.492	27431
803.635	27583
803.777	27416
803.919	27568
804.061	27823
804.204	27663
804.346	27587
804.488	27466
804.63	27523
804.773	27458
804.915	27530
805.057	27717
805.199	27477
805.341	27591
805.483	27800
805.626	27804
805.768	27549
805.91	27675
806.052	27827
806.194	27549
806.336	27865
806.478	27846
806.62	27675
806.762	27903
806.904	27991
807.046	28200
807.188	28086
807.33	28135
807.472	28265
807.614	27994
807.756	28048
807.898	27907
808.04	27975
808.182	28010
808.324	28112
808.465	28013
808.607	28230
808.749	28325
808.891	28440
809.033	28561
809.174	28329
809.316	28386
809.458	28352
809.6	28246
809.741	28462
809.883	28527
810.025	28733
810.166	28660
810.308	28820
810.45	28611
810.591	28455
810.733	28516
810.875	28379
811.016	28268
811.158	28299
811.299	28474
811.441	28447
811.582	28493
811.724	28523
811.865	28306
812.007	28356
812.148	28470
812.29	28527
812.431	28580
812.573	28801
812.714	28847
812.855	28843
812.997	28862
813.138	29083
813.279	28968
813.421	29006
813.562	28934
813.703	28698
813.845	28683
813.986	28322
814.127	28131
814.268	28036
814.41	28105
814.551	28112
814.692	28147
814.833	28105
814.974	28032
815.115	28021
815.256	28010
815.397	27850
815.539	27953
815.68	27892
815.821	27892
815.962	27831
816.103	27865
816.244	27800
816.385	27583
816.526	27709
816.666	27568
816.807	27431
816.948	27564
817.089	27519
817.23	27485
817.371	27306
817.512	27481
817.653	27420
817.793	27310
817.934	27500
818.075	27492
818.216	27443
818.356	27298
818.497	27427
818.638	27157
818.778	27116
818.919	27233
819.06	27306
819.2	27302
819.341	27412
819.481	27370
819.622	27553
819.762	27713
819.903	27778
820.043	27542
820.184	27675
820.324	27401
820.465	27526
820.605	27542
820.746	27416
820.886	27481
821.026	27530
821.167	27393
821.307	27595
821.447	27348
821.588	27397
821.728	27249
821.868	26952
822.008	26819
822.149	26887
822.289	26750
822.429	26533
822.569	26587
822.709	26651
822.849	26499
822.99	26320
823.13	26343
823.27	26294
823.41	26180
823.55	26180
823.69	26286
823.83	26237
823.97	26218
824.11	25997
824.25	26088
824.389	26046
824.529	26191
824.669	26126
824.809	26107
824.949	26054
825.089	26092
825.228	26039
825.368	25814
825.508	25868
825.648	26024
825.787	26062
825.927	26020
826.067	25852
826.206	25849
826.346	25898
826.485	25868
826.625	25833
826.765	26020
826.904	25921
827.044	25563
827.183	25734
827.323	25544
827.462	25662
827.601	25620
827.741	25449
827.88	25685
828.02	25518
828.159	25434
828.298	25597
828.437	25548
828.577	25590
828.716	25540
828.855	25533
828.994	25403
829.134	25419
829.273	25327
829.412	25247
829.551	25206
829.69	25350
829.829	25304
829.968	25426
830.107	25247
830.246	25266
830.385	25228
830.524	25247
830.663	25084
830.802	25091
830.941	25012
831.08	24863
831.219	25080
831.357	25012
831.496	25129
831.635	25008
831.774	24722
831.913	24806
832.051	24620
832.19	24802
832.329	24696
832.467	24639
832.606	24696
832.744	24582
832.883	24532
833.022	24570
833.16	24616
833.299	24631
833.437	24612
833.576	24700
833.714	24521
833.852	24696
833.991	24597
834.129	24817
834.267	24620
834.406	24635
834.544	24677
834.682	24688
834.821	24700
834.959	24608
835.097	24616
835.235	24722
835.373	24623
835.511	24551
835.65	24513
835.788	24486
835.926	24380
836.064	24266
836.202	24353
836.34	24422
836.478	24540
836.615	24422
836.753	24490
836.891	24505
837.029	24452
837.167	24365
837.305	24338
837.443	24285
837.58	24300
837.718	24361
837.856	24376
837.993	24315
838.131	24258
838.269	24152
838.406	24159
838.544	24083
838.681	23939
838.819	23916
838.956	23809
839.094	23851
839.231	23893
839.369	23859
839.506	24102
839.643	23897
839.781	23718
839.918	23646
840.055	23904
840.193	23745
840.33	23748
840.467	23832
840.604	23775
840.742	23912
840.879	23566
841.016	23585
841.153	23539
841.29	23764
841.427	23653
841.564	23707
841.701	23634
841.838	23592
841.975	23638
842.112	23707
842.249	23589
842.385	23501
842.522	23707
842.659	23463
842.796	23349
842.933	23368
843.069	23360
843.206	23368
843.343	23372
843.479	23440
843.616	23349
843.752	23204
843.889	23322
844.025	23258
844.162	23216
844.298	23322
844.435	23166
844.571	23102
844.708	23246
844.844	23292
844.98	23345
845.117	23200
845.253	23151
845.389	23109
845.525	23143
845.661	22984
845.798	22919
845.934	22949
846.07	22839
846.206	22984
846.342	23048
846.478	22930
846.614	22733
846.75	22683
846.886	22752
847.022	22748
847.158	22687
847.294	22691
847.429	22759
847.565	22698
847.701	22831
847.837	22379
847.972	22287
848.108	22481
848.244	22493
848.379	22375
848.515	22139
848.65	22280
848.786	22306
848.921	22200
849.057	22337
849.192	22402
849.328	22348
849.463	22436
849.598	22181
849.734	22166
849.869	22158
850.004	22013
850.14	22036
850.275	22082
850.41	21911
850.545	21934
850.68	22021
850.815	21983
850.95	22040
851.085	22223
851.22	22078
851.355	22128
851.49	22093
851.625	22070
851.76	21998
851.895	21926
852.03	21895
852.165	21945
852.299	22105
852.434	22105
852.569	22078
852.703	22036
852.838	22135
852.973	22185
853.107	21953
853.242	21987
853.376	21880
853.511	21736
853.645	21899
853.78	22017
853.914	21793
854.048	21876
854.183	21827
854.317	21956
854.451	22105
854.585	21797
854.72	21823
854.854	21857
854.988	21743
855.122	21812
855.256	21614
855.39	21880
855.524	21926
855.658	21930
855.792	21774
855.926	21911
856.06	21861
856.194	21937
856.327	21759
856.461	21759
856.595	21827
856.729	21781
856.862	21857
856.996	21717
857.13	21895
857.263	21964
857.397	21930
857.53	21903
857.664	21808
857.797	21766
857.931	21972
858.064	21903
858.197	22044
858.331	21800
858.464	21884
858.597	21720
858.731	21831
858.864	21800
858.997	21816
859.13	21732
859.263	21880
859.396	22032
859.529	22006
859.662	21949
859.795	21800
859.928	21846
860.061	22010
860.194	21953
860.327	21861
860.46	21865
860.592	21979
860.725	21983
860.858	21918
860.99	21797
861.123	21785
861.256	21808
861.388	21766
861.521	22546
861.653	21625
861.786	21549
861.918	21816
862.05	21739
862.183	21819
862.315	21819
862.447	21610
862.58	21732
862.712	21572
862.844	21523
862.976	21739
863.108	21675
863.24	21949
863.372	21481
863.504	21507
863.636	21492
863.768	21595
863.9	21694
864.032	21526
864.164	21530
864.296	21447
864.428	21671
864.559	21511
864.691	21663
864.823	21652
864.954	21564
865.086	21462
865.217	21504
865.349	21420
865.48	21488
865.612	21504
865.743	21599
865.875	21481
866.006	21340
866.137	21405
866.269	21447
866.4	21340
866.531	21378
866.662	21344
866.793	21291
866.924	21348
867.055	21370
867.186	21298
867.317	21260
867.448	21370
867.579	21401
867.71	21272
867.841	21329
867.972	21412
868.103	21306
868.233	21340
868.364	21321
868.495	21416
868.625	21583
868.756	21717
868.886	21504
869.017	21542
869.147	21747
869.278	21705
869.408	21690
869.539	21675
869.669	21679
869.799	21614
869.929	21671
870.06	21713
870.19	21926
870.32	21854
870.45	21968
870.58	22063
870.71	21994
870.84	22166
870.97	22013
871.1	21956
871.23	22131
871.36	22162
871.489	22226
871.619	22181
871.749	22188
871.879	22181
872.008	22299
872.138	22162
872.267	22158
872.397	21983
872.526	22021
872.656	22135
872.785	21991
872.915	22177
873.044	22318
873.173	22215
873.303	22268
873.432	22306
873.561	22238
873.69	22268
873.819	22249
873.948	22333
874.077	22249
874.206	22219
874.335	22226
874.464	22367
874.593	22557
874.722	22367
874.851	22459
874.979	22424
875.108	22512
875.237	22413
875.365	22504
875.494	22462
875.623	22497
875.751	22470
875.88	22474
876.008	22618
876.136	22557
876.265	22942
876.393	23037
876.521	22866
876.65	22858
876.778	22866
876.906	22774
877.034	22927
877.162	22831
877.29	22816
877.418	22866
877.546	22831
877.674	22812
877.802	22828
877.93	22660
878.058	22675
878.185	22649
878.313	22793
878.441	22744
878.568	22634
878.696	22691
878.824	22854
878.951	22889
879.079	22942
879.206	23056
879.333	22900
879.461	22706
879.588	22873
879.715	22911
879.842	23052
879.97	22919
880.097	22649
880.224	22611
880.351	22687
880.478	22523
880.605	22398
880.732	22656
880.859	22786
880.986	22622
881.112	22474
881.239	22367
881.366	22371
881.493	22261
881.619	22272
881.746	22295
881.872	22131
881.999	22109
882.125	22249
882.252	22215
882.378	22135
882.505	22257
882.631	22097
882.757	21915
882.883	21892
883.01	21800
883.136	21778
883.262	21679
883.388	21625
883.514	21895
883.64	21819
883.766	21785
883.892	21690
884.018	21682
884.143	21766
884.269	21953
884.395	21637
884.52	21515
884.646	21530
884.772	21469
884.897	21370
885.023	21496
885.148	21637
885.274	21728
885.399	21530
885.524	21504
885.65	21408
885.775	21523
885.9	21492
886.025	21576
886.15	21637
886.275	21393
886.4	21374
886.525	21466
886.65	21466
886.775	21405
886.9	21622
887.025	21675
887.149	21587
887.274	21329
887.399	21329
887.523	21351
887.648	21211
887.773	21351
887.897	21275
888.021	21203
888.146	21264
888.27	21340
888.395	21325
888.519	21161
888.643	21386
888.767	21405
888.891	21230
889.015	21070
889.139	21157
889.263	20998
889.387	21173
889.511	21298
889.635	21226
889.759	20982
889.883	20998
890.006	21123
890.13	21112
890.254	21013
890.377	20982
890.501	20758
890.624	20788
890.748	20902
890.871	20720
890.995	20625
891.118	20590
891.241	20750
891.364	20571
891.488	20640
891.611	20568
891.734	20629
891.857	20720
891.98	20587
892.103	20621
892.226	20598
892.349	20575
892.471	20423
892.594	20556
892.717	20583
892.839	20587
892.962	20556
893.085	20648
893.207	20556
893.33	20480
893.452	20328
893.575	20549
893.697	20579
893.819	20682
893.941	20781
894.064	20705
894.186	20495
894.308	20389
894.43	20492
894.552	20655
894.674	20568
894.796	20358
894.918	20488
895.04	20461
895.161	20617
895.283	20602
895.405	20465
895.526	20545
895.648	20602
895.769	20549
895.891	20495
896.012	20594
896.134	20606
896.255	20454
896.376	20549
896.498	20514
896.619	20492
896.74	20503
896.861	20552
896.982	20918
897.103	20872
897.224	20720
897.345	20727
897.466	20807
897.587	20724
897.708	20811
897.828	20682
897.949	20682
898.07	20556
898.19	20727
898.311	20632
898.431	20727
898.552	20663
898.672	20758
898.792	20918
898.913	20606
899.033	20640
899.153	20480
899.273	20465
899.393	20381
899.513	20461
899.633	20476
899.753	20389
899.873	20256
899.993	20488
900.113	20454
900.232	20484
900.352	20423
900.472	20347
900.591	20187
900.711	20286
900.83	20225
900.95	20313
901.069	20343
901.189	20206
901.308	19963
901.427	19826
901.546	19906
901.665	19906
901.784	19833
901.904	19742
902.023	19635
902.141	19373
902.26	19422
902.379	19365
902.498	19411
902.617	19251
902.735	19358
902.854	19240
902.973	19202
903.091	18993
903.21	18966
903.328	18901
903.446	18935
903.565	18696
903.683	18772
903.801	18582
903.919	18833
904.038	18829
904.156	18623
904.274	18669
904.392	18471
904.51	18604
904.627	18601
904.745	18525
904.863	18627
904.981	18174
905.098	18273
905.216	18220
905.334	18133
905.451	18254
905.569	18205
905.686	18254
905.803	18159
905.921	18072
906.038	18136
906.155	18106
906.272	17870
906.389	17901
906.506	17752
906.623	17771
906.74	17684
906.857	17691
906.974	17687
907.091	17733
907.208	17882
907.324	17786
907.441	17672
907.557	17505
907.674	17490
907.79	17425
907.907	17364
908.023	17429
908.139	17463
908.256	17376
908.372	17524
908.488	17288
908.604	17334
908.72	17117
908.836	17200
908.952	17197
909.068	17246
909.184	17345
909.3	17246
909.415	17121
909.531	17140
909.647	17079
909.762	16877
909.878	16733
909.993	16831
910.108	16919
910.224	16767
910.339	16934
910.454	16839
910.57	16622
910.685	16538
910.8	16949
910.915	16816
911.03	16687
911.145	16580
911.259	16455
911.374	16523
911.489	16284
911.604	16379
911.718	16192
911.833	16284
911.947	16173
912.062	16090
912.176	16238
912.291	16280
912.405	16211
912.519	16481
912.633	16519
912.748	16150
912.862	16204
912.976	16040
913.09	15907
913.204	16032
913.318	15937
913.431	16086
913.545	16074
913.659	16169
913.772	15918
913.886	15842
914	15755
914.113	15899
914.226	15884
914.34	15892
914.453	15682
914.566	15766
914.68	15755
914.793	15618
914.906	15496
915.019	15473
915.132	15408
915.245	15389
915.358	15458
915.47	15450
915.583	15405
915.696	15401
915.809	15466
915.921	15485
916.034	15329
916.146	15367
916.259	15283
916.371	15340
916.483	15348
916.595	15264
916.708	15260
916.82	15302
916.932	15264
917.044	15089
917.156	15199
917.268	15081
917.38	15119
917.491	15017
917.603	15066
917.715	15146
917.826	15100
917.938	14998
918.049	14956
918.161	15089
918.272	15214
918.384	14998
918.495	15058
918.606	14864
918.717	14773
918.828	14788
918.939	14819
919.05	14697
919.161	14834
919.272	14655
919.383	14716
919.494	14914
919.604	15013
919.715	14872
919.826	14644
919.936	14697
920.047	14807
920.157	14777
920.267	14925
920.378	14811
920.488	14853
920.598	14925
920.708	15116
920.818	14963
920.928	14921
921.038	15097
921.148	14963
921.258	14682
921.368	14716
921.477	14533
921.587	14423
921.697	14461
921.806	14499
921.916	14324
922.025	14206
922.134	14134
922.244	14119
922.353	14088
922.462	14092
922.571	13936
922.68	13788
922.789	13875
922.898	13871
923.007	13727
923.116	13856
923.224	13811
923.333	13799
923.442	13628
923.55	13609
923.659	13655
923.767	13750
923.876	13559
923.984	13700
924.092	13518
924.201	13529
924.309	13559
924.417	13540
924.525	13510
924.633	13403
924.741	14419
924.849	13244
924.956	13369
925.064	13255
925.172	13110
925.279	13095
925.387	13198
925.494	13187
925.602	13354
925.709	13206
925.816	13168
925.924	13183
926.031	13183
926.138	13137
926.245	13171
926.352	12993
926.459	13175
926.566	13209
926.673	13057
926.779	12935
926.886	12928
926.993	12772
927.099	12791
927.206	12669
927.312	12715
927.419	12829
927.525	12817
927.631	12825
927.737	12646
927.843	12635
927.95	12528
928.056	12494
928.162	12585
928.267	12570
928.373	13099
928.479	12646
928.585	12418
928.69	12475
928.796	12620
928.901	12471
929.007	12289
929.112	12391
929.218	12410
929.323	12441
929.428	12213
929.533	12464
929.638	12243
929.743	12289
929.848	12270
929.953	12247
930.058	12125
930.163	11916
930.267	11954
930.372	12064
930.477	11893
930.581	12155
930.685	12034
930.79	11828
930.894	11779
930.998	11904
931.103	11935
931.207	11581
931.311	11467
931.415	11379
931.519	11178
931.623	11162
