Data from test_V78500241_2106.txt Node
Date: Fri Mar 25 15:56:23 CST 2022
User: usil
Spectrometer: V785-0024
Trigger mode: 0
Integration Time (sec): 4.000000E-1
Scans to average: 1
Nonlinearity correction enabled: false
Boxcar width: 0
Storing dark spectrum: false
XAxis mode: Wavelengths
Number of Pixels in Spectrum: 1024
>>>>>Begin Spectral Data<<<<<
801.071	28919
801.214	28904
801.356	28710
801.499	28725
801.641	28554
801.783	28443
801.926	28523
802.068	28481
802.211	28588
802.353	28478
802.496	28379
802.638	28287
802.78	28242
802.923	28204
803.065	28093
803.208	28135
803.35	28356
803.492	28390
803.635	28516
803.777	28276
803.919	28443
804.061	28729
804.204	28519
804.346	28390
804.488	28367
804.63	28557
804.773	28352
804.915	28489
805.057	28611
805.199	28519
805.341	28603
805.483	28675
805.626	28546
805.768	28516
805.91	28622
806.052	28664
806.194	28481
806.336	28869
806.478	28630
806.62	28630
806.762	28843
806.904	28923
807.046	29200
807.188	29105
807.33	29056
807.472	29094
807.614	28987
807.756	28995
807.898	28946
808.04	28915
808.182	28938
808.324	28850
808.465	29052
808.607	29094
808.749	29341
808.891	29277
809.033	29440
809.174	29379
809.316	29231
809.458	29406
809.6	29391
809.741	29379
809.883	29379
810.025	29615
810.166	29649
810.308	29680
810.45	29471
810.591	29520
810.733	29379
810.875	29353
811.016	29227
811.158	29261
811.299	29429
811.441	29501
811.582	29406
811.724	29379
811.865	29448
812.007	29406
812.148	29337
812.29	29368
812.431	29520
812.573	29676
812.714	29847
812.855	29790
812.997	29977
813.138	30026
813.279	30038
813.421	30003
813.562	29847
813.703	29684
813.845	29509
813.986	29349
814.127	29136
814.268	28949
814.41	29121
814.551	29060
814.692	29086
814.833	28942
814.974	28995
815.115	29006
815.256	29056
815.397	28847
815.539	28843
815.68	28953
815.821	28717
815.962	28900
816.103	28946
816.244	28698
816.385	28641
816.526	28748
816.666	28462
816.807	28360
816.948	28531
817.089	28489
817.23	28337
817.371	28348
817.512	28299
817.653	28333
817.793	28310
817.934	28223
818.075	28344
818.216	28443
818.356	28291
818.497	28276
818.638	28013
818.778	28101
818.919	28200
819.06	28253
819.2	28196
819.341	28318
819.481	28405
819.622	28611
819.762	28672
819.903	28649
820.043	28618
820.184	28577
820.324	28569
820.465	28603
820.605	28382
820.746	28508
820.886	28352
821.026	28421
821.167	28436
821.307	28459
821.447	28485
821.588	28333
821.728	28173
821.868	27964
822.008	27876
822.149	27930
822.289	27827
822.429	27599
822.569	27564
822.709	27625
822.849	27332
822.99	27332
823.13	27367
823.27	27397
823.41	27169
823.55	26929
823.69	27161
823.83	27077
823.97	27214
824.11	26990
824.25	26899
824.389	26929
824.529	27161
824.669	26979
824.809	27249
824.949	27154
825.089	27222
825.228	27043
825.368	26872
825.508	26921
825.648	26887
825.787	26838
825.927	27074
826.067	27093
826.206	26952
826.346	27020
826.485	26921
826.625	26845
826.765	27062
826.904	26998
827.044	26781
827.183	26792
827.323	26579
827.462	26583
827.601	26629
827.741	26674
827.88	26587
828.02	26541
828.159	26777
828.298	26739
828.437	26564
828.577	26469
828.716	26777
828.855	26530
828.994	26210
829.134	26381
829.273	26408
829.412	26164
829.551	26278
829.69	26374
829.829	26298
829.968	26362
830.107	26347
830.246	26225
830.385	26347
830.524	26328
830.663	26176
830.802	26088
830.941	25936
831.08	25997
831.219	25936
831.357	25970
831.496	26191
831.635	25932
831.774	25871
831.913	25807
832.051	25719
832.19	25628
832.329	25845
832.467	25658
832.606	25582
832.744	25537
832.883	25662
833.022	25476
833.16	25674
833.299	25544
833.437	25616
833.576	25685
833.714	25613
833.852	25712
833.991	25658
834.129	25769
834.267	25651
834.406	25700
834.544	25696
834.682	25670
834.821	25643
834.959	25963
835.097	25609
835.235	25643
835.373	25647
835.511	25552
835.65	25445
835.788	25472
835.926	25464
836.064	25289
836.202	25308
836.34	25381
836.478	25529
836.615	25449
836.753	25487
836.891	25624
837.029	25616
837.167	25525
837.305	25324
837.443	25304
837.58	25343
837.718	25339
837.856	25232
837.993	25270
838.131	25225
838.269	25198
838.406	25129
838.544	25114
838.681	25053
838.819	24951
838.956	24722
839.094	24719
839.231	24696
839.369	24939
839.506	25038
839.643	24996
839.781	24863
839.918	24738
840.055	24681
840.193	24719
840.33	24620
840.467	24692
840.604	24700
840.742	25023
840.879	24665
841.016	24700
841.153	24604
841.29	24806
841.427	24688
841.564	24665
841.701	24631
841.838	24669
841.975	24490
842.112	24604
842.249	24517
842.385	24357
842.522	24661
842.659	24422
842.796	24353
842.933	24490
843.069	24315
843.206	24414
843.343	24384
843.479	24410
843.616	24433
843.752	24190
843.889	24258
844.025	24357
844.162	24178
844.298	24414
844.435	24228
844.571	24205
844.708	24247
844.844	24300
844.98	24334
845.117	24289
845.253	24228
845.389	24083
845.525	24174
845.661	24057
845.798	23927
845.934	24022
846.07	23878
846.206	23992
846.342	24015
846.478	23984
846.614	23813
846.75	23577
846.886	23600
847.022	23707
847.158	23653
847.294	23661
847.429	23748
847.565	23703
847.701	23764
847.837	23417
847.972	23315
848.108	23406
848.244	23398
848.379	23265
848.515	23220
848.65	23258
848.786	23231
848.921	23280
849.057	23277
849.192	23307
849.328	23277
849.463	23280
849.598	23212
849.734	23044
849.869	23105
850.004	23041
850.14	23067
850.275	22942
850.41	22972
850.545	22885
850.68	22999
850.815	22980
850.95	23010
851.085	23200
851.22	23060
851.355	22984
851.49	23010
851.625	22946
851.76	22961
851.895	22991
852.03	22938
852.165	22934
852.299	22995
852.434	23102
852.569	23022
852.703	22862
852.838	22968
852.973	23128
853.107	23159
853.242	22938
853.376	22725
853.511	22607
853.645	22797
853.78	22839
853.914	22790
854.048	22835
854.183	22911
854.317	22889
854.451	22980
854.585	22824
854.72	22748
854.854	22774
854.988	22816
855.122	22805
855.256	22611
855.39	22847
855.524	22805
855.658	22946
855.792	22812
855.926	22778
856.06	22858
856.194	22881
856.327	22854
856.461	22915
856.595	22656
856.729	22782
856.862	22839
856.996	22752
857.13	22873
857.263	22869
857.397	22862
857.53	22763
857.664	22858
857.797	22786
857.931	22892
858.064	22786
858.197	22786
858.331	22900
858.464	22740
858.597	22573
858.731	22725
858.864	22820
858.997	22767
859.13	22607
859.263	22790
859.396	22828
859.529	22675
859.662	22801
859.795	22713
859.928	22805
860.061	22881
860.194	23033
860.327	22843
860.46	22881
860.592	22927
860.725	22919
860.858	22824
860.99	22866
861.123	22645
861.256	22786
861.388	22672
861.521	23596
861.653	22729
861.786	22546
861.918	22634
862.05	22733
862.183	22687
862.315	22687
862.447	22752
862.58	22622
862.712	22500
862.844	22504
862.976	22500
863.108	22653
863.24	22805
863.372	22489
863.504	22489
863.636	22500
863.768	22485
863.9	22584
864.032	22322
864.164	22557
864.296	22596
864.428	22577
864.559	22584
864.691	22573
864.823	22474
864.954	22535
865.086	22474
865.217	22352
865.349	22398
865.48	22508
865.612	22527
865.743	22516
865.875	22421
866.006	22485
866.137	22440
866.269	22382
866.4	22253
866.531	22295
866.662	22200
866.793	22314
866.924	22367
867.055	22432
867.186	22284
867.317	22344
867.448	22204
867.579	22382
867.71	22105
867.841	22169
867.972	22276
868.103	22276
868.233	22322
868.364	22219
868.495	22363
868.625	22584
868.756	22542
868.886	22440
869.017	22577
869.147	22694
869.278	22577
869.408	22535
869.539	22462
869.669	22550
869.799	22538
869.929	22702
870.06	22611
870.19	22778
870.32	22965
870.45	22873
870.58	23022
870.71	23037
870.84	23067
870.97	22984
871.1	22923
871.23	23109
871.36	23140
871.489	23048
871.619	23060
871.749	23121
871.879	23105
872.008	23083
872.138	23113
872.267	23113
872.397	23033
872.526	22900
872.656	23022
872.785	22961
872.915	23105
873.044	23200
873.173	23159
873.303	23330
873.432	23265
873.561	23235
873.69	23212
873.819	23113
873.948	23090
874.077	23109
874.206	23067
874.335	23197
874.464	23227
874.593	23337
874.722	23318
874.851	23395
874.979	23372
875.108	23444
875.237	23368
875.365	23246
875.494	23345
875.623	23459
875.751	23315
875.88	23254
876.008	23463
876.136	23493
876.265	23745
876.393	23843
876.521	23680
876.65	23748
876.778	23775
876.906	23581
877.034	23596
877.162	23638
877.29	23661
877.418	23809
877.546	23756
877.674	23596
877.802	23733
877.93	23600
878.058	23562
878.185	23551
878.313	23638
878.441	23771
878.568	23433
878.696	23554
878.824	23684
878.951	23676
879.079	23836
879.206	24136
879.333	23935
879.461	23726
879.588	23771
879.715	23973
879.842	23961
879.97	23794
880.097	23691
880.224	23562
880.351	23524
880.478	23433
880.605	23486
880.732	23417
880.859	23676
880.986	23448
881.112	23467
881.239	23395
881.366	23284
881.493	23216
881.619	23102
881.746	23083
881.872	23121
881.999	22976
882.125	22980
882.252	23155
882.378	22980
882.505	23151
882.631	22786
882.757	22873
882.883	22824
883.01	22675
883.136	22664
883.262	22679
883.388	22531
883.514	22843
883.64	22767
883.766	22691
883.892	22440
884.018	22577
884.143	22672
884.269	22869
884.395	22402
884.52	22413
884.646	22348
884.772	22299
884.897	22276
885.023	22390
885.148	22440
885.274	22451
885.399	22542
885.524	22402
885.65	22382
885.775	22462
885.9	22322
886.025	22508
886.15	22424
886.275	22341
886.4	22329
886.525	22322
886.65	22280
886.775	22265
886.9	22516
887.025	22519
887.149	22428
887.274	22154
887.399	22185
887.523	22116
887.648	22078
887.773	22093
887.897	22048
888.021	22223
888.146	21964
888.27	22150
888.395	22181
888.519	22124
888.643	22120
888.767	22158
888.891	22055
889.015	21842
889.139	22051
889.263	21956
889.387	22059
889.511	22169
889.635	21975
889.759	21838
889.883	21869
890.006	21876
890.13	22086
890.254	21781
890.377	21861
890.501	21720
890.624	21709
890.748	21705
890.871	21511
890.995	21412
891.118	21329
891.241	21466
891.364	21458
891.488	21580
891.611	21462
891.734	21492
891.857	21576
891.98	21428
892.103	21466
892.226	21386
892.349	21443
892.471	21249
892.594	21291
892.717	21447
892.839	21291
892.962	21401
893.085	21412
893.207	21336
893.33	21233
893.452	21214
893.575	21287
893.697	21382
893.819	21466
893.941	21523
894.064	21549
894.186	21180
894.308	21222
894.43	21329
894.552	21435
894.674	21397
894.796	21237
894.918	21291
895.04	21321
895.161	21336
895.283	21363
895.405	21222
895.526	21325
895.648	21283
895.769	21367
895.891	21313
896.012	21439
896.134	21469
896.255	21313
896.376	21207
896.498	21275
896.619	21321
896.74	21408
896.861	21321
896.982	21564
897.103	21800
897.224	21549
897.345	21523
897.466	21534
897.587	21523
897.708	21572
897.828	21523
897.949	21443
898.07	21321
898.19	21374
898.311	21595
898.431	21405
898.552	21405
898.672	21568
898.792	21606
898.913	21477
899.033	21340
899.153	21332
899.273	21150
899.393	21283
899.513	21233
899.633	21207
899.753	21310
899.873	21222
899.993	21344
900.113	21100
900.232	21131
900.352	21100
900.472	21070
900.591	20963
900.711	21039
900.83	20937
900.95	21036
901.069	21058
901.189	20883
901.308	20655
901.427	20648
901.546	20522
901.665	20583
901.784	20590
901.904	20503
902.023	20396
902.141	20149
902.26	20202
902.379	20100
902.498	20100
902.617	20024
902.735	20084
902.854	20039
902.973	20043
903.091	19799
903.21	19719
903.328	19708
903.446	19666
903.565	19563
903.683	19628
903.801	19529
903.919	19499
904.038	19460
904.156	19266
904.274	19327
904.392	19244
904.51	19320
904.627	19225
904.745	19266
904.863	19343
904.981	19126
905.098	18943
905.216	18958
905.334	18989
905.451	18951
905.569	18993
905.686	19053
905.803	18863
905.921	18734
906.038	18829
906.155	18768
906.272	18738
906.389	18544
906.506	18486
906.623	18433
906.74	18517
906.857	18376
906.974	18319
907.091	18566
907.208	18544
907.324	18426
907.441	18509
907.557	18167
907.674	18228
907.79	18083
907.907	18182
908.023	18178
908.139	18133
908.256	18114
908.372	18034
908.488	18022
908.604	17828
908.72	17836
908.836	17855
908.952	17935
909.068	17904
909.184	18003
909.3	17866
909.415	17950
909.531	17821
909.647	17741
909.762	17581
909.878	17554
909.993	17627
910.108	17551
910.224	17478
910.339	17596
910.454	17425
910.57	17269
910.685	17280
910.8	17535
910.915	17543
911.03	17376
911.145	17159
911.259	17178
911.374	17178
911.489	17113
911.604	17105
911.718	16923
911.833	16839
911.947	16953
912.062	16752
912.176	16892
912.291	16915
912.405	16942
912.519	17155
912.633	17105
912.748	16999
912.862	16790
912.976	16752
913.09	16653
913.204	16596
913.318	16710
913.431	16809
913.545	16812
913.659	16759
913.772	16569
913.886	16459
914	16421
914.113	16622
914.226	16611
914.34	16504
914.453	16303
914.566	16497
914.68	16337
914.793	16306
914.906	16181
915.019	16036
915.132	15941
915.245	15991
915.358	16044
915.47	16074
915.583	16010
915.696	16029
915.809	16200
915.921	16150
916.034	15949
916.146	15983
916.259	15880
916.371	15991
916.483	15979
916.595	15823
916.708	15797
916.82	15850
916.932	15812
917.044	15800
917.156	15675
917.268	15717
917.38	15713
917.491	15648
917.603	15675
917.715	15781
917.826	15797
917.938	15538
918.049	15519
918.161	15526
918.272	15724
918.384	15690
918.495	15542
918.606	15466
918.717	15374
918.828	15431
918.939	15488
919.05	15363
919.161	15382
919.272	15127
919.383	15131
919.494	15473
919.604	15580
919.715	15359
919.826	15249
919.936	15450
920.047	15428
920.157	15302
920.267	15526
920.378	15279
920.488	15298
920.598	15416
920.708	15633
920.818	15473
920.928	15420
921.038	15652
921.148	15557
921.258	15332
921.368	15245
921.477	15077
921.587	15089
921.697	15039
921.806	15100
921.916	14902
922.025	14826
922.134	14674
922.244	14716
922.353	14743
922.462	14522
922.571	14545
922.68	14328
922.789	14309
922.898	14313
923.007	14252
923.116	14252
923.224	14317
923.333	14275
923.442	14229
923.55	14218
923.659	14225
923.767	14221
923.876	14046
923.984	14221
924.092	13997
924.201	14062
924.309	14115
924.417	13997
924.525	13967
924.633	13940
924.741	14804
924.849	13822
924.956	13974
925.064	13753
925.172	13689
925.279	13708
925.387	13750
925.494	13655
925.602	13830
925.709	13666
925.816	13693
925.924	13677
926.031	13731
926.138	13636
926.245	13681
926.352	13594
926.459	13761
926.566	13746
926.673	13620
926.779	13491
926.886	13365
926.993	13308
927.099	13255
927.206	13194
927.312	13194
927.419	13270
927.525	13255
927.631	13206
927.737	13076
927.843	13019
927.95	13004
928.056	13050
928.162	13061
928.267	13141
928.373	13746
928.479	13129
928.585	12958
928.69	12909
928.796	13080
928.901	12867
929.007	12715
929.112	12939
929.218	12878
929.323	12897
929.428	12810
929.533	12859
929.638	12707
929.743	12749
929.848	12764
929.953	12646
930.058	12551
930.163	12452
930.267	12452
930.372	12578
930.477	12422
930.581	12593
930.685	12467
930.79	12239
930.894	12395
930.998	12224
931.103	12483
931.207	11958
931.311	11893
931.415	11904
931.519	11623
931.623	11668
