Data from test_V78500241_2856.txt Node
Date: Fri Mar 25 16:01:35 CST 2022
User: usil
Spectrometer: V785-0024
Trigger mode: 0
Integration Time (sec): 4.000000E-1
Scans to average: 1
Nonlinearity correction enabled: false
Boxcar width: 0
Storing dark spectrum: false
XAxis mode: Wavelengths
Number of Pixels in Spectrum: 1024
>>>>>Begin Spectral Data<<<<<
801.071	29029
801.214	29117
801.356	28866
801.499	28675
801.641	28542
801.783	28698
801.926	28710
802.068	28782
802.211	28481
802.353	28607
802.496	28272
802.638	28500
802.78	28382
802.923	28204
803.065	28322
803.208	28333
803.35	28322
803.492	28584
803.635	28622
803.777	28588
803.919	28603
804.061	28934
804.204	28824
804.346	28691
804.488	28599
804.63	28550
804.773	28641
804.915	28679
805.057	28672
805.199	28607
805.341	28637
805.483	28683
805.626	28694
805.768	28634
805.91	29018
806.052	28896
806.194	28687
806.336	29105
806.478	28843
806.62	28793
806.762	28896
806.904	29143
807.046	29280
807.188	29105
807.33	29216
807.472	29292
807.614	29086
807.756	29246
807.898	29170
808.04	29010
808.182	29041
808.324	29102
808.465	29299
808.607	29307
808.749	29535
808.891	29455
809.033	29638
809.174	29379
809.316	29558
809.458	29429
809.6	29410
809.741	29627
809.883	29627
810.025	29691
810.166	29859
810.308	29840
810.45	29634
810.591	29623
810.733	29600
810.875	29478
811.016	29372
811.158	29337
811.299	29615
811.441	29619
811.582	29646
811.724	29528
811.865	29585
812.007	29478
812.148	29463
812.29	29604
812.431	29634
812.573	30022
812.714	30049
812.855	29980
812.997	30072
813.138	30136
813.279	30167
813.421	30041
813.562	30102
813.703	29935
813.845	29619
813.986	29566
814.127	29204
814.268	29197
814.41	29387
814.551	29212
814.692	29349
814.833	29090
814.974	29246
815.115	29204
815.256	29155
815.397	29117
815.539	29124
815.68	29067
815.821	28946
815.962	29086
816.103	29022
816.244	29018
816.385	28881
816.526	28820
816.666	28622
816.807	28531
816.948	28512
817.089	28611
817.23	28527
817.371	28466
817.512	28485
817.653	28424
817.793	28417
817.934	28508
818.075	28607
818.216	28618
818.356	28531
818.497	28409
818.638	28268
818.778	28268
818.919	28280
819.06	28455
819.2	28459
819.341	28603
819.481	28569
819.622	28847
819.762	28877
819.903	28786
820.043	28790
820.184	28557
820.324	28698
820.465	28877
820.605	28721
820.746	28641
820.886	28626
821.026	28634
821.167	28516
821.307	28668
821.447	28596
821.588	28325
821.728	28386
821.868	28128
822.008	28067
822.149	28017
822.289	28032
822.429	27797
822.569	27641
822.709	27743
822.849	27576
822.99	27523
823.13	27450
823.27	27443
823.41	27500
823.55	27313
823.69	27515
823.83	27382
823.97	27378
824.11	27169
824.25	27036
824.389	27199
824.529	27348
824.669	27188
824.809	27252
824.949	27378
825.089	27317
825.228	27348
825.368	27135
825.508	27020
825.648	27116
825.787	27074
825.927	27207
826.067	27081
826.206	27039
826.346	26990
826.485	27070
826.625	27013
826.765	27161
826.904	27161
827.044	26910
827.183	26960
827.323	26750
827.462	26826
827.601	26899
827.741	26815
827.88	26914
828.02	26750
828.159	26807
828.298	26689
828.437	26815
828.577	26648
828.716	26864
828.855	26800
828.994	26518
829.134	26503
829.273	26556
829.412	26412
829.551	26480
829.69	26469
829.829	26533
829.968	26655
830.107	26644
830.246	26522
830.385	26328
830.524	26488
830.663	26324
830.802	26191
830.941	26115
831.08	26081
831.219	26275
831.357	26275
831.496	26343
831.635	26069
831.774	26058
831.913	26126
832.051	25803
832.19	25906
832.329	25879
832.467	25750
832.606	25765
832.744	25719
832.883	25689
833.022	25677
833.16	25826
833.299	25849
833.437	25727
833.576	25852
833.714	25883
833.852	25757
833.991	25841
834.129	25837
834.267	25856
834.406	25738
834.544	25925
834.682	25769
834.821	25788
834.959	25856
835.097	25746
835.235	26024
835.373	25887
835.511	25746
835.65	25651
835.788	25624
835.926	25594
836.064	25552
836.202	25518
836.34	25681
836.478	25830
836.615	25476
836.753	25506
836.891	25605
837.029	25594
837.167	25605
837.305	25441
837.443	25491
837.58	25483
837.718	25487
837.856	25483
837.993	25293
838.131	25499
838.269	25320
838.406	25479
838.544	25274
838.681	25171
838.819	25168
838.956	24977
839.094	25038
839.231	25145
839.369	25076
839.506	25324
839.643	25209
839.781	24871
839.918	24913
840.055	24871
840.193	24802
840.33	24802
840.467	24734
840.604	24791
840.742	25050
840.879	24608
841.016	24726
841.153	24623
841.29	24901
841.427	24859
841.564	24749
841.701	24665
841.838	24764
841.975	24779
842.112	24631
842.249	24597
842.385	24608
842.522	24810
842.659	24802
842.796	24570
842.933	24612
843.069	24494
843.206	24585
843.343	24566
843.479	24570
843.616	24616
843.752	24494
843.889	24445
844.025	24452
844.162	24418
844.298	24486
844.435	24365
844.571	24266
844.708	24376
844.844	24441
844.98	24578
845.117	24350
845.253	24243
845.389	24194
845.525	24327
845.661	24167
845.798	24057
845.934	24098
846.07	23927
846.206	24068
846.342	24201
846.478	24194
846.614	23840
846.75	23726
846.886	23794
847.022	23874
847.158	23855
847.294	23908
847.429	23859
847.565	23745
847.701	23969
847.837	23486
847.972	23490
848.108	23619
848.244	23558
848.379	23505
848.515	23528
848.65	23360
848.786	23436
848.921	23341
849.057	23467
849.192	23471
849.328	23410
849.463	23429
849.598	23277
849.734	23311
849.869	23303
850.004	23250
850.14	23170
850.275	23147
850.41	23242
850.545	23246
850.68	23056
850.815	23113
850.95	23075
851.085	23284
851.22	23223
851.355	23220
851.49	23193
851.625	23010
851.76	23166
851.895	23079
852.03	23018
852.165	23109
852.299	23200
852.434	23124
852.569	23121
852.703	23212
852.838	23239
852.973	23162
853.107	23292
853.242	23147
853.376	22938
853.511	22809
853.645	23018
853.78	23083
853.914	23018
854.048	23018
854.183	22965
854.317	22911
854.451	23178
854.585	22961
854.72	23056
854.854	23094
854.988	22858
855.122	22938
855.256	22839
855.39	22862
855.524	23006
855.658	23018
855.792	22949
855.926	23029
856.06	23041
856.194	23060
856.327	22904
856.461	22908
856.595	22824
856.729	22896
856.862	23037
856.996	22850
857.13	23044
857.263	23064
857.397	23010
857.53	22900
857.664	22957
857.797	22946
857.931	22968
858.064	23003
858.197	23170
858.331	23006
858.464	23022
858.597	22881
858.731	22915
858.864	22873
858.997	22999
859.13	23048
859.263	22900
859.396	23018
859.529	22835
859.662	22999
859.795	22850
859.928	22972
860.061	22987
860.194	23102
860.327	23174
860.46	22923
860.592	22961
860.725	23094
860.858	23067
860.99	22919
861.123	22706
861.256	22957
861.388	22999
861.521	23718
861.653	22831
861.786	22790
861.918	22820
862.05	22869
862.183	22946
862.315	22843
862.447	22915
862.58	22835
862.712	22717
862.844	22637
862.976	22729
863.108	22797
863.24	23044
863.372	22596
863.504	22694
863.636	22767
863.768	22634
863.9	22664
864.032	22672
864.164	22687
864.296	22729
864.428	22748
864.559	22691
864.691	22740
864.823	22664
864.954	22470
865.086	22607
865.217	22531
865.349	22478
865.48	22656
865.612	22561
865.743	22656
865.875	22386
866.006	22596
866.137	22493
866.269	22440
866.4	22588
866.531	22485
866.662	22417
866.793	22375
866.924	22485
867.055	22459
867.186	22447
867.317	22516
867.448	22421
867.579	22363
867.71	22295
867.841	22421
867.972	22386
868.103	22440
868.233	22497
868.364	22519
868.495	22607
868.625	22706
868.756	22892
868.886	22607
869.017	22790
869.147	22691
869.278	22748
869.408	22725
869.539	22748
869.669	22824
869.799	22786
869.929	22862
870.06	22881
870.19	23052
870.32	23037
870.45	23056
870.58	23064
870.71	23151
870.84	23292
870.97	23121
871.1	23075
871.23	23250
871.36	23315
871.489	23280
871.619	23269
871.749	23337
871.879	23307
872.008	23353
872.138	23242
872.267	23322
872.397	23170
872.526	23185
872.656	23178
872.785	23056
872.915	23349
873.044	23292
873.173	23345
873.303	23292
873.432	23239
873.561	23440
873.69	23269
873.819	23269
873.948	23379
874.077	23372
874.206	23220
874.335	23296
874.464	23463
874.593	23433
874.722	23562
874.851	23592
874.979	23505
875.108	23611
875.237	23433
875.365	23391
875.494	23497
875.623	23577
875.751	23478
875.88	23520
876.008	23551
876.136	23737
876.265	23950
876.393	24091
876.521	23996
876.65	24057
876.778	23920
876.906	23889
877.034	23809
877.162	23912
877.29	23729
877.418	23878
877.546	23775
877.674	23980
877.802	23897
877.93	23870
878.058	23737
878.185	23691
878.313	23741
878.441	23889
878.568	23638
878.696	23798
878.824	23779
878.951	23916
879.079	24079
879.206	24213
879.333	24064
879.461	23973
879.588	23988
879.715	24163
879.842	24140
879.97	23916
880.097	23653
880.224	23661
880.351	23718
880.478	23668
880.605	23665
880.732	23775
880.859	23863
880.986	23649
881.112	23573
881.239	23570
881.366	23330
881.493	23280
881.619	23334
881.746	23269
881.872	23402
881.999	23261
882.125	23265
882.252	23162
882.378	23235
882.505	23261
882.631	22976
882.757	23018
882.883	22987
883.01	22839
883.136	22892
883.262	22752
883.388	22630
883.514	22896
883.64	22987
883.766	22797
883.892	22679
884.018	22675
884.143	22896
884.269	23003
884.395	22584
884.52	22523
884.646	22538
884.772	22493
884.897	22500
885.023	22554
885.148	22683
885.274	22702
885.399	22512
885.524	22512
885.65	22523
885.775	22611
885.9	22455
886.025	22706
886.15	22672
886.275	22443
886.4	22527
886.525	22527
886.65	22421
886.775	22371
886.9	22493
887.025	22672
887.149	22409
887.274	22360
887.399	22268
887.523	22265
887.648	22219
887.773	22234
887.897	22402
888.021	22322
888.146	22447
888.27	22421
888.395	22440
888.519	22371
888.643	22329
888.767	22337
888.891	22150
889.015	22139
889.139	22093
889.263	21953
889.387	22147
889.511	22333
889.635	22166
889.759	22017
889.883	21979
890.006	22074
890.13	22097
890.254	21991
890.377	21937
890.501	21899
890.624	21660
890.748	21960
890.871	21698
890.995	21603
891.118	21606
891.241	21648
891.364	21576
891.488	21819
891.611	21644
891.734	21641
891.857	21580
891.98	21606
892.103	21644
892.226	21466
892.349	21542
892.471	21332
892.594	21500
892.717	21671
892.839	21511
892.962	21424
893.085	21622
893.207	21488
893.33	21401
893.452	21397
893.575	21447
893.697	21542
893.819	21618
893.941	21641
894.064	21629
894.186	21447
894.308	21492
894.43	21526
894.552	21580
894.674	21595
894.796	21488
894.918	21431
895.04	21481
895.161	21599
895.283	21485
895.405	21439
895.526	21363
895.648	21485
895.769	21424
895.891	21523
896.012	21542
896.134	21485
896.255	21603
896.376	21439
896.498	21401
896.619	21511
896.74	21344
896.861	21519
896.982	21831
897.103	21979
897.224	21682
897.345	21652
897.466	21671
897.587	21781
897.708	21644
897.828	21743
897.949	21599
898.07	21549
898.19	21720
898.311	21637
898.431	21629
898.552	21686
898.672	21755
898.792	21591
898.913	21644
899.033	21595
899.153	21557
899.273	21412
899.393	21359
899.513	21439
899.633	21393
899.753	21443
899.873	21317
899.993	21450
900.113	21348
900.232	21256
900.352	21367
900.472	21283
900.591	21123
900.711	21135
900.83	21104
900.95	21188
901.069	21260
901.189	21077
901.308	20902
901.427	20465
901.546	20758
901.665	20727
901.784	20746
901.904	20663
902.023	20469
902.141	20381
902.26	20290
902.379	20244
902.498	20172
902.617	20161
902.735	20199
902.854	20221
902.973	20111
903.091	19868
903.21	19894
903.328	19951
903.446	19784
903.565	19601
903.683	19693
903.801	19655
903.919	19540
904.038	19590
904.156	19460
904.274	19502
904.392	19445
904.51	19365
904.627	19415
904.745	19430
904.863	19575
904.981	19114
905.098	19031
905.216	19110
905.334	19095
905.451	19042
905.569	19000
905.686	19038
905.803	19053
905.921	18814
906.038	18890
906.155	18875
906.272	18791
906.389	18829
906.506	18650
906.623	18639
906.74	18608
906.857	18475
906.974	18372
907.091	18707
907.208	18673
907.324	18642
907.441	18502
907.557	18319
907.674	18304
907.79	18201
907.907	18327
908.023	18357
908.139	18327
908.256	18270
908.372	18064
908.488	18136
908.604	18064
908.72	18041
908.836	18015
908.952	17992
909.068	17965
909.184	18110
909.3	18049
909.415	17996
909.531	18034
909.647	17741
909.762	17726
909.878	17646
909.993	17722
910.108	17718
910.224	17733
910.339	17710
910.454	17535
910.57	17524
910.685	17474
910.8	17695
910.915	17676
911.03	17516
911.145	17288
911.259	17280
911.374	17280
911.489	17197
911.604	17250
911.718	17022
911.833	17018
911.947	16942
912.062	16911
912.176	16980
912.291	17121
912.405	16942
912.519	17277
912.633	17216
912.748	17041
912.862	16987
912.976	16911
913.09	16672
913.204	16706
913.318	16881
913.431	16927
913.545	16908
913.659	17052
913.772	16752
913.886	16687
914	16546
914.113	16752
914.226	16698
914.34	16626
914.453	16394
914.566	16542
914.68	16558
914.793	16481
914.906	16329
915.019	16246
915.132	16124
915.245	16093
915.358	16139
915.47	16246
915.583	16109
915.696	16143
915.809	16291
915.921	16329
916.034	16158
916.146	16029
916.259	16071
916.371	16135
916.483	16131
916.595	16025
916.708	15899
916.82	15972
916.932	15922
917.044	15918
917.156	15819
917.268	15827
917.38	15930
917.491	15743
917.603	15804
917.715	15949
917.826	15838
917.938	15816
918.049	15485
918.161	15770
918.272	15823
918.384	15808
918.495	15686
918.606	15469
918.717	15492
918.828	15519
918.939	15496
919.05	15405
919.161	15534
919.272	15329
919.383	15370
919.494	15644
919.604	15778
919.715	15378
919.826	15355
919.936	15431
920.047	15545
920.157	15416
920.267	15701
920.378	15473
920.488	15386
920.598	15656
920.708	15679
920.818	15656
920.928	15584
921.038	15686
921.148	15610
921.258	15393
921.368	15195
921.477	15184
921.587	15146
921.697	15070
921.806	15184
921.916	15020
922.025	14834
922.134	14807
922.244	14815
922.353	14800
922.462	14613
922.571	14594
922.68	14484
922.789	14396
922.898	14507
923.007	14408
923.116	14469
923.224	14423
923.333	14457
923.442	14339
923.55	14290
923.659	14324
923.767	14313
923.876	14229
923.984	14240
924.092	14096
924.201	14183
924.309	14111
924.417	14164
924.525	14107
924.633	14050
924.741	14982
924.849	13856
924.956	13989
925.064	13826
925.172	13799
925.279	13772
925.387	13883
925.494	13788
925.602	13986
925.709	13856
925.816	13696
925.924	13822
926.031	13841
926.138	13769
926.245	13761
926.352	13582
926.459	13864
926.566	13849
926.673	13643
926.779	13529
926.886	13586
926.993	13415
927.099	13434
927.206	13369
927.312	13350
927.419	13316
927.525	13270
927.631	13381
927.737	13198
927.843	13278
927.95	13069
928.056	13088
928.162	13080
928.267	13168
928.373	13776
928.479	13316
928.585	13027
928.69	13114
928.796	13122
928.901	12989
929.007	12821
929.112	12973
929.218	12913
929.323	12951
929.428	12871
929.533	12977
929.638	12863
929.743	12814
929.848	12798
929.953	12787
930.058	12715
930.163	12509
930.267	12559
930.372	12635
930.477	12555
930.581	12730
930.685	12551
930.79	12418
930.894	12426
930.998	12391
931.103	12494
931.207	12171
931.311	12125
931.415	11961
931.519	11824
931.623	11821
