Data from test_V78500241_695.txt Node
Date: Fri Mar 25 15:46:36 CST 2022
User: usil
Spectrometer: V785-0024
Trigger mode: 0
Integration Time (sec): 4.000000E-1
Scans to average: 1
Nonlinearity correction enabled: false
Boxcar width: 0
Storing dark spectrum: false
XAxis mode: Wavelengths
Number of Pixels in Spectrum: 1024
>>>>>Begin Spectral Data<<<<<
801.071	27922
801.214	27892
801.356	27686
801.499	27622
801.641	27587
801.783	27564
801.926	27614
802.068	27530
802.211	27561
802.353	27386
802.496	27218
802.638	27100
802.78	27233
802.923	27359
803.065	27199
803.208	27264
803.35	27218
803.492	27351
803.635	27492
803.777	27382
803.919	27374
804.061	27770
804.204	27507
804.346	27245
804.488	27264
804.63	27370
804.773	27214
804.915	27443
805.057	27545
805.199	27386
805.341	27370
805.483	27526
805.626	27496
805.768	27443
805.91	27610
806.052	27690
806.194	27473
806.336	27789
806.478	27629
806.62	27545
806.762	27724
806.904	27766
807.046	28040
807.188	28093
807.33	27972
807.472	28032
807.614	27937
807.756	27926
807.898	27888
808.04	27797
808.182	27926
808.324	27816
808.465	27876
808.607	27972
808.749	28211
808.891	28207
809.033	28474
809.174	28310
809.316	28295
809.458	28249
809.6	28268
809.741	28386
809.883	28466
810.025	28546
810.166	28512
810.308	28497
810.45	28466
810.591	28268
810.733	28268
810.875	28226
811.016	28147
811.158	28063
811.299	28409
811.441	28371
811.582	28284
811.724	28188
811.865	28276
812.007	28322
812.148	28238
812.29	28329
812.431	28401
812.573	28588
812.714	28538
812.855	28767
812.997	28908
813.138	28965
813.279	28995
813.421	28854
813.562	28721
813.703	28512
813.845	28375
813.986	28181
814.127	28029
814.268	28006
814.41	27926
814.551	27713
814.692	27930
814.833	27911
814.974	27884
815.115	27804
815.256	27778
815.397	27850
815.539	27838
815.68	27789
815.821	27629
815.962	27736
816.103	27793
816.244	27454
816.385	27599
816.526	27447
816.666	27393
816.807	27154
816.948	27332
817.089	27378
817.23	27275
817.371	27138
817.512	27268
817.653	27188
817.793	27058
817.934	27283
818.075	27230
818.216	27226
818.356	27218
818.497	27233
818.638	27005
818.778	27001
818.919	27051
819.06	27020
819.2	27180
819.341	27207
819.481	27230
819.622	27473
819.762	27667
819.903	27389
820.043	27427
820.184	27374
820.324	27393
820.465	27439
820.605	27374
820.746	27279
820.886	27123
821.026	27325
821.167	27348
821.307	27325
821.447	27317
821.588	27249
821.728	27047
821.868	26868
822.008	26636
822.149	26731
822.289	26556
822.429	26488
822.569	26309
822.709	26374
822.849	26210
822.99	26122
823.13	26119
823.27	26206
823.41	26065
823.55	25917
823.69	26111
823.83	26122
823.97	26039
824.11	25833
824.25	25811
824.389	25925
824.529	26077
824.669	25860
824.809	26107
824.949	25944
825.089	25959
825.228	25826
825.368	25696
825.508	25742
825.648	25818
825.787	25761
825.927	25837
826.067	25708
826.206	25651
826.346	25670
826.485	25845
826.625	25696
826.765	25970
826.904	25731
827.044	25559
827.183	25487
827.323	25362
827.462	25479
827.601	25415
827.741	25301
827.88	25552
828.02	25217
828.159	25472
828.298	25460
828.437	25483
828.577	25266
828.716	25518
828.855	25384
828.994	25156
829.134	25187
829.273	25183
829.412	25179
829.551	25114
829.69	25190
829.829	25110
829.968	25206
830.107	25217
830.246	25099
830.385	25164
830.524	24947
830.663	24882
830.802	24814
830.941	24677
831.08	24806
831.219	24837
831.357	24776
831.496	24905
831.635	24661
831.774	24627
831.913	24608
832.051	24448
832.19	24566
832.329	24547
832.467	24555
832.606	24384
832.744	24304
832.883	24498
833.022	24433
833.16	24441
833.299	24452
833.437	24384
833.576	24563
833.714	24502
833.852	24642
833.991	24494
834.129	24623
834.267	24601
834.406	24547
834.544	24410
834.682	24372
834.821	24357
834.959	24593
835.097	24403
835.235	24502
835.373	24399
835.511	24456
835.65	24418
835.788	24365
835.926	24144
836.064	24197
836.202	24216
836.34	24323
836.478	24410
836.615	24342
836.753	24319
836.891	24566
837.029	24327
837.167	24258
837.305	24125
837.443	24186
837.58	24247
837.718	24285
837.856	24152
837.993	24114
838.131	24167
838.269	23996
838.406	24045
838.544	23893
838.681	23714
838.819	23752
838.956	23570
839.094	23752
839.231	23718
839.369	23752
839.506	24045
839.643	23805
839.781	23619
839.918	23467
840.055	23623
840.193	23566
840.33	23535
840.467	23585
840.604	23524
840.742	23771
840.879	23292
841.016	23482
841.153	23364
841.29	23733
841.427	23509
841.564	23680
841.701	23535
841.838	23368
841.975	23425
842.112	23493
842.249	23490
842.385	23208
842.522	23482
842.659	23383
842.796	23311
842.933	23326
843.069	23254
843.206	23189
843.343	23254
843.479	23208
843.616	23151
843.752	23094
843.889	23079
844.025	23193
844.162	23044
844.298	23071
844.435	23033
844.571	23025
844.708	23140
844.844	23162
844.98	23189
845.117	23090
845.253	22995
845.389	22915
845.525	22915
845.661	22961
845.798	22721
845.934	22835
846.07	22710
846.206	22831
846.342	23033
846.478	22790
846.614	22637
846.75	22508
846.886	22512
847.022	22694
847.158	22561
847.294	22504
847.429	22531
847.565	22447
847.701	22713
847.837	22272
847.972	22150
848.108	22367
848.244	22504
848.379	22048
848.515	22105
848.65	22192
848.786	22029
848.921	22181
849.057	22276
849.192	22196
849.328	22211
849.463	22063
849.598	22086
849.734	22086
849.869	21918
850.004	21819
850.14	21964
850.275	21854
850.41	21736
850.545	21751
850.68	21888
850.815	21861
850.95	21838
851.085	22124
851.22	21991
851.355	21846
851.49	21873
851.625	21770
851.76	21850
851.895	21797
852.03	21873
852.165	21918
852.299	21865
852.434	22036
852.569	21983
852.703	21876
852.838	21922
852.973	21987
853.107	21945
853.242	21747
853.376	21759
853.511	21606
853.645	21595
853.78	21770
853.914	21736
854.048	21606
854.183	21599
854.317	21766
854.451	21926
854.585	21523
854.72	21888
854.854	21804
854.988	21568
855.122	21660
855.256	21458
855.39	21660
855.524	21743
855.658	21755
855.792	21736
855.926	21682
856.06	21743
856.194	21747
856.327	21701
856.461	21603
856.595	21682
856.729	21686
856.862	21770
856.996	21576
857.13	21857
857.263	21819
857.397	21759
857.53	21736
857.664	21713
857.797	21709
857.931	21895
858.064	21679
858.197	21884
858.331	21720
858.464	21713
858.597	21496
858.731	21656
858.864	21675
858.997	21675
859.13	21603
859.263	21667
859.396	21717
859.529	21603
859.662	21698
859.795	21686
859.928	21694
860.061	21869
860.194	21869
860.327	21709
860.46	21728
860.592	21838
860.725	21854
860.858	21816
860.99	21724
861.123	21603
861.256	21580
861.388	21778
861.521	22230
861.653	21622
861.786	21561
861.918	21462
862.05	21648
862.183	21625
862.315	21606
862.447	21603
862.58	21576
862.712	21351
862.844	21321
862.976	21580
863.108	21466
863.24	21903
863.372	21310
863.504	21302
863.636	21386
863.768	21511
863.9	21401
864.032	21408
864.164	21401
864.296	21272
864.428	21507
864.559	21435
864.691	21500
864.823	21507
864.954	21325
865.086	21317
865.217	21310
865.349	21188
865.48	21230
865.612	21268
865.743	21473
865.875	21355
866.006	21256
866.137	21237
866.269	21249
866.4	21230
866.531	21184
866.662	21233
866.793	21199
866.924	21230
867.055	21123
867.186	21313
867.317	21222
867.448	21154
867.579	21142
867.71	21108
867.841	21127
867.972	21207
868.103	21192
868.233	21310
868.364	21294
868.495	21211
868.625	21370
868.756	21660
868.886	21428
869.017	21504
869.147	21595
869.278	21591
869.408	21500
869.539	21443
869.669	21439
869.799	21530
869.929	21629
870.06	21450
870.19	21770
870.32	21709
870.45	21816
870.58	21823
870.71	21994
870.84	21949
870.97	21865
871.1	21812
871.23	22010
871.36	21930
871.489	21983
871.619	22063
871.749	22074
871.879	22063
872.008	22207
872.138	22120
872.267	22013
872.397	21956
872.526	21945
872.656	21861
872.785	21892
872.915	22093
873.044	22128
873.173	22082
873.303	22074
873.432	22173
873.561	22219
873.69	22006
873.819	22070
873.948	22082
874.077	22124
874.206	22070
874.335	22101
874.464	22128
874.593	22318
874.722	22341
874.851	22318
874.979	22333
875.108	22386
875.237	22261
875.365	22120
875.494	22303
875.623	22405
875.751	22219
875.88	22344
876.008	22363
876.136	22508
876.265	22797
876.393	22786
876.521	22896
876.65	22820
876.778	22729
876.906	22641
877.034	22504
877.162	22615
877.29	22421
877.418	22637
877.546	22763
877.674	22615
877.802	22668
877.93	22573
878.058	22531
878.185	22546
878.313	22508
878.441	22672
878.568	22538
878.696	22580
878.824	22744
878.951	22740
879.079	22713
879.206	22934
879.333	22862
879.461	22717
879.588	22820
879.715	22786
879.842	22927
879.97	22820
880.097	22424
880.224	22440
880.351	22512
880.478	22394
880.605	22367
880.732	22432
880.859	22630
880.986	22508
881.112	22440
881.239	22333
881.366	22249
881.493	22242
881.619	22013
881.746	22010
881.872	21922
881.999	22021
882.125	22078
882.252	22116
882.378	21975
882.505	22090
882.631	21987
882.757	21762
882.883	21835
883.01	21690
883.136	21903
883.262	21694
883.388	21507
883.514	21736
883.64	21793
883.766	21553
883.892	21591
884.018	21439
884.143	21679
884.269	21808
884.395	21477
884.52	21393
884.646	21332
884.772	21245
884.897	21230
885.023	21359
885.148	21496
885.274	21542
885.399	21511
885.524	21389
885.65	21321
885.775	21405
885.9	21249
886.025	21447
886.15	21473
886.275	21370
886.4	21313
886.525	21321
886.65	21287
886.775	21329
886.9	21481
887.025	21515
887.149	21355
887.274	21169
887.399	21173
887.523	21093
887.648	21051
887.773	21024
887.897	21207
888.021	21142
888.146	21192
888.27	21108
888.395	21241
888.519	21104
888.643	21074
888.767	21100
888.891	20956
889.015	20864
889.139	21055
889.263	20929
889.387	20937
889.511	21131
889.635	21009
889.759	20811
889.883	20838
890.006	20925
890.13	21058
890.254	20868
890.377	20735
890.501	20655
890.624	20682
890.748	20701
890.871	20518
890.995	20499
891.118	20389
891.241	20590
891.364	20499
891.488	20678
891.611	20560
891.734	20427
891.857	20530
891.98	20507
892.103	20587
892.226	20511
892.349	20423
892.471	20332
892.594	20438
892.717	20488
892.839	20336
892.962	20469
893.085	20336
893.207	20404
893.33	20282
893.452	20294
893.575	20427
893.697	20332
893.819	20568
893.941	20644
894.064	20625
894.186	20267
894.308	20237
894.43	20598
894.552	20636
894.674	20434
894.796	20157
894.918	20343
895.04	20351
895.161	20511
895.283	20469
895.405	20240
895.526	20370
895.648	20427
895.769	20427
895.891	20404
896.012	20507
896.134	20396
896.255	20419
896.376	20237
896.498	20317
896.619	20511
896.74	20400
896.861	20393
896.982	20697
897.103	21017
897.224	20708
897.345	20568
897.466	20644
897.587	20594
897.708	20788
897.828	20678
897.949	20568
898.07	20488
898.19	20773
898.311	20705
898.431	20541
898.552	20545
898.672	20583
898.792	20655
898.913	20583
899.033	20408
899.153	20503
899.273	20286
899.393	20366
899.513	20358
899.633	20328
899.753	20317
899.873	20195
899.993	20278
900.113	20298
900.232	20275
900.352	20271
900.472	20263
900.591	20126
900.711	20111
900.83	20092
900.95	20073
901.069	20275
901.189	19944
901.308	19731
901.427	19715
901.546	19757
901.665	19643
901.784	19734
901.904	19537
902.023	19457
902.141	19209
902.26	19339
902.379	19285
902.498	19206
902.617	19183
902.735	19225
902.854	19099
902.973	19175
903.091	18875
903.21	18825
903.328	18825
903.446	18776
903.565	18700
903.683	18791
903.801	18639
903.919	18681
904.038	18563
904.156	18391
904.274	18551
904.392	18338
904.51	18464
904.627	18426
904.745	18422
904.863	18464
904.981	18224
905.098	18182
905.216	18152
905.334	18152
905.451	18136
905.569	18045
905.686	18171
905.803	18148
905.921	17889
906.038	17878
906.155	17923
906.272	17908
906.389	17805
906.506	17649
906.623	17623
906.74	17562
906.857	17577
906.974	17566
907.091	17653
907.208	17646
907.324	17570
907.441	17611
907.557	17459
907.674	17315
907.79	17318
907.907	17334
908.023	17345
908.139	17307
908.256	17235
908.372	17189
908.488	17242
908.604	17022
908.72	17064
908.836	17029
908.952	17045
909.068	17174
909.184	17178
909.3	17128
909.415	17147
909.531	17045
909.647	16946
909.762	16759
909.878	16702
909.993	16713
910.108	16835
910.224	16687
910.339	16824
910.454	16675
910.57	16577
910.685	16542
910.8	16702
910.915	16717
911.03	16615
911.145	16428
911.259	16382
911.374	16375
911.489	16344
911.604	16215
911.718	16082
911.833	16166
911.947	16013
912.062	16002
912.176	16097
912.291	16143
912.405	16135
912.519	16242
912.633	16333
912.748	16192
912.862	16055
912.976	16013
913.09	15743
913.204	15994
913.318	15899
913.431	16048
913.545	16017
913.659	16040
913.772	15899
913.886	15747
914	15705
914.113	15781
914.226	15869
914.34	15747
914.453	15618
914.566	15812
914.68	15633
914.793	15591
914.906	15488
915.019	15370
915.132	15287
915.245	15393
915.358	15351
915.47	15325
915.583	15321
915.696	15283
915.809	15370
915.921	15504
916.034	15397
916.146	15230
916.259	15142
916.371	15363
916.483	15302
916.595	15131
916.708	15192
916.82	15237
916.932	15066
917.044	15055
917.156	15081
917.268	14956
917.38	15028
917.491	15020
917.603	15017
917.715	15005
917.826	14998
917.938	14918
918.049	14781
918.161	15032
918.272	15104
918.384	15032
918.495	14937
918.606	14670
918.717	14708
918.828	14773
918.939	14769
919.05	14705
919.161	14750
919.272	14514
919.383	14686
919.494	14815
919.604	14979
919.715	14701
919.826	14625
919.936	14697
920.047	14724
920.157	14644
920.267	14880
920.378	14758
920.488	14594
920.598	14849
920.708	14944
920.818	14887
920.928	14899
921.038	15100
921.148	14998
921.258	14629
921.368	14594
921.477	14427
921.587	14343
921.697	14332
921.806	14427
921.916	14248
922.025	14081
922.134	14111
922.244	14024
922.353	14157
922.462	13868
922.571	13974
922.68	13788
922.789	13674
922.898	13696
923.007	13689
923.116	13727
923.224	13674
923.333	13605
923.442	13540
923.55	13502
923.659	13605
923.767	13559
923.876	13468
923.984	13544
924.092	13438
924.201	13533
924.309	13403
924.417	13422
924.525	13301
924.633	13419
924.741	14244
924.849	13175
924.956	13270
925.064	13160
925.172	13050
925.279	13084
925.387	13263
925.494	13133
925.602	13206
925.709	13145
925.816	13034
925.924	13012
926.031	13160
926.138	13046
926.245	13065
926.352	12928
926.459	13023
926.566	13206
926.673	13076
926.779	12837
926.886	12871
926.993	12757
927.099	12757
927.206	12597
927.312	12703
927.419	12707
927.525	12658
927.631	12707
927.737	12608
927.843	12570
927.95	12464
928.056	12483
928.162	12448
928.267	12551
928.373	13221
928.479	12604
928.585	12308
928.69	12365
928.796	12517
928.901	12361
929.007	12148
929.112	12388
929.218	12300
929.323	12243
929.428	12216
929.533	12296
929.638	12106
929.743	12114
929.848	12228
929.953	12136
930.058	12064
930.163	11889
930.267	11817
930.372	11969
930.477	11870
930.581	12114
930.685	11988
930.79	11802
930.894	11851
930.998	11756
931.103	11908
931.207	11570
931.311	11429
931.415	11482
931.519	11330
931.623	11208
