Data from test_V78500241_2306.txt Node
Date: Fri Mar 25 15:57:46 CST 2022
User: usil
Spectrometer: V785-0024
Trigger mode: 0
Integration Time (sec): 4.000000E-1
Scans to average: 1
Nonlinearity correction enabled: false
Boxcar width: 0
Storing dark spectrum: false
XAxis mode: Wavelengths
Number of Pixels in Spectrum: 1024
>>>>>Begin Spectral Data<<<<<
801.071	29083
801.214	28961
801.356	28831
801.499	28816
801.641	28698
801.783	28531
801.926	28653
802.068	28645
802.211	28546
802.353	28447
802.496	28421
802.638	28379
802.78	28238
802.923	28272
803.065	28139
803.208	28223
803.35	28246
803.492	28470
803.635	28428
803.777	28440
803.919	28481
804.061	28930
804.204	28577
804.346	28485
804.488	28615
804.63	28584
804.773	28618
804.915	28455
805.057	28577
805.199	28573
805.341	28675
805.483	28748
805.626	28740
805.768	28672
805.91	28702
806.052	28713
806.194	28637
806.336	28854
806.478	28786
806.62	28816
806.762	28843
806.904	28968
807.046	29315
807.188	29064
807.33	29208
807.472	29231
807.614	28984
807.756	29178
807.898	29079
808.04	28976
808.182	28984
808.324	29216
808.465	29037
808.607	29292
808.749	29375
808.891	29444
809.033	29710
809.174	29444
809.316	29337
809.458	29478
809.6	29387
809.741	29608
809.883	29551
810.025	29665
810.166	29539
810.308	29680
810.45	29699
810.591	29657
810.733	29486
810.875	29436
811.016	29303
811.158	29356
811.299	29657
811.441	29528
811.582	29547
811.724	29360
811.865	29280
812.007	29383
812.148	29414
812.29	29471
812.431	29573
812.573	29786
812.714	29843
812.855	30022
812.997	30015
813.138	30106
813.279	30076
813.421	29946
813.562	29923
813.703	29866
813.845	29733
813.986	29410
814.127	29235
814.268	29109
814.41	29098
814.551	29014
814.692	29231
814.833	29189
814.974	29079
815.115	29318
815.256	29155
815.397	29029
815.539	29044
815.68	28847
815.821	28957
815.962	28976
816.103	28991
816.244	28885
816.385	28828
816.526	28656
816.666	28580
816.807	28436
816.948	28565
817.089	28611
817.23	28470
817.371	28386
817.512	28401
817.653	28451
817.793	28504
817.934	28451
818.075	28626
818.216	28436
818.356	28485
818.497	28249
818.638	28211
818.778	28329
818.919	28185
819.06	28226
819.2	28424
819.341	28432
819.481	28535
819.622	28672
819.762	28892
819.903	28706
820.043	28702
820.184	28729
820.324	28493
820.465	28721
820.605	28519
820.746	28584
820.886	28352
821.026	28474
821.167	28432
821.307	28733
821.447	28611
821.588	28371
821.728	28299
821.868	28272
822.008	28055
822.149	28032
822.289	28078
822.429	27663
822.569	27622
822.709	27591
822.849	27557
822.99	27435
823.13	27538
823.27	27515
823.41	27279
823.55	27325
823.69	27416
823.83	27260
823.97	27283
824.11	27150
824.25	27013
824.389	27169
824.529	27256
824.669	27268
824.809	27283
824.949	27138
825.089	27226
825.228	27127
825.368	26971
825.508	26899
825.648	27047
825.787	27142
825.927	27039
826.067	27127
826.206	27108
826.346	27100
826.485	27005
826.625	26944
826.765	27070
826.904	27077
827.044	26849
827.183	26746
827.323	26750
827.462	26746
827.601	26705
827.741	26826
827.88	26838
828.02	26625
828.159	26629
828.298	26674
828.437	26788
828.577	26655
828.716	26861
828.855	26613
828.994	26358
829.134	26396
829.273	26385
829.412	26385
829.551	26366
829.69	26594
829.829	26396
829.968	26514
830.107	26434
830.246	26343
830.385	26560
830.524	26161
830.663	26298
830.802	26187
830.941	26115
831.08	26012
831.219	26244
831.357	26043
831.496	26263
831.635	26077
831.774	25898
831.913	25864
832.051	25784
832.19	25780
832.329	25883
832.467	25681
832.606	25514
832.744	25662
832.883	25540
833.022	25696
833.16	25658
833.299	25666
833.437	25586
833.576	25750
833.714	25723
833.852	25708
833.991	25723
834.129	25883
834.267	25753
834.406	25791
834.544	25795
834.682	25849
834.821	25776
834.959	26031
835.097	25685
835.235	25814
835.373	25677
835.511	25643
835.65	25666
835.788	25696
835.926	25445
836.064	25297
836.202	25449
836.34	25457
836.478	25639
836.615	25544
836.753	25548
836.891	25586
837.029	25582
837.167	25537
837.305	25533
837.443	25381
837.58	25381
837.718	25445
837.856	25392
837.993	25270
838.131	25365
838.269	25228
838.406	25221
838.544	25320
838.681	25050
838.819	25023
838.956	24932
839.094	24973
839.231	24863
839.369	25076
839.506	25289
839.643	25080
839.781	24939
839.918	24852
840.055	24787
840.193	24684
840.33	24681
840.467	24814
840.604	24783
840.742	24970
840.879	24741
841.016	24741
841.153	24684
841.29	24821
841.427	24608
841.564	24734
841.701	24795
841.838	24601
841.975	24711
842.112	24776
842.249	24654
842.385	24486
842.522	24711
842.659	24593
842.796	24445
842.933	24563
843.069	24513
843.206	24475
843.343	24612
843.479	24608
843.616	24521
843.752	24266
843.889	24346
844.025	24498
844.162	24266
844.298	24429
844.435	24289
844.571	24239
844.708	24319
844.844	24433
844.98	24517
845.117	24338
845.253	24190
845.389	24091
845.525	24159
845.661	24190
845.798	23874
845.934	23996
846.07	24064
846.206	24064
846.342	24060
846.478	23980
846.614	23859
846.75	23718
846.886	23771
847.022	23885
847.158	23695
847.294	23771
847.429	23813
847.565	23661
847.701	23969
847.837	23547
847.972	23482
848.108	23615
848.244	23646
848.379	23452
848.515	23303
848.65	23155
848.786	23334
848.921	23318
849.057	23376
849.192	23471
849.328	23337
849.463	23326
849.598	23246
849.734	23185
849.869	23212
850.004	23113
850.14	23109
850.275	23098
850.41	22892
850.545	23006
850.68	23090
850.815	23102
850.95	23071
851.085	23136
851.22	23136
851.355	23037
851.49	23170
851.625	23102
851.76	23006
851.895	22965
852.03	23102
852.165	23090
852.299	23136
852.434	23064
852.569	23029
852.703	23075
852.838	23121
852.973	23113
853.107	23094
853.242	23037
853.376	22797
853.511	22713
853.645	22896
853.78	22923
853.914	22946
854.048	22957
854.183	22847
854.317	22850
854.451	22927
854.585	23029
854.72	22885
854.854	22953
854.988	22828
855.122	22919
855.256	22717
855.39	22683
855.524	22999
855.658	22984
855.792	22866
855.926	23003
856.06	22892
856.194	22927
856.327	22904
856.461	22782
856.595	22778
856.729	22725
856.862	22885
856.996	22892
857.13	22980
857.263	23113
857.397	22984
857.53	22911
857.664	22934
857.797	22900
857.931	23010
858.064	22915
858.197	23041
858.331	22900
858.464	22885
858.597	22736
858.731	22911
858.864	22797
858.997	22866
859.13	22881
859.263	22965
859.396	23025
859.529	22896
859.662	23025
859.795	22831
859.928	22946
860.061	22942
860.194	22976
860.327	22938
860.46	22938
860.592	22942
860.725	23037
860.858	23041
860.99	22896
861.123	22809
861.256	22854
861.388	22850
861.521	23611
861.653	22740
861.786	22607
861.918	22672
862.05	22759
862.183	22862
862.315	22771
862.447	22839
862.58	22820
862.712	22497
862.844	22512
862.976	22782
863.108	22679
863.24	23044
863.372	22523
863.504	22710
863.636	22660
863.768	22672
863.9	22717
864.032	22481
864.164	22523
864.296	22531
864.428	22744
864.559	22584
864.691	22634
864.823	22527
864.954	22527
865.086	22504
865.217	22443
865.349	22413
865.48	22421
865.612	22489
865.743	22546
865.875	22470
866.006	22291
866.137	22538
866.269	22546
866.4	22363
866.531	22398
866.662	22504
866.793	22356
866.924	22352
867.055	22516
867.186	22470
867.317	22352
867.448	22325
867.579	22242
867.71	22276
867.841	22257
867.972	22344
868.103	22398
868.233	22280
868.364	22386
868.495	22497
868.625	22531
868.756	22835
868.886	22554
869.017	22641
869.147	22679
869.278	22668
869.408	22577
869.539	22634
869.669	22797
869.799	22759
869.929	22740
870.06	22733
870.19	22915
870.32	22828
870.45	22908
870.58	23064
870.71	23151
870.84	23132
870.97	23090
871.1	22946
871.23	23242
871.36	23242
871.489	23105
871.619	23181
871.749	23193
871.879	23128
872.008	23227
872.138	23193
872.267	23197
872.397	23117
872.526	23060
872.656	23086
872.785	23102
872.915	23178
873.044	23239
873.173	23250
873.303	23280
873.432	23315
873.561	23326
873.69	23086
873.819	23174
873.948	23231
874.077	23311
874.206	23326
874.335	23212
874.464	23372
874.593	23417
874.722	23307
874.851	23383
874.979	23440
875.108	23455
875.237	23452
875.365	23349
875.494	23307
875.623	23505
875.751	23429
875.88	23505
876.008	23429
876.136	23634
876.265	23714
876.393	23992
876.521	23745
876.65	23798
876.778	23714
876.906	23798
877.034	23805
877.162	23733
877.29	23798
877.418	23722
877.546	23764
877.674	23824
877.802	23745
877.93	23897
878.058	23783
878.185	23805
878.313	23672
878.441	23729
878.568	23570
878.696	23836
878.824	23832
878.951	23889
879.079	24038
879.206	24060
879.333	23973
879.461	23889
879.588	23923
879.715	23958
879.842	24026
879.97	23863
880.097	23592
880.224	23718
880.351	23653
880.478	23547
880.605	23497
880.732	23440
880.859	23920
880.986	23509
881.112	23710
881.239	23459
881.366	23296
881.493	23277
881.619	23269
881.746	23227
881.872	23189
881.999	23189
882.125	23200
882.252	23269
882.378	23090
882.505	23239
882.631	23025
882.757	22873
882.883	23025
883.01	22999
883.136	22881
883.262	22679
883.388	22649
883.514	22828
883.64	22987
883.766	22797
883.892	22546
884.018	22615
884.143	22664
884.269	22771
884.395	22489
884.52	22371
884.646	22508
884.772	22371
884.897	22409
885.023	22382
885.148	22542
885.274	22672
885.399	22592
885.524	22390
885.65	22440
885.775	22557
885.9	22504
886.025	22474
886.15	22489
886.275	22405
886.4	22299
886.525	22356
886.65	22470
886.775	22394
886.9	22580
887.025	22584
887.149	22493
887.274	22150
887.399	22097
887.523	22147
887.648	22196
887.773	22074
887.897	22230
888.021	22223
888.146	22230
888.27	22268
888.395	22261
888.519	22287
888.643	22192
888.767	22287
888.891	22215
889.015	22059
889.139	22067
889.263	22078
889.387	21998
889.511	22219
889.635	22025
889.759	21903
889.883	21880
890.006	22036
890.13	21987
890.254	21857
890.377	21945
890.501	21755
890.624	21679
890.748	21694
890.871	21785
890.995	21534
891.118	21424
891.241	21576
891.364	21431
891.488	21724
891.611	21568
891.734	21473
891.857	21553
891.98	21515
892.103	21545
892.226	21492
892.349	21523
892.471	21386
892.594	21367
892.717	21530
892.839	21557
892.962	21408
893.085	21473
893.207	21310
893.33	21268
893.452	21439
893.575	21481
893.697	21359
893.819	21492
893.941	21667
894.064	21526
894.186	21424
894.308	21344
894.43	21587
894.552	21553
894.674	21431
894.796	21351
894.918	21329
895.04	21393
895.161	21439
895.283	21557
895.405	21279
895.526	21389
895.648	21359
895.769	21450
895.891	21310
896.012	21496
896.134	21488
896.255	21420
896.376	21283
896.498	21378
896.619	21393
896.74	21447
896.861	21412
896.982	21652
897.103	21934
897.224	21690
897.345	21580
897.466	21564
897.587	21705
897.708	21797
897.828	21553
897.949	21469
898.07	21454
898.19	21481
898.311	21629
898.431	21591
898.552	21549
898.672	21633
898.792	21587
898.913	21629
899.033	21416
899.153	21405
899.273	21329
899.393	21458
899.513	21332
899.633	21386
899.753	21329
899.873	21283
899.993	21393
900.113	21176
900.232	21211
900.352	21165
900.472	21036
900.591	21074
900.711	21116
900.83	21047
900.95	21173
901.069	21093
901.189	20887
901.308	20792
901.427	20636
901.546	20640
901.665	20629
901.784	20609
901.904	20522
902.023	20476
902.141	20103
902.26	20275
902.379	20332
902.498	20084
902.617	20111
902.735	20183
902.854	20043
902.973	20016
903.091	19814
903.21	19727
903.328	19761
903.446	19632
903.565	19502
903.683	19533
903.801	19449
903.919	19578
904.038	19544
904.156	19396
904.274	19339
904.392	19312
904.51	19316
904.627	19282
904.745	19377
904.863	19422
904.981	19129
905.098	19122
905.216	19080
905.334	19065
905.451	19057
905.569	19057
905.686	19000
905.803	19038
905.921	18935
906.038	18993
906.155	18817
906.272	18608
906.389	18669
906.506	18555
906.623	18620
906.74	18582
906.857	18544
906.974	18357
907.091	18540
907.208	18620
907.324	18502
907.441	18433
907.557	18205
907.674	18194
907.79	18273
907.907	18136
908.023	18155
908.139	18186
908.256	18110
908.372	18129
908.488	18057
908.604	18034
908.72	17973
908.836	17942
908.952	18041
909.068	17916
909.184	18045
909.3	17958
909.415	18079
909.531	17901
909.647	17695
909.762	17611
909.878	17566
909.993	17699
910.108	17516
910.224	17535
910.339	17615
910.454	17433
910.57	17391
910.685	17471
910.8	17573
910.915	17543
911.03	17311
911.145	17200
911.259	17216
911.374	17250
911.489	17128
911.604	17132
911.718	16915
911.833	16995
911.947	16881
912.062	16862
912.176	16904
912.291	16904
912.405	16885
912.519	17022
912.633	17132
912.748	16915
912.862	16999
912.976	16786
913.09	16729
913.204	16649
913.318	16805
913.431	16896
913.545	16839
913.659	16923
913.772	16774
913.886	16542
914	16493
914.113	16653
914.226	16664
914.34	16588
914.453	16459
914.566	16558
914.68	16322
914.793	16424
914.906	16257
915.019	16173
915.132	15960
915.245	16143
915.358	16120
915.47	16211
915.583	16093
915.696	16116
915.809	16287
915.921	16249
916.034	16063
916.146	15968
916.259	15880
916.371	16124
916.483	15956
916.595	16002
916.708	16006
916.82	15880
916.932	15945
917.044	15854
917.156	15854
917.268	15759
917.38	15713
917.491	15633
917.603	15770
917.715	15846
917.826	15793
917.938	15720
918.049	15629
918.161	15625
918.272	15831
918.384	15785
918.495	15587
918.606	15523
918.717	15420
918.828	15473
918.939	15462
919.05	15408
919.161	15485
919.272	15245
919.383	15302
919.494	15507
919.604	15625
919.715	15542
919.826	15367
919.936	15481
920.047	15519
920.157	15431
920.267	15526
920.378	15397
920.488	15401
920.598	15580
920.708	15686
920.818	15545
920.928	15534
921.038	15641
921.148	15694
921.258	15332
921.368	15321
921.477	15119
921.587	15104
921.697	14990
921.806	15146
921.916	14925
922.025	14868
922.134	14777
922.244	14724
922.353	14743
922.462	14621
922.571	14537
922.68	14457
922.789	14442
922.898	14355
923.007	14317
923.116	14419
923.224	14400
923.333	14351
923.442	14282
923.55	14290
923.659	14214
923.767	14229
923.876	14187
923.984	14267
924.092	14126
924.201	14088
924.309	14081
924.417	14123
924.525	13989
924.633	14084
924.741	14918
924.849	13849
924.956	14016
925.064	13795
925.172	13670
925.279	13757
925.387	13704
925.494	13791
925.602	13807
925.709	13753
925.816	13605
925.924	13753
926.031	13761
926.138	13780
926.245	13700
926.352	13613
926.459	13746
926.566	13715
926.673	13632
926.779	13506
926.886	13381
926.993	13346
927.099	13301
927.206	13289
927.312	13232
927.419	13377
927.525	13358
927.631	13419
927.737	13194
927.843	13171
927.95	12973
928.056	13129
928.162	13133
928.267	13168
928.373	13780
928.479	13228
928.585	12829
928.69	13103
928.796	13095
928.901	12954
929.007	12840
929.112	12935
929.218	12962
929.323	12897
929.428	12817
929.533	12905
929.638	12764
929.743	12715
929.848	12837
929.953	12802
930.058	12593
930.163	12513
930.267	12471
930.372	12608
930.477	12372
930.581	12703
930.685	12498
930.79	12327
930.894	12441
930.998	12372
931.103	12384
931.207	12079
931.311	12026
931.415	11889
931.519	11737
931.623	11680
