Data from test_V78500241_1699.txt Node
Date: Fri Mar 25 15:53:34 CST 2022
User: usil
Spectrometer: V785-0024
Trigger mode: 0
Integration Time (sec): 4.000000E-1
Scans to average: 1
Nonlinearity correction enabled: false
Boxcar width: 0
Storing dark spectrum: false
XAxis mode: Wavelengths
Number of Pixels in Spectrum: 1024
>>>>>Begin Spectral Data<<<<<
801.071	28226
801.214	27975
801.356	27816
801.499	27736
801.641	27648
801.783	27686
801.926	27835
802.068	27667
802.211	27564
802.353	27526
802.496	27336
802.638	27294
802.78	27283
802.923	27184
803.065	27260
803.208	27272
803.35	27416
803.492	27469
803.635	27663
803.777	27367
803.919	27481
804.061	27884
804.204	27633
804.346	27618
804.488	27606
804.63	27496
804.773	27469
804.915	27542
805.057	27705
805.199	27660
805.341	27797
805.483	27705
805.626	27637
805.768	27568
805.91	27732
806.052	27694
806.194	27679
806.336	27865
806.478	27717
806.62	27720
806.762	27648
806.904	28059
807.046	28257
807.188	28036
807.33	28101
807.472	28166
807.614	28017
807.756	28078
807.898	28036
808.04	28010
808.182	27911
808.324	27842
808.465	28002
808.607	28230
808.749	28390
808.891	28379
809.033	28478
809.174	28409
809.316	28272
809.458	28310
809.6	28322
809.741	28398
809.883	28519
810.025	28538
810.166	28573
810.308	28531
810.45	28500
810.591	28466
810.733	28462
810.875	28219
811.016	28280
811.158	28261
811.299	28455
811.441	28421
811.582	28519
811.724	28363
811.865	28333
812.007	28325
812.148	28207
812.29	28310
812.431	28557
812.573	28535
812.714	28801
812.855	28782
812.997	28991
813.138	29014
813.279	29048
813.421	28869
813.562	28805
813.703	28588
813.845	28535
813.986	28352
814.127	28131
814.268	28021
814.41	28040
814.551	27979
814.692	28109
814.833	27987
814.974	27979
815.115	28040
815.256	27770
815.397	27911
815.539	27823
815.68	27808
815.821	27739
815.962	27751
816.103	27781
816.244	27701
816.385	27694
816.526	27610
816.666	27466
816.807	27226
816.948	27458
817.089	27450
817.23	27294
817.371	27233
817.512	27302
817.653	27195
817.793	27332
817.934	27336
818.075	27291
818.216	27298
818.356	27313
818.497	27127
818.638	27062
818.778	26925
818.919	26960
819.06	27066
819.2	27260
819.341	27370
819.481	27127
819.622	27450
819.762	27698
819.903	27462
820.043	27599
820.184	27477
820.324	27416
820.465	27507
820.605	27408
820.746	27427
820.886	27283
821.026	27431
821.167	27317
821.307	27393
821.447	27325
821.588	27264
821.728	27085
821.868	26944
822.008	26777
822.149	26845
822.289	26788
822.429	26689
822.569	26381
822.709	26427
822.849	26377
822.99	26275
823.13	26267
823.27	26290
823.41	26195
823.55	26081
823.69	26206
823.83	26054
823.97	26001
824.11	25951
824.25	25826
824.389	25799
824.529	25944
824.669	25974
824.809	26008
824.949	25993
825.089	26008
825.228	25928
825.368	25814
825.508	25765
825.648	25898
825.787	25845
825.927	25772
826.067	25856
826.206	25837
826.346	25845
826.485	25849
826.625	25734
826.765	25917
826.904	25807
827.044	25582
827.183	25586
827.323	25384
827.462	25552
827.601	25464
827.741	25529
827.88	25514
828.02	25441
828.159	25552
828.298	25575
828.437	25563
828.577	25483
828.716	25620
828.855	25377
828.994	25190
829.134	25312
829.273	25213
829.412	25133
829.551	25183
829.69	25278
829.829	25213
829.968	25312
830.107	25232
830.246	25198
830.385	25168
830.524	25038
830.663	24973
830.802	24916
830.941	24749
831.08	24802
831.219	24802
831.357	24924
831.496	25038
831.635	24871
831.774	24684
831.913	24798
832.051	24593
832.19	24555
832.329	24635
832.467	24498
832.606	24441
832.744	24384
832.883	24429
833.022	24505
833.16	24544
833.299	24456
833.437	24429
833.576	24593
833.714	24570
833.852	24681
833.991	24593
834.129	24540
834.267	24722
834.406	24563
834.544	24608
834.682	24532
834.821	24551
834.959	24768
835.097	24505
835.235	24505
835.373	24540
835.511	24486
835.65	24429
835.788	24357
835.926	24235
836.064	24129
836.202	24216
836.34	24372
836.478	24414
836.615	24308
836.753	24448
836.891	24418
837.029	24380
837.167	24369
837.305	24315
837.443	24159
837.58	24235
837.718	24319
837.856	24155
837.993	24163
838.131	24205
838.269	24155
838.406	24152
838.544	24072
838.681	23760
838.819	23779
838.956	23657
839.094	23733
839.231	23748
839.369	23805
839.506	24171
839.643	23843
839.781	23562
839.918	23638
840.055	23737
840.193	23581
840.33	23676
840.467	23600
840.604	23551
840.742	23813
840.879	23414
841.016	23467
841.153	23455
841.29	23615
841.427	23695
841.564	23634
841.701	23665
841.838	23436
841.975	23448
842.112	23558
842.249	23372
842.385	23345
842.522	23573
842.659	23356
842.796	23356
842.933	23250
843.069	23128
843.206	23299
843.343	23395
843.479	23216
843.616	23296
843.752	23208
843.889	23140
844.025	23140
844.162	23121
844.298	23200
844.435	23075
844.571	23052
844.708	23140
844.844	23140
844.98	23296
845.117	23231
845.253	22980
845.389	23056
845.525	23037
845.661	22828
845.798	22782
845.934	22843
846.07	22858
846.206	22873
846.342	22934
846.478	22904
846.614	22626
846.75	22497
846.886	22584
847.022	22577
847.158	22615
847.294	22599
847.429	22615
847.565	22637
847.701	22790
847.837	22375
847.972	22257
848.108	22356
848.244	22375
848.379	22120
848.515	22128
848.65	22150
848.786	22154
848.921	22128
849.057	22280
849.192	22223
849.328	22154
849.463	22192
849.598	22040
849.734	21960
849.869	22188
850.004	21953
850.14	22017
850.275	21846
850.41	21979
850.545	21873
850.68	21812
850.815	21956
850.95	21975
851.085	22124
851.22	22059
851.355	21998
851.49	21911
851.625	21975
851.76	21888
851.895	21994
852.03	21838
852.165	21972
852.299	21915
852.434	22006
852.569	22055
852.703	21892
852.838	21972
852.973	21987
853.107	22131
853.242	21865
853.376	21728
853.511	21587
853.645	21800
853.78	21941
853.914	21770
854.048	21637
854.183	21850
854.317	21785
854.451	21953
854.585	21747
854.72	21789
854.854	21766
854.988	21739
855.122	21747
855.256	21557
855.39	21762
855.524	21861
855.658	21755
855.792	21739
855.926	21732
856.06	21857
856.194	21778
856.327	21667
856.461	21781
856.595	21797
856.729	21705
856.862	21937
856.996	21751
857.13	21823
857.263	21831
857.397	21690
857.53	21762
857.664	21739
857.797	21937
857.931	21937
858.064	21770
858.197	21907
858.331	21694
858.464	21652
858.597	21587
858.731	21720
858.864	21660
858.997	21720
859.13	21751
859.263	21827
859.396	21884
859.529	21717
859.662	21667
859.795	21732
859.928	21770
860.061	21926
860.194	21880
860.327	21899
860.46	21831
860.592	21854
860.725	21743
860.858	21850
860.99	21911
861.123	21610
861.256	21739
861.388	21724
861.521	22424
861.653	21591
861.786	21466
861.918	21507
862.05	21629
862.183	21732
862.315	21633
862.447	21774
862.58	21576
862.712	21466
862.844	21428
862.976	21500
863.108	21500
863.24	22032
863.372	21462
863.504	21538
863.636	21416
863.768	21405
863.9	21557
864.032	21401
864.164	21359
864.296	21599
864.428	21553
864.559	21561
864.691	21481
864.823	21511
864.954	21466
865.086	21374
865.217	21340
865.349	21298
865.48	21256
865.612	21294
865.743	21511
865.875	21408
866.006	21329
866.137	21412
866.269	21241
866.4	21306
866.531	21294
866.662	21093
866.793	21340
866.924	21332
867.055	21351
867.186	21241
867.317	21222
867.448	21230
867.579	21119
867.71	21252
867.841	21192
867.972	21241
868.103	21287
868.233	21306
868.364	21287
868.495	21485
868.625	21515
868.756	21564
868.886	21447
869.017	21454
869.147	21671
869.278	21663
869.408	21408
869.539	21576
869.669	21534
869.799	21477
869.929	21553
870.06	21682
870.19	21793
870.32	21785
870.45	21812
870.58	21838
870.71	21972
870.84	21930
870.97	21850
871.1	21937
871.23	22021
871.36	22135
871.489	22021
871.619	22093
871.749	22010
871.879	22139
872.008	22188
872.138	22173
872.267	22109
872.397	21960
872.526	22021
872.656	21945
872.785	21983
872.915	22109
873.044	22246
873.173	22185
873.303	22112
873.432	22219
873.561	22147
873.69	22166
873.819	22093
873.948	22131
874.077	22105
874.206	22101
874.335	22070
874.464	22200
874.593	22303
874.722	22405
874.851	22280
874.979	22432
875.108	22322
875.237	22379
875.365	22253
875.494	22337
875.623	22379
875.751	22314
875.88	22348
876.008	22428
876.136	22478
876.265	22721
876.393	22866
876.521	22805
876.65	22672
876.778	22683
876.906	22717
877.034	22645
877.162	22637
877.29	22599
877.418	22744
877.546	22771
877.674	22630
877.802	22691
877.93	22664
878.058	22603
878.185	22588
878.313	22569
878.441	22721
878.568	22493
878.696	22618
878.824	22767
878.951	22778
879.079	22828
879.206	23044
879.333	22908
879.461	22687
879.588	22797
879.715	22949
879.842	22900
879.97	22748
880.097	22588
880.224	22481
880.351	22565
880.478	22497
880.605	22489
880.732	22504
880.859	22630
880.986	22557
881.112	22538
881.239	22405
881.366	22299
881.493	22173
881.619	22086
881.746	22040
881.872	22158
881.999	22048
882.125	21960
882.252	22147
882.378	22093
882.505	22242
882.631	21865
882.757	21755
882.883	21903
883.01	21816
883.136	21656
883.262	21633
883.388	21587
883.514	21808
883.64	21930
883.766	21682
883.892	21492
884.018	21542
884.143	21690
884.269	21869
884.395	21420
884.52	21310
884.646	21469
884.772	21264
884.897	21344
885.023	21424
885.148	21603
885.274	21694
885.399	21511
885.524	21363
885.65	21386
885.775	21416
885.9	21313
886.025	21580
886.15	21435
886.275	21237
886.4	21382
886.525	21230
886.65	21317
886.775	21378
886.9	21504
887.025	21568
887.149	21431
887.274	21291
887.399	21157
887.523	21173
887.648	21188
887.773	21036
887.897	21199
888.021	21298
888.146	21188
888.27	21329
888.395	21211
888.519	21188
888.643	21119
888.767	21245
888.891	21165
889.015	20979
889.139	21062
889.263	21001
889.387	20967
889.511	21207
889.635	21135
889.759	20868
889.883	20921
890.006	20990
890.13	21108
890.254	20876
890.377	20838
890.501	20727
890.624	20758
890.748	20765
890.871	20632
890.995	20484
891.118	20613
891.241	20621
891.364	20636
891.488	20800
891.611	20613
891.734	20526
891.857	20594
891.98	20495
892.103	20579
892.226	20518
892.349	20514
892.471	20351
892.594	20522
892.717	20438
892.839	20571
892.962	20389
893.085	20511
893.207	20511
893.33	20282
893.452	20404
893.575	20465
893.697	20362
893.819	20632
893.941	20571
894.064	20522
894.186	20374
894.308	20275
894.43	20488
894.552	20533
894.674	20571
894.796	20317
894.918	20404
895.04	20343
895.161	20503
895.283	20473
895.405	20317
895.526	20419
895.648	20351
895.769	20457
895.891	20438
896.012	20632
896.134	20571
896.255	20571
896.376	20324
896.498	20408
896.619	20621
896.74	20438
896.861	20438
896.982	20727
897.103	20807
897.224	20670
897.345	20617
897.466	20446
897.587	20644
897.708	20815
897.828	20792
897.949	20659
898.07	20480
898.19	20602
898.311	20819
898.431	20461
898.552	20670
898.672	20682
898.792	20735
898.913	20712
899.033	20674
899.153	20431
899.273	20309
899.393	20389
899.513	20427
899.633	20355
899.753	20457
899.873	20351
899.993	20339
900.113	20370
900.232	20381
900.352	20442
900.472	20206
900.591	20161
900.711	20278
900.83	20100
900.95	20187
901.069	20282
901.189	19989
901.308	19875
901.427	19795
901.546	19780
901.665	19704
901.784	19689
901.904	19559
902.023	19464
902.141	19312
902.26	19259
902.379	19384
902.498	19217
902.617	19240
902.735	19381
902.854	19209
902.973	19160
903.091	19019
903.21	18848
903.328	18943
903.446	18795
903.565	18658
903.683	18681
903.801	18486
903.919	18688
904.038	18639
904.156	18566
904.274	18555
904.392	18509
904.51	18467
904.627	18563
904.745	18486
904.863	18593
904.981	18357
905.098	18121
905.216	18129
905.334	18220
905.451	18220
905.569	18133
905.686	18079
905.803	18117
905.921	17885
906.038	18041
906.155	17927
906.272	17901
906.389	17878
906.506	17741
906.623	17722
906.74	17653
906.857	17535
906.974	17524
907.091	17684
907.208	17836
907.324	17661
907.441	17547
907.557	17379
907.674	17376
907.79	17296
907.907	17372
908.023	17524
908.139	17345
908.256	17326
908.372	17159
908.488	17246
908.604	17159
908.72	17067
908.836	17136
908.952	17041
909.068	17113
909.184	17200
909.3	17029
909.415	17033
909.531	17121
909.647	16847
909.762	16820
909.878	16854
909.993	16812
910.108	16793
910.224	16736
910.339	16778
910.454	16607
910.57	16637
910.685	16474
910.8	16869
910.915	16767
911.03	16626
911.145	16443
911.259	16394
911.374	16394
911.489	16379
911.604	16284
911.718	16090
911.833	16139
911.947	16112
912.062	16006
912.176	16131
912.291	16207
912.405	16128
912.519	16329
912.633	16390
912.748	16097
912.862	16059
912.976	15968
913.09	15998
913.204	15911
913.318	15994
913.431	16082
913.545	15926
913.659	16082
913.772	15915
913.886	15831
914	15774
914.113	15865
914.226	15899
914.34	15857
914.453	15671
914.566	15819
914.68	15652
914.793	15633
914.906	15481
915.019	15405
915.132	15264
915.245	15401
915.358	15401
915.47	15359
915.583	15359
915.696	15386
915.809	15443
915.921	15431
916.034	15325
916.146	15264
916.259	15195
916.371	15329
916.483	15272
916.595	15195
916.708	15203
916.82	15203
916.932	15146
917.044	15100
917.156	15214
917.268	15058
917.38	15001
917.491	14963
917.603	14990
917.715	15039
917.826	15157
917.938	14876
918.049	14838
918.161	14986
918.272	15058
918.384	15146
918.495	14952
918.606	14804
918.717	14697
918.828	14746
918.939	14708
919.05	14670
919.161	14716
919.272	14507
919.383	14583
919.494	14781
919.604	15039
919.715	14697
919.826	14693
919.936	14636
920.047	14739
920.157	14705
920.267	14902
920.378	14701
920.488	14613
920.598	14861
920.708	15013
920.818	14788
920.928	14830
921.038	15039
921.148	14975
921.258	14651
921.368	14640
921.477	14507
921.587	14362
921.697	14332
921.806	14492
921.916	14370
922.025	14187
922.134	14043
922.244	14096
922.353	14103
922.462	13967
922.571	13909
922.68	13784
922.789	13696
922.898	13681
923.007	13704
923.116	13791
923.224	13681
923.333	13712
923.442	13521
923.55	13453
923.659	13643
923.767	13658
923.876	13537
923.984	13510
924.092	13464
924.201	13487
924.309	13449
924.417	13457
924.525	13388
924.633	13369
924.741	14077
924.849	13198
924.956	13331
925.064	13198
925.172	13095
925.279	13084
925.387	13187
925.494	13114
925.602	13304
925.709	13247
925.816	13046
925.924	13065
926.031	13145
926.138	13088
926.245	13164
926.352	13038
926.459	13057
926.566	13194
926.673	13019
926.779	12951
926.886	12935
926.993	12738
927.099	12711
927.206	12707
927.312	12642
927.419	12707
927.525	12688
927.631	12730
927.737	12612
927.843	12494
927.95	12410
928.056	12547
928.162	12544
928.267	12589
928.373	13171
928.479	12642
928.585	12342
928.69	12475
928.796	12559
928.901	12365
929.007	12251
929.112	12357
929.218	12220
929.323	12239
929.428	12251
929.533	12254
929.638	12182
929.743	12186
929.848	12254
929.953	12133
930.058	12022
930.163	11969
930.267	11939
930.372	11969
930.477	11843
930.581	12159
930.685	11984
930.79	11878
930.894	11764
930.998	11733
931.103	11824
931.207	11585
931.311	11452
931.415	11345
931.519	11227
931.623	11170
