Data from test_V78500241_956.txt Node
Date: Fri Mar 25 15:48:25 CST 2022
User: usil
Spectrometer: V785-0024
Trigger mode: 0
Integration Time (sec): 4.000000E-1
Scans to average: 1
Nonlinearity correction enabled: false
Boxcar width: 0
Storing dark spectrum: false
XAxis mode: Wavelengths
Number of Pixels in Spectrum: 1024
>>>>>Begin Spectral Data<<<<<
801.071	28706
801.214	28523
801.356	28257
801.499	28230
801.641	28074
801.783	28120
801.926	28299
802.068	28128
802.211	28074
802.353	28120
802.496	27884
802.638	27793
802.78	27743
802.923	27660
803.065	27747
803.208	27705
803.35	27679
803.492	27907
803.635	27983
803.777	27835
803.919	28070
804.061	28291
804.204	28109
804.346	27888
804.488	27937
804.63	27972
804.773	28017
804.915	27907
805.057	28112
805.199	28006
805.341	28143
805.483	27926
805.626	28276
805.768	28051
805.91	28230
806.052	28200
806.194	27994
806.336	28489
806.478	28192
806.62	28147
806.762	28265
806.904	28478
807.046	28607
807.188	28748
807.33	28626
807.472	28694
807.614	28615
807.756	28622
807.898	28443
808.04	28337
808.182	28618
808.324	28523
808.465	28504
808.607	28596
808.749	28824
808.891	28938
809.033	29090
809.174	28930
809.316	28877
809.458	28862
809.6	28854
809.741	28961
809.883	29025
810.025	29216
810.166	29185
810.308	29280
810.45	29235
810.591	29136
810.733	28862
810.875	28949
811.016	28828
811.158	28782
811.299	28999
811.441	29102
811.582	29113
811.724	29033
811.865	28949
812.007	28869
812.148	28831
812.29	28793
812.431	29044
812.573	29284
812.714	29246
812.855	29467
812.997	29570
813.138	29653
813.279	29581
813.421	29448
813.562	29433
813.703	29311
813.845	29261
813.986	28888
814.127	28672
814.268	28538
814.41	28554
814.551	28599
814.692	28706
814.833	28557
814.974	28580
815.115	28615
815.256	28542
815.397	28455
815.539	28386
815.68	28371
815.821	28303
815.962	28344
816.103	28299
816.244	28322
816.385	28207
816.526	28226
816.666	28051
816.807	27861
816.948	28067
817.089	28025
817.23	27979
817.371	27895
817.512	27892
817.653	28063
817.793	27873
817.934	27903
818.075	27797
818.216	27953
818.356	27884
818.497	27770
818.638	27622
818.778	27762
818.919	27724
819.06	27690
819.2	27888
819.341	27975
819.481	27991
819.622	28128
819.762	28268
819.903	28211
820.043	28101
820.184	28082
820.324	28070
820.465	28158
820.605	28154
820.746	27975
820.886	27922
821.026	27987
821.167	28032
821.307	28051
821.447	27968
821.588	27880
821.728	27728
821.868	27622
822.008	27469
822.149	27401
822.289	27302
822.429	27157
822.569	27039
822.709	27138
822.849	26838
822.99	26944
823.13	26918
823.27	26727
823.41	26678
823.55	26800
823.69	26777
823.83	26609
823.97	26754
824.11	26522
824.25	26465
824.389	26617
824.529	26625
824.669	26446
824.809	26617
824.949	26564
825.089	26785
825.228	26545
825.368	26434
825.508	26552
825.648	26415
825.787	26549
825.927	26484
826.067	26427
826.206	26469
826.346	26499
826.485	26522
826.625	26453
826.765	26708
826.904	26533
827.044	26199
827.183	26233
827.323	26161
827.462	26229
827.601	26119
827.741	26142
827.88	26320
828.02	26081
828.159	26107
828.298	26142
828.437	26191
828.577	25997
828.716	26202
828.855	26046
828.994	25696
829.134	25799
829.273	25841
829.412	25841
829.551	25784
829.69	25791
829.829	25925
829.968	25986
830.107	25913
830.246	25795
830.385	25784
830.524	25605
830.663	25693
830.802	25643
830.941	25453
831.08	25460
831.219	25552
831.357	25537
831.496	25594
831.635	25369
831.774	25419
831.913	25346
832.051	25396
832.19	25232
832.329	25365
832.467	25152
832.606	25038
832.744	25137
832.883	25206
833.022	25099
833.16	25122
833.299	25228
833.437	25015
833.576	25217
833.714	25171
833.852	25160
833.991	25285
834.129	25365
834.267	25183
834.406	25198
834.544	25209
834.682	25244
834.821	25278
834.959	25274
835.097	25145
835.235	25289
835.373	25156
835.511	25137
835.65	24985
835.788	25019
835.926	24954
836.064	24741
836.202	24909
836.34	24932
836.478	25088
836.615	24867
836.753	25031
836.891	25057
837.029	25088
837.167	24939
837.305	24844
837.443	24783
837.58	24783
837.718	24837
837.856	24913
837.993	24764
838.131	24821
838.269	24692
838.406	24646
838.544	24589
838.681	24582
838.819	24513
838.956	24384
839.094	24388
839.231	24384
839.369	24445
839.506	24859
839.643	24467
839.781	24414
839.918	24155
840.055	24273
840.193	24319
840.33	24190
840.467	24133
840.604	24167
840.742	24483
840.879	24095
841.016	24194
841.153	24117
841.29	24342
841.427	24110
841.564	24144
841.701	24095
841.838	24220
841.975	24079
842.112	24079
842.249	23988
842.385	23885
842.522	24174
842.659	23996
842.796	23969
842.933	23923
843.069	23851
843.206	23904
843.343	24018
843.479	23908
843.616	23950
843.752	23707
843.889	23805
844.025	23973
844.162	23729
844.298	23794
844.435	23802
844.571	23767
844.708	23786
844.844	23897
844.98	23939
845.117	23904
845.253	23707
845.389	23619
845.525	23646
845.661	23429
845.798	23509
845.934	23490
846.07	23345
846.206	23467
846.342	23558
846.478	23307
846.614	23117
846.75	23105
846.886	23197
847.022	23208
847.158	23269
847.294	23143
847.429	23265
847.565	23200
847.701	23459
847.837	22790
847.972	22919
848.108	23094
848.244	22995
848.379	22801
848.515	22843
848.65	22889
848.786	22869
848.921	22736
849.057	22942
849.192	22919
849.328	22790
849.463	22713
849.598	22759
849.734	22683
849.869	22535
850.004	22569
850.14	22580
850.275	22493
850.41	22402
850.545	22462
850.68	22485
850.815	22527
850.95	22405
851.085	22710
851.22	22569
851.355	22538
851.49	22466
851.625	22436
851.76	22569
851.895	22417
852.03	22466
852.165	22660
852.299	22523
852.434	22508
852.569	22538
852.703	22588
852.838	22569
852.973	22668
853.107	22630
853.242	22413
853.376	22310
853.511	22139
853.645	22192
853.78	22474
853.914	22303
854.048	22318
854.183	22287
854.317	22375
854.451	22550
854.585	22310
854.72	22367
854.854	22470
854.988	22299
855.122	22337
855.256	22143
855.39	22287
855.524	22470
855.658	22390
855.792	22329
855.926	22242
856.06	22417
856.194	22398
856.327	22276
856.461	22268
856.595	22295
856.729	22265
856.862	22481
856.996	22390
857.13	22379
857.263	22337
857.397	22424
857.53	22390
857.664	22402
857.797	22337
857.931	22436
858.064	22478
858.197	22382
858.331	22284
858.464	22265
858.597	22223
858.731	22261
858.864	22249
858.997	22394
859.13	22268
859.263	22360
859.396	22508
859.529	22447
859.662	22238
859.795	22291
859.928	22310
860.061	22523
860.194	22538
860.327	22360
860.46	22386
860.592	22405
860.725	22489
860.858	22523
860.99	22436
861.123	22287
861.256	22303
861.388	22257
861.521	22995
861.653	22196
861.786	22093
861.918	22211
862.05	22291
862.183	22215
862.315	22306
862.447	22325
862.58	22314
862.712	21979
862.844	21922
862.976	22154
863.108	22162
863.24	22356
863.372	22002
863.504	22044
863.636	21994
863.768	22101
863.9	22128
864.032	21987
864.164	22048
864.296	22006
864.428	22135
864.559	22086
864.691	22093
864.823	22032
864.954	22124
865.086	21968
865.217	21915
865.349	21778
865.48	21945
865.612	21842
865.743	22040
865.875	21903
866.006	21876
866.137	22109
866.269	21953
866.4	22017
866.531	21994
866.662	21827
866.793	21926
866.924	21873
867.055	21785
867.186	21888
867.317	21846
867.448	21759
867.579	21732
867.71	21854
867.841	21880
867.972	21800
868.103	21766
868.233	21778
868.364	21804
868.495	21892
868.625	21998
868.756	22169
868.886	22032
869.017	22017
869.147	22226
869.278	22265
869.408	22082
869.539	22029
869.669	22105
869.799	22067
869.929	22200
870.06	22135
870.19	22409
870.32	22417
870.45	22474
870.58	22413
870.71	22679
870.84	22687
870.97	22542
871.1	22565
871.23	22611
871.36	22706
871.489	22599
871.619	22603
871.749	22706
871.879	22759
872.008	22824
872.138	22691
872.267	22615
872.397	22561
872.526	22637
872.656	22554
872.785	22626
872.915	22786
873.044	22736
873.173	22656
873.303	22774
873.432	22774
873.561	22835
873.69	22767
873.819	22698
873.948	22835
874.077	22786
874.206	22733
874.335	22675
874.464	22889
874.593	23003
874.722	22949
874.851	22976
874.979	22953
875.108	23003
875.237	22965
875.365	22812
875.494	22835
875.623	22930
875.751	22942
875.88	22900
876.008	22968
876.136	23140
876.265	23277
876.393	23486
876.521	23368
876.65	23379
876.778	23311
876.906	23254
877.034	23216
877.162	23246
877.29	23239
877.418	23337
877.546	23258
877.674	23185
877.802	23303
877.93	23258
878.058	23197
878.185	23288
878.313	23246
878.441	23239
878.568	23151
878.696	23315
878.824	23296
878.951	23364
879.079	23398
879.206	23558
879.333	23467
879.461	23360
879.588	23296
879.715	23368
879.842	23596
879.97	23292
880.097	23044
880.224	23098
880.351	23147
880.478	22953
880.605	23044
880.732	23048
880.859	23223
880.986	23174
881.112	23105
881.239	22915
881.366	22831
881.493	22706
881.619	22611
881.746	22596
881.872	22672
881.999	22607
882.125	22687
882.252	22634
882.378	22710
882.505	22752
882.631	22493
882.757	22386
882.883	22371
883.01	22291
883.136	22280
883.262	22253
883.388	22230
883.514	22284
883.64	22421
883.766	22173
883.892	22192
884.018	22131
884.143	22249
884.269	22405
884.395	22074
884.52	21899
884.646	21960
884.772	21983
884.897	21907
885.023	21918
885.148	22044
885.274	22063
885.399	21945
885.524	21945
885.65	22029
885.775	22078
885.9	21892
886.025	21937
886.15	21949
886.275	22017
886.4	21854
886.525	21945
886.65	21937
886.775	21804
886.9	22090
887.025	22067
887.149	21812
887.274	21812
887.399	21743
887.523	21793
887.648	21660
887.773	21641
887.897	21876
888.021	21732
888.146	21656
888.27	21785
888.395	21850
888.519	21774
888.643	21671
888.767	21770
888.891	21629
889.015	21610
889.139	21610
889.263	21477
889.387	21606
889.511	21690
889.635	21610
889.759	21576
889.883	21561
890.006	21492
890.13	21572
890.254	21420
890.377	21363
890.501	21199
890.624	21218
890.748	21249
890.871	21131
890.995	21100
891.118	21058
891.241	21024
891.364	20990
891.488	21013
891.611	21051
891.734	21116
891.857	21123
891.98	21089
892.103	21112
892.226	21043
892.349	20948
892.471	20842
892.594	20960
892.717	21081
892.839	21013
892.962	21066
893.085	20998
893.207	20887
893.33	20895
893.452	20948
893.575	20921
893.697	20971
893.819	21032
893.941	21100
894.064	21089
894.186	20880
894.308	20887
894.43	21070
894.552	21051
894.674	20994
894.796	20899
894.918	20956
895.04	20906
895.161	21017
895.283	20944
895.405	20777
895.526	21005
895.648	20960
895.769	20967
895.891	21047
896.012	21005
896.134	21001
896.255	20982
896.376	20914
896.498	20891
896.619	20902
896.74	20838
896.861	21001
896.982	21085
897.103	21496
897.224	21192
897.345	21138
897.466	21085
897.587	21074
897.708	21283
897.828	21131
897.949	21104
898.07	20925
898.19	21066
898.311	21096
898.431	21089
898.552	21116
898.672	21222
898.792	21233
898.913	21131
899.033	21013
899.153	21005
899.273	20868
899.393	20861
899.513	20902
899.633	20868
899.753	20830
899.873	20777
899.993	20857
900.113	20712
900.232	20712
900.352	20686
900.472	20750
900.591	20735
900.711	20693
900.83	20518
900.95	20762
901.069	20674
901.189	20606
901.308	20294
901.427	20275
901.546	20214
901.665	20301
901.784	20199
901.904	20115
902.023	19898
902.141	19769
902.26	19700
902.379	19826
902.498	19696
902.617	19655
902.735	19643
902.854	19727
902.973	19685
903.091	19308
903.21	19331
903.328	19430
903.446	19232
903.565	19179
903.683	19072
903.801	19126
903.919	19076
904.038	19091
904.156	18882
904.274	18977
904.392	18920
904.51	18924
904.627	18996
904.745	18977
904.863	18947
904.981	18684
905.098	18593
905.216	18582
905.334	18642
905.451	18722
905.569	18494
905.686	18608
905.803	18578
905.921	18300
906.038	18422
906.155	18304
906.272	18239
906.389	18334
906.506	18201
906.623	18213
906.74	18121
906.857	18087
906.974	18007
907.091	18205
907.208	18258
907.324	18117
907.441	18011
907.557	17885
907.674	17783
907.79	17813
907.907	17790
908.023	17809
908.139	17779
908.256	17680
908.372	17691
908.488	17691
908.604	17623
908.72	17493
908.836	17535
908.952	17566
909.068	17581
909.184	17684
909.3	17535
909.415	17649
909.531	17566
909.647	17280
909.762	17124
909.878	17090
909.993	17208
910.108	17159
910.224	17140
910.339	17128
910.454	17178
910.57	17071
910.685	17033
910.8	17143
910.915	17151
911.03	16896
911.145	16961
911.259	16828
911.374	16790
911.489	16721
911.604	16729
911.718	16596
911.833	16599
911.947	16584
912.062	16371
912.176	16599
912.291	16546
912.405	16577
912.519	16733
912.633	16774
912.748	16588
912.862	16577
912.976	16417
913.09	16299
913.204	16367
913.318	16322
913.431	16565
913.545	16390
913.659	16466
913.772	16329
913.886	16200
914	16181
914.113	16246
914.226	16226
914.34	16291
914.453	16067
914.566	16257
914.68	16059
914.793	15956
914.906	15869
915.019	15720
915.132	15724
915.245	15732
915.358	15781
915.47	15739
915.583	15663
915.696	15831
915.809	15835
915.921	15827
916.034	15732
916.146	15736
916.259	15618
916.371	15739
916.483	15641
916.595	15496
916.708	15557
916.82	15534
916.932	15553
917.044	15507
917.156	15466
917.268	15378
917.38	15313
917.491	15363
917.603	15370
917.715	15488
917.826	15443
917.938	15374
918.049	15195
918.161	15363
918.272	15367
918.384	15374
918.495	15283
918.606	15192
918.717	15161
918.828	15097
918.939	15157
919.05	15066
919.161	15081
919.272	14952
919.383	14990
919.494	15245
919.604	15256
919.715	15138
919.826	14975
919.936	15089
920.047	15146
920.157	15055
920.267	15287
920.378	15058
920.488	14937
920.598	15203
920.708	15382
920.818	15165
920.928	15165
921.038	15287
921.148	15291
921.258	15055
921.368	14891
921.477	14842
921.587	14788
921.697	14617
921.806	14792
921.916	14655
922.025	14503
922.134	14454
922.244	14461
922.353	14507
922.462	14328
922.571	14278
922.68	14115
922.789	14157
922.898	14073
923.007	14054
923.116	14153
923.224	14168
923.333	14050
923.442	13955
923.55	13887
923.659	13875
923.767	13944
923.876	13837
923.984	13921
924.092	13765
924.201	13932
924.309	13776
924.417	13788
924.525	13708
924.633	13723
924.741	14632
924.849	13434
924.956	13712
925.064	13438
925.172	13445
925.279	13441
925.387	13495
925.494	13468
925.602	13559
925.709	13483
925.816	13396
925.924	13354
926.031	13510
926.138	13457
926.245	13411
926.352	13297
926.459	13445
926.566	13415
926.673	13324
926.779	13285
926.886	13183
926.993	13080
927.099	12981
927.206	12977
927.312	12966
927.419	13042
927.525	12985
927.631	13023
927.737	12745
927.843	12772
927.95	12665
928.056	12772
928.162	12760
928.267	12798
928.373	13343
928.479	12916
928.585	12658
928.69	12791
928.796	12798
928.901	12715
929.007	12521
929.112	12597
929.218	12646
929.323	12506
929.428	12540
929.533	12608
929.638	12429
929.743	12471
929.848	12528
929.953	12509
930.058	12365
930.163	12205
930.267	12289
930.372	12357
930.477	12095
930.581	12388
930.685	12258
930.79	12057
930.894	12098
930.998	12079
931.103	12247
931.207	11840
931.311	11714
931.415	11657
931.519	11444
931.623	11501
