Data from test_V78500241_2921.txt Node
Date: Fri Mar 25 16:02:02 CST 2022
User: usil
Spectrometer: V785-0024
Trigger mode: 0
Integration Time (sec): 4.000000E-1
Scans to average: 1
Nonlinearity correction enabled: false
Boxcar width: 0
Storing dark spectrum: false
XAxis mode: Wavelengths
Number of Pixels in Spectrum: 1024
>>>>>Begin Spectral Data<<<<<
801.071	28873
801.214	28649
801.356	28485
801.499	28451
801.641	28344
801.783	28356
801.926	28451
802.068	28352
802.211	28306
802.353	28226
802.496	28090
802.638	28025
802.78	28048
802.923	28017
803.065	27987
803.208	27873
803.35	28116
803.492	28090
803.635	28242
803.777	28166
803.919	28318
804.061	28516
804.204	28280
804.346	28253
804.488	28188
804.63	28295
804.773	28086
804.915	28310
805.057	28360
805.199	28219
805.341	28356
805.483	28516
805.626	28512
805.768	28196
805.91	28466
806.052	28455
806.194	28428
806.336	28523
806.478	28421
806.62	28348
806.762	28462
806.904	28835
807.046	28831
807.188	29025
807.33	28911
807.472	28984
807.614	28809
807.756	28885
807.898	28744
808.04	28710
808.182	28653
808.324	28691
808.465	28847
808.607	28984
808.749	29147
808.891	29212
809.033	29159
809.174	29265
809.316	29044
809.458	29124
809.6	29014
809.741	29174
809.883	29379
810.025	29277
810.166	29455
810.308	29406
810.45	29395
810.591	29364
810.733	29174
810.875	29193
811.016	29102
811.158	29117
811.299	29216
811.441	29277
811.582	29364
811.724	29124
811.865	29105
812.007	29185
812.148	29288
812.29	29258
812.431	29349
812.573	29547
812.714	29520
812.855	29672
812.997	29672
813.138	29901
813.279	29927
813.421	29672
813.562	29665
813.703	29535
813.845	29414
813.986	29178
814.127	28923
814.268	28835
814.41	28866
814.551	28873
814.692	28854
814.833	28816
814.974	28843
815.115	28919
815.256	28710
815.397	28828
815.539	28858
815.68	28752
815.821	28584
815.962	28565
816.103	28519
816.244	28656
816.385	28542
816.526	28531
816.666	28310
816.807	28010
816.948	28101
817.089	28363
817.23	28253
817.371	28093
817.512	28112
817.653	28181
817.793	28040
817.934	28177
818.075	28219
818.216	28162
818.356	28158
818.497	28021
818.638	27968
818.778	28036
818.919	28074
819.06	28070
819.2	28093
819.341	28143
819.481	28265
819.622	28409
819.762	28660
819.903	28512
820.043	28413
820.184	28272
820.324	28390
820.465	28375
820.605	28318
820.746	28276
820.886	28246
821.026	28409
821.167	28196
821.307	28196
821.447	28265
821.588	28101
821.728	27991
821.868	27968
822.008	27755
822.149	27622
822.289	27618
822.429	27447
822.569	27142
822.709	27207
822.849	27161
822.99	27062
823.13	27150
823.27	27123
823.41	27188
823.55	26921
823.69	27032
823.83	26956
823.97	26963
824.11	26765
824.25	26727
824.389	26834
824.529	26933
824.669	26899
824.809	26994
824.949	26868
825.089	26834
825.228	26762
825.368	26712
825.508	26712
825.648	26678
825.787	26621
825.927	26720
826.067	26522
826.206	26750
826.346	26750
826.485	26891
826.625	26735
826.765	26796
826.904	26773
827.044	26518
827.183	26495
827.323	26434
827.462	26461
827.601	26473
827.741	26389
827.88	26419
828.02	26298
828.159	26503
828.298	26370
828.437	26465
828.577	26317
828.716	26514
828.855	26259
828.994	26122
829.134	26065
829.273	26103
829.412	26115
829.551	26195
829.69	26172
829.829	26111
829.968	26050
830.107	26069
830.246	26027
830.385	26134
830.524	25928
830.663	25932
830.802	25944
830.941	25689
831.08	25750
831.219	25788
831.357	25871
831.496	26008
831.635	25643
831.774	25559
831.913	25578
832.051	25514
832.19	25525
832.329	25567
832.467	25381
832.606	25301
832.744	25468
832.883	25407
833.022	25343
833.16	25293
833.299	25491
833.437	25514
833.576	25556
833.714	25438
833.852	25548
833.991	25510
834.129	25476
834.267	25563
834.406	25381
834.544	25518
834.682	25460
834.821	25396
834.959	25681
835.097	25438
835.235	25487
835.373	25476
835.511	25308
835.65	25369
835.788	25190
835.926	25198
836.064	25076
836.202	25133
836.34	25289
836.478	25449
836.615	25289
836.753	25282
836.891	25392
837.029	25301
837.167	25148
837.305	25282
837.443	25095
837.58	25072
837.718	25126
837.856	25114
837.993	25034
838.131	25034
838.269	24962
838.406	25038
838.544	24954
838.681	24616
838.819	24802
838.956	24528
839.094	24669
839.231	24623
839.369	24658
839.506	24821
839.643	24852
839.781	24734
839.918	24540
840.055	24502
840.193	24566
840.33	24414
840.467	24505
840.604	24551
840.742	24779
840.879	24262
841.016	24426
841.153	24388
841.29	24616
841.427	24327
841.564	24486
841.701	24437
841.838	24471
841.975	24372
842.112	24376
842.249	24304
842.385	24342
842.522	24395
842.659	24350
842.796	24133
842.933	24239
843.069	24167
843.206	24266
843.343	24270
843.479	24205
843.616	24171
843.752	23920
843.889	24060
844.025	24190
844.162	23904
844.298	24262
844.435	24034
844.571	23992
844.708	24038
844.844	24197
844.98	24171
845.117	24079
845.253	23923
845.389	23847
845.525	23912
845.661	23760
845.798	23657
845.934	23741
846.07	23695
846.206	23741
846.342	23969
846.478	23760
846.614	23512
846.75	23505
846.886	23391
847.022	23581
847.158	23566
847.294	23524
847.429	23425
847.565	23471
847.701	23710
847.837	23121
847.972	23075
848.108	23303
848.244	23288
848.379	23083
848.515	23018
848.65	23022
848.786	23044
848.921	23044
849.057	23220
849.192	23086
849.328	23208
849.463	23155
849.598	22953
849.734	22786
849.869	22915
850.004	22755
850.14	22820
850.275	22946
850.41	22812
850.545	22763
850.68	22820
850.815	22980
850.95	22805
851.085	23090
851.22	22915
851.355	22797
851.49	22816
851.625	22839
851.76	22725
851.895	22694
852.03	22744
852.165	22911
852.299	22816
852.434	22953
852.569	22767
852.703	22721
852.838	22782
852.973	22847
853.107	23010
853.242	22710
853.376	22694
853.511	22470
853.645	22630
853.78	22603
853.914	22645
854.048	22561
854.183	22523
854.317	22599
854.451	22733
854.585	22637
854.72	22634
854.854	22725
854.988	22527
855.122	22710
855.256	22493
855.39	22615
855.524	22782
855.658	22691
855.792	22611
855.926	22698
856.06	22706
856.194	22611
856.327	22641
856.461	22573
856.595	22455
856.729	22668
856.862	22767
856.996	22580
857.13	22637
857.263	22805
857.397	22653
857.53	22603
857.664	22710
857.797	22672
857.931	22698
858.064	22622
858.197	22653
858.331	22691
858.464	22592
858.597	22409
858.731	22554
858.864	22630
858.997	22500
859.13	22599
859.263	22740
859.396	22721
859.529	22622
859.662	22675
859.795	22599
859.928	22603
860.061	22869
860.194	22843
860.327	22706
860.46	22706
860.592	22831
860.725	22812
860.858	22713
860.99	22596
861.123	22607
861.256	22641
861.388	22580
861.521	23376
861.653	22478
861.786	22443
861.918	22367
862.05	22462
862.183	22557
862.315	22546
862.447	22611
862.58	22596
862.712	22352
862.844	22337
862.976	22535
863.108	22352
863.24	22858
863.372	22329
863.504	22413
863.636	22226
863.768	22413
863.9	22405
864.032	22211
864.164	22367
864.296	22382
864.428	22382
864.559	22493
864.691	22344
864.823	22287
864.954	22390
865.086	22261
865.217	22230
865.349	22306
865.48	22173
865.612	22185
865.743	22249
865.875	22272
866.006	22185
866.137	22261
866.269	22101
866.4	22200
866.531	22139
866.662	22093
866.793	22207
866.924	22097
867.055	22147
867.186	22105
867.317	22150
867.448	22139
867.579	22188
867.71	22124
867.841	22150
867.972	22204
868.103	22166
868.233	22268
868.364	22158
868.495	22462
868.625	22382
868.756	22394
868.886	22402
869.017	22314
869.147	22538
869.278	22462
869.408	22409
869.539	22333
869.669	22409
869.799	22485
869.929	22546
870.06	22516
870.19	22683
870.32	22584
870.45	22748
870.58	22797
870.71	22793
870.84	22869
870.97	22656
871.1	22835
871.23	22923
871.36	22995
871.489	22805
871.619	22904
871.749	22995
871.879	23067
872.008	23216
872.138	23052
872.267	22858
872.397	22858
872.526	22793
872.656	22873
872.785	22877
872.915	23022
873.044	22984
873.173	22995
873.303	23109
873.432	23105
873.561	23086
873.69	23018
873.819	22961
873.948	23102
874.077	22961
874.206	22919
874.335	22927
874.464	23109
874.593	23231
874.722	23284
874.851	23204
874.979	23197
875.108	23227
875.237	23197
875.365	23006
875.494	23090
875.623	23273
875.751	23155
875.88	23280
876.008	23242
876.136	23398
876.265	23592
876.393	23687
876.521	23851
876.65	23642
876.778	23551
876.906	23421
877.034	23585
877.162	23608
877.29	23505
877.418	23573
877.546	23558
877.674	23356
877.802	23611
877.93	23562
878.058	23463
878.185	23383
878.313	23490
878.441	23474
878.568	23433
878.696	23486
878.824	23558
878.951	23668
879.079	23672
879.206	23726
879.333	23665
879.461	23649
879.588	23585
879.715	23729
879.842	23836
879.97	23577
880.097	23478
880.224	23288
880.351	23353
880.478	23349
880.605	23292
880.732	23318
880.859	23524
880.986	23425
881.112	23512
881.239	23307
881.366	23105
881.493	22968
881.619	22904
881.746	23117
881.872	23003
881.999	22957
882.125	22744
882.252	22911
882.378	22885
882.505	22953
882.631	22771
882.757	22607
882.883	22683
883.01	22611
883.136	22584
883.262	22497
883.388	22481
883.514	22607
883.64	22675
883.766	22542
883.892	22352
884.018	22402
884.143	22512
884.269	22588
884.395	22242
884.52	22272
884.646	22166
884.772	22112
884.897	22093
885.023	22299
885.148	22314
885.274	22367
885.399	22356
885.524	22246
885.65	22128
885.775	22276
885.9	22177
886.025	22318
886.15	22261
886.275	22169
886.4	22219
886.525	22230
886.65	22204
886.775	22215
886.9	22348
887.025	22554
887.149	22185
887.274	22078
887.399	22029
887.523	21975
887.648	21865
887.773	21838
887.897	22131
888.021	21994
888.146	21983
888.27	21987
888.395	22021
888.519	22067
888.643	21915
888.767	22185
888.891	21827
889.015	21732
889.139	21838
889.263	21816
889.387	22010
889.511	21972
889.635	22010
889.759	21823
889.883	21766
890.006	21797
890.13	21888
890.254	21720
890.377	21762
890.501	21507
890.624	21515
890.748	21679
890.871	21408
890.995	21283
891.118	21249
891.241	21329
891.364	21355
891.488	21420
891.611	21405
891.734	21306
891.857	21374
891.98	21412
892.103	21367
892.226	21329
892.349	21161
892.471	21066
892.594	21264
892.717	21272
892.839	21275
892.962	21329
893.085	21283
893.207	21165
893.33	21138
893.452	21176
893.575	21218
893.697	21161
893.819	21363
893.941	21458
894.064	21306
894.186	21081
894.308	21123
894.43	21230
894.552	21252
894.674	21412
894.796	21169
894.918	21123
895.04	21165
895.161	21199
895.283	21241
895.405	21199
895.526	21222
895.648	21066
895.769	21195
895.891	21157
896.012	21336
896.134	21241
896.255	21367
896.376	21093
896.498	21112
896.619	21173
896.74	21264
896.861	21176
896.982	21481
897.103	21614
897.224	21462
897.345	21485
897.466	21294
897.587	21412
897.708	21492
897.828	21454
897.949	21317
898.07	21214
898.19	21351
898.311	21367
898.431	21310
898.552	21332
898.672	21431
898.792	21538
898.913	21458
899.033	21336
899.153	21157
899.273	21081
899.393	21116
899.513	21192
899.633	21089
899.753	21165
899.873	21020
899.993	21116
900.113	20990
900.232	21017
900.352	20994
900.472	20804
900.591	20933
900.711	20899
900.83	20800
900.95	20960
901.069	20895
901.189	20834
901.308	20423
901.427	20324
901.546	20358
901.665	20431
901.784	20461
901.904	20324
902.023	20240
902.141	20142
902.26	19955
902.379	20062
902.498	19925
902.617	19928
902.735	20069
902.854	19997
902.973	19959
903.091	19655
903.21	19651
903.328	19616
903.446	19480
903.565	19491
903.683	19483
903.801	19327
903.919	19362
904.038	19381
904.156	19206
904.274	19179
904.392	19232
904.51	19095
904.627	19152
904.745	19202
904.863	19156
904.981	18905
905.098	18859
905.216	18920
905.334	18924
905.451	18909
905.569	18753
905.686	18837
905.803	18798
905.921	18547
906.038	18753
906.155	18726
906.272	18467
906.389	18433
906.506	18441
906.623	18365
906.74	18350
906.857	18182
906.974	18224
907.091	18311
907.208	18399
907.324	18369
907.441	18334
907.557	18102
907.674	18041
907.79	17996
907.907	17988
908.023	18072
908.139	18083
908.256	17916
908.372	17893
908.488	17939
908.604	17836
908.72	17764
908.836	17775
908.952	17729
909.068	17855
909.184	17908
909.3	17779
909.415	17840
909.531	17783
909.647	17585
909.762	17490
909.878	17543
909.993	17414
910.108	17395
910.224	17421
910.339	17410
910.454	17364
910.57	17284
910.685	17181
910.8	17433
910.915	17349
911.03	17220
911.145	17132
911.259	17113
911.374	17006
911.489	17117
911.604	16889
911.718	16816
911.833	16900
911.947	16691
912.062	16698
912.176	16850
912.291	16797
912.405	16782
912.519	16961
912.633	16831
912.748	16995
912.862	16645
912.976	16630
913.09	16390
913.204	16577
913.318	16687
913.431	16767
913.545	16660
913.659	16660
913.772	16596
913.886	16344
914	16421
914.113	16519
914.226	16535
914.34	16394
914.453	16329
914.566	16409
914.68	16314
914.793	16143
914.906	16044
915.019	16002
915.132	15926
915.245	15911
915.358	16025
915.47	16010
915.583	15949
915.696	16025
915.809	15983
915.921	16048
916.034	15854
916.146	15972
916.259	15720
916.371	16006
916.483	15937
916.595	15838
916.708	15903
916.82	15751
916.932	15732
917.044	15778
917.156	15720
917.268	15648
917.38	15656
917.491	15545
917.603	15603
917.715	15679
917.826	15610
917.938	15584
918.049	15359
918.161	15599
918.272	15633
918.384	15736
918.495	15557
918.606	15275
918.717	15207
918.828	15408
918.939	15325
919.05	15264
919.161	15382
919.272	15001
919.383	15093
919.494	15283
919.604	15370
919.715	15336
919.826	15199
919.936	15272
920.047	15348
920.157	15195
920.267	15500
920.378	15294
920.488	15214
920.598	15382
920.708	15538
920.818	15485
920.928	15302
921.038	15504
921.148	15500
921.258	15142
921.368	15173
921.477	14979
921.587	15020
921.697	14868
921.806	15013
921.916	14857
922.025	14731
922.134	14560
922.244	14644
922.353	14693
922.462	14434
922.571	14438
922.68	14419
922.789	14248
922.898	14237
923.007	14180
923.116	14263
923.224	14267
923.333	14191
923.442	14073
923.55	14039
923.659	14107
923.767	14107
923.876	14031
923.984	14100
924.092	13868
924.201	13955
924.309	14050
924.417	13967
924.525	13837
924.633	13963
924.741	14830
924.849	13757
924.956	13799
925.064	13658
925.172	13480
925.279	13643
925.387	13658
925.494	13639
925.602	13708
925.709	13613
925.816	13571
925.924	13601
926.031	13662
926.138	13499
926.245	13575
926.352	13563
926.459	13548
926.566	13643
926.673	13472
926.779	13415
926.886	13445
926.993	13202
927.099	13187
927.206	13095
927.312	13072
927.419	13331
927.525	13228
927.631	13187
927.737	13027
927.843	13069
927.95	12932
928.056	13046
928.162	12943
928.267	13053
928.373	13594
928.479	13088
928.585	12909
928.69	12935
928.796	13004
928.901	12791
929.007	12703
929.112	12829
929.218	12791
929.323	12703
929.428	12681
929.533	12833
929.638	12616
929.743	12665
929.848	12635
929.953	12639
930.058	12574
930.163	12311
930.267	12292
930.372	12547
930.477	12311
930.581	12475
930.685	12464
930.79	12190
930.894	12311
930.998	12216
931.103	12372
931.207	12030
931.311	11999
931.415	11798
931.519	11688
931.623	11566
