Data from test_V78500241_2422.txt Node
Date: Fri Mar 25 15:58:34 CST 2022
User: usil
Spectrometer: V785-0024
Trigger mode: 0
Integration Time (sec): 4.000000E-1
Scans to average: 1
Nonlinearity correction enabled: false
Boxcar width: 0
Storing dark spectrum: false
XAxis mode: Wavelengths
Number of Pixels in Spectrum: 1024
>>>>>Begin Spectral Data<<<<<
801.071	28824
801.214	28866
801.356	28569
801.499	28645
801.641	28443
801.783	28360
801.926	28489
802.068	28474
802.211	28421
802.353	28386
802.496	28109
802.638	28135
802.78	28101
802.923	28112
803.065	28135
803.208	28200
803.35	28150
803.492	28303
803.635	28341
803.777	28337
803.919	28447
804.061	28660
804.204	28500
804.346	28360
804.488	28226
804.63	28417
804.773	28398
804.915	28519
805.057	28497
805.199	28516
805.341	28561
805.483	28561
805.626	28470
805.768	28508
805.91	28557
806.052	28584
806.194	28504
806.336	28809
806.478	28679
806.62	28717
806.762	28645
806.904	28919
807.046	29025
807.188	29075
807.33	29048
807.472	29151
807.614	29067
807.756	29064
807.898	28892
808.04	28953
808.182	28888
808.324	28854
808.465	29140
808.607	29105
808.749	29292
808.891	29273
809.033	29383
809.174	29440
809.316	29227
809.458	29216
809.6	29136
809.741	29414
809.883	29402
810.025	29547
810.166	29615
810.308	29596
810.45	29493
810.591	29524
810.733	29364
810.875	29159
811.016	29162
811.158	29200
811.299	29326
811.441	29387
811.582	29444
811.724	29364
811.865	29341
812.007	29242
812.148	29250
812.29	29410
812.431	29608
812.573	29710
812.714	29722
812.855	29817
812.997	30087
813.138	29977
813.279	29996
813.421	29840
813.562	29817
813.703	29672
813.845	29714
813.986	29216
814.127	29098
814.268	29086
814.41	29162
814.551	29117
814.692	29075
814.833	28968
814.974	28843
815.115	29162
815.256	29037
815.397	28957
815.539	28858
815.68	28866
815.821	28847
815.962	28885
816.103	28835
816.244	28713
816.385	28615
816.526	28710
816.666	28561
816.807	28409
816.948	28295
817.089	28303
817.23	28455
817.371	28337
817.512	28291
817.653	28287
817.793	28238
817.934	28375
818.075	28325
818.216	28401
818.356	28268
818.497	28234
818.638	28101
818.778	28139
818.919	28257
819.06	28306
819.2	28344
819.341	28466
819.481	28413
819.622	28390
819.762	28634
819.903	28500
820.043	28561
820.184	28443
820.324	28447
820.465	28451
820.605	28504
820.746	28493
820.886	28401
821.026	28497
821.167	28440
821.307	28443
821.447	28424
821.588	28230
821.728	28162
821.868	27941
822.008	27800
822.149	27873
822.289	27671
822.429	27458
822.569	27557
822.709	27603
822.849	27348
822.99	27230
823.13	27420
823.27	27294
823.41	27256
823.55	26967
823.69	27279
823.83	27157
823.97	27070
824.11	27024
824.25	26982
824.389	26902
824.529	26937
824.669	27017
824.809	27150
824.949	27047
825.089	27142
825.228	27028
825.368	26902
825.508	26857
825.648	26956
825.787	26845
825.927	26849
826.067	26864
826.206	26895
826.346	26773
826.485	26891
826.625	26739
826.765	26967
826.904	26906
827.044	26617
827.183	26701
827.323	26575
827.462	26648
827.601	26750
827.741	26590
827.88	26670
828.02	26469
828.159	26640
828.298	26511
828.437	26716
828.577	26636
828.716	26667
828.855	26434
828.994	26366
829.134	26320
829.273	26183
829.412	26073
829.551	26176
829.69	26180
829.829	26408
829.968	26328
830.107	26347
830.246	26088
830.385	26054
830.524	26180
830.663	25982
830.802	26005
830.941	25784
831.08	25894
831.219	25966
831.357	25902
831.496	26035
831.635	25871
831.774	25780
831.913	25791
832.051	25605
832.19	25613
832.329	25837
832.467	25529
832.606	25525
832.744	25426
832.883	25590
833.022	25441
833.16	25552
833.299	25506
833.437	25529
833.576	25666
833.714	25658
833.852	25655
833.991	25761
834.129	25803
834.267	25696
834.406	25643
834.544	25731
834.682	25544
834.821	25506
834.959	25761
835.097	25460
835.235	25639
835.373	25601
835.511	25616
835.65	25457
835.788	25468
835.926	25266
836.064	25278
836.202	25358
836.34	25468
836.478	25499
836.615	25449
836.753	25392
836.891	25537
837.029	25426
837.167	25510
837.305	25533
837.443	25274
837.58	25236
837.718	25225
837.856	25244
837.993	25198
838.131	25221
838.269	25050
838.406	25209
838.544	25072
838.681	24886
838.819	24920
838.956	24669
839.094	24570
839.231	24677
839.369	24795
839.506	25175
839.643	24867
839.781	24692
839.918	24654
840.055	24665
840.193	24677
840.33	24582
840.467	24665
840.604	24684
840.742	24920
840.879	24525
841.016	24532
841.153	24422
841.29	24738
841.427	24684
841.564	24650
841.701	24551
841.838	24593
841.975	24547
842.112	24528
842.249	24494
842.385	24365
842.522	24528
842.659	24540
842.796	24395
842.933	24273
843.069	24281
843.206	24285
843.343	24350
843.479	24315
843.616	24304
843.752	24224
843.889	24117
844.025	24311
844.162	24041
844.298	24243
844.435	24110
844.571	24155
844.708	24102
844.844	24315
844.98	24235
845.117	24350
845.253	23961
845.389	23931
845.525	23977
845.661	23912
845.798	23885
845.934	23920
846.07	23790
846.206	23897
846.342	23992
846.478	23977
846.614	23630
846.75	23600
846.886	23707
847.022	23767
847.158	23604
847.294	23577
847.429	23707
847.565	23547
847.701	23813
847.837	23277
847.972	23326
848.108	23349
848.244	23433
848.379	23235
848.515	23189
848.65	23242
848.786	23181
848.921	23143
849.057	23349
849.192	23269
849.328	23261
849.463	23121
849.598	23022
849.734	23136
849.869	23113
850.004	22900
850.14	22919
850.275	22968
850.41	22908
850.545	22774
850.68	22828
850.815	22915
850.95	22889
851.085	23105
851.22	23037
851.355	22972
851.49	22995
851.625	22839
851.76	22934
851.895	22782
852.03	22828
852.165	23052
852.299	22904
852.434	23006
852.569	22972
852.703	22885
852.838	23060
852.973	23124
853.107	23041
853.242	22923
853.376	22847
853.511	22675
853.645	22774
853.78	23018
853.914	22782
854.048	22759
854.183	22793
854.317	22752
854.451	22877
854.585	22763
854.72	22786
854.854	22736
854.988	22664
855.122	22763
855.256	22577
855.39	22854
855.524	22847
855.658	22782
855.792	22782
855.926	22797
856.06	22706
856.194	22797
856.327	22710
856.461	22809
856.595	22637
856.729	22733
856.862	22797
856.996	22771
857.13	22740
857.263	22911
857.397	22866
857.53	22668
857.664	22729
857.797	22805
857.931	22938
858.064	22774
858.197	22900
858.331	22710
858.464	22626
858.597	22611
858.731	22790
858.864	22702
858.997	22615
859.13	22809
859.263	22839
859.396	22759
859.529	22660
859.662	22668
859.795	22683
859.928	22740
860.061	22858
860.194	23014
860.327	22786
860.46	22839
860.592	22885
860.725	22885
860.858	22938
860.99	22847
861.123	22645
861.256	22694
861.388	22683
861.521	23398
861.653	22554
861.786	22424
861.918	22500
862.05	22630
862.183	22721
862.315	22713
862.447	22679
862.58	22561
862.712	22421
862.844	22398
862.976	22599
863.108	22459
863.24	22938
863.372	22470
863.504	22344
863.636	22493
863.768	22523
863.9	22322
864.032	22443
864.164	22409
864.296	22508
864.428	22561
864.559	22481
864.691	22519
864.823	22478
864.954	22371
865.086	22523
865.217	22348
865.349	22265
865.48	22367
865.612	22360
865.743	22367
865.875	22310
866.006	22348
866.137	22356
866.269	22325
866.4	22367
866.531	22143
866.662	22204
866.793	22314
866.924	22322
867.055	22303
867.186	22310
867.317	22230
867.448	22135
867.579	22238
867.71	22139
867.841	22120
867.972	22257
868.103	22219
868.233	22230
868.364	22261
868.495	22413
868.625	22470
868.756	22531
868.886	22382
869.017	22466
869.147	22531
869.278	22554
869.408	22470
869.539	22508
869.669	22542
869.799	22531
869.929	22672
870.06	22580
870.19	22866
870.32	22786
870.45	22896
870.58	22923
870.71	22999
870.84	22881
870.97	22938
871.1	22965
871.23	22968
871.36	23121
871.489	22995
871.619	23037
871.749	23147
871.879	23109
872.008	23258
872.138	22930
872.267	23083
872.397	23029
872.526	22987
872.656	22972
872.785	22850
872.915	23090
873.044	23189
873.173	23086
873.303	23181
873.432	23204
873.561	23223
873.69	23098
873.819	23117
873.948	23105
874.077	23128
874.206	23048
874.335	23223
874.464	23193
874.593	23315
874.722	23379
874.851	23307
874.979	23315
875.108	23391
875.237	23239
875.365	23212
875.494	23296
875.623	23417
875.751	23372
875.88	23376
876.008	23433
876.136	23482
876.265	23794
876.393	23790
876.521	23813
876.65	23824
876.778	23672
876.906	23695
877.034	23642
877.162	23551
877.29	23535
877.418	23668
877.546	23585
877.674	23672
877.802	23710
877.93	23547
878.058	23581
878.185	23452
878.313	23512
878.441	23638
878.568	23448
878.696	23562
878.824	23672
878.951	23817
879.079	23756
879.206	23874
879.333	23813
879.461	23737
879.588	23653
879.715	23836
879.842	23904
879.97	23714
880.097	23604
880.224	23376
880.351	23516
880.478	23459
880.605	23414
880.732	23463
880.859	23630
880.986	23463
881.112	23436
881.239	23433
881.366	23273
881.493	23155
881.619	23132
881.746	23102
881.872	23044
881.999	23067
882.125	22965
882.252	22987
882.378	22896
882.505	23064
882.631	22911
882.757	22740
882.883	22755
883.01	22656
883.136	22531
883.262	22504
883.388	22546
883.514	22763
883.64	22820
883.766	22679
883.892	22485
884.018	22569
884.143	22557
884.269	22733
884.395	22557
884.52	22394
884.646	22295
884.772	22207
884.897	22219
885.023	22352
885.148	22379
885.274	22557
885.399	22249
885.524	22287
885.65	22398
885.775	22367
885.9	22265
886.025	22398
886.15	22394
886.275	22291
886.4	22234
886.525	22417
886.65	22280
886.775	22215
886.9	22398
887.025	22470
887.149	22314
887.274	22196
887.399	22207
887.523	22055
887.648	22135
887.773	21979
887.897	22135
888.021	22124
888.146	22040
888.27	22234
888.395	22070
888.519	22029
888.643	22162
888.767	22059
888.891	22086
889.015	21907
889.139	21899
889.263	21724
889.387	21975
889.511	22070
889.635	21934
889.759	21808
889.883	21880
890.006	21972
890.13	21960
890.254	21865
890.377	21751
890.501	21622
890.624	21663
890.748	21686
890.871	21507
890.995	21428
891.118	21412
891.241	21393
891.364	21397
891.488	21599
891.611	21378
891.734	21420
891.857	21523
891.98	21428
892.103	21458
892.226	21473
892.349	21252
892.471	21272
892.594	21275
892.717	21325
892.839	21298
892.962	21378
893.085	21412
893.207	21256
893.33	21169
893.452	21275
893.575	21363
893.697	21298
893.819	21462
893.941	21500
894.064	21458
894.186	21230
894.308	21325
894.43	21294
894.552	21572
894.674	21458
894.796	21192
894.918	21279
895.04	21313
895.161	21401
895.283	21370
895.405	21252
895.526	21214
895.648	21306
895.769	21374
895.891	21230
896.012	21340
896.134	21386
896.255	21233
896.376	21233
896.498	21279
896.619	21291
896.74	21157
896.861	21256
896.982	21526
897.103	21724
897.224	21496
897.345	21473
897.466	21420
897.587	21378
897.708	21576
897.828	21583
897.949	21450
898.07	21283
898.19	21538
898.311	21637
898.431	21454
898.552	21572
898.672	21561
898.792	21488
898.913	21435
899.033	21424
899.153	21275
899.273	21150
899.393	21150
899.513	21268
899.633	21184
899.753	21344
899.873	21108
899.993	21252
900.113	21222
900.232	21359
900.352	21043
900.472	21043
900.591	20807
900.711	21039
900.83	20925
900.95	21055
901.069	21085
901.189	20788
901.308	20644
901.427	20511
901.546	20530
901.665	20556
901.784	20526
901.904	20454
902.023	20259
902.141	20126
902.26	20122
902.379	20035
902.498	20008
902.617	19963
902.735	20016
902.854	20088
902.973	19818
903.091	19731
903.21	19700
903.328	19750
903.446	19582
903.565	19472
903.683	19506
903.801	19419
903.919	19362
904.038	19483
904.156	19282
904.274	19339
904.392	19190
904.51	19217
904.627	19282
904.745	19335
904.863	19255
904.981	18943
905.098	18977
905.216	18867
905.334	18951
905.451	18962
905.569	18901
905.686	18932
905.803	18943
905.921	18726
906.038	18772
906.155	18776
906.272	18684
906.389	18646
906.506	18426
906.623	18429
906.74	18277
906.857	18308
906.974	18258
907.091	18467
907.208	18528
907.324	18323
907.441	18277
907.557	18300
907.674	18224
907.79	18003
907.907	18095
908.023	18148
908.139	18117
908.256	18136
908.372	18133
908.488	18003
908.604	17851
908.72	17874
908.836	17878
908.952	17840
909.068	17847
909.184	17961
909.3	17821
909.415	17786
909.531	17729
909.647	17547
909.762	17627
909.878	17592
909.993	17653
910.108	17452
910.224	17512
910.339	17592
910.454	17334
910.57	17402
910.685	17315
910.8	17661
910.915	17440
911.03	17330
911.145	17174
911.259	17075
911.374	17079
911.489	16995
911.604	16984
911.718	16820
911.833	16850
911.947	16774
912.062	16778
912.176	16805
912.291	16923
912.405	16839
912.519	17048
912.633	17010
912.748	16843
912.862	16839
912.976	16679
913.09	16573
913.204	16668
913.318	16679
913.431	16736
913.545	16694
913.659	16786
913.772	16641
913.886	16474
914	16428
914.113	16466
914.226	16611
914.34	16546
914.453	16371
914.566	16455
914.68	16405
914.793	16276
914.906	16120
915.019	16010
915.132	16021
915.245	16002
915.358	16139
915.47	16078
915.583	16021
915.696	15979
915.809	16128
915.921	16169
916.034	15964
916.146	15975
916.259	15842
916.371	15956
916.483	15953
916.595	15857
916.708	15816
916.82	15857
916.932	15781
917.044	15934
917.156	15751
917.268	15713
917.38	15694
917.491	15572
917.603	15701
917.715	15694
917.826	15755
917.938	15557
918.049	15359
918.161	15481
918.272	15739
918.384	15713
918.495	15504
918.606	15363
918.717	15275
918.828	15435
918.939	15378
919.05	15439
919.161	15447
919.272	15161
919.383	15165
919.494	15428
919.604	15580
919.715	15310
919.826	15378
919.936	15325
920.047	15389
920.157	15344
920.267	15473
920.378	15287
920.488	15192
920.598	15466
920.708	15648
920.818	15504
920.928	15389
921.038	15606
921.148	15542
921.258	15294
921.368	15116
921.477	15131
921.587	15138
921.697	14918
921.806	15017
921.916	14880
922.025	14788
922.134	14697
922.244	14659
922.353	14746
922.462	14632
922.571	14522
922.68	14282
922.789	14271
922.898	14324
923.007	14278
923.116	14419
923.224	14263
923.333	14218
923.442	14157
923.55	14027
923.659	14259
923.767	14221
923.876	14069
923.984	14214
924.092	14073
924.201	14100
924.309	14039
924.417	14062
924.525	13928
924.633	13967
924.741	14800
924.849	13757
924.956	13936
925.064	13704
925.172	13719
925.279	13662
925.387	13639
925.494	13727
925.602	13822
925.709	13670
925.816	13582
925.924	13571
926.031	13757
926.138	13628
926.245	13666
926.352	13563
926.459	13578
926.566	13693
926.673	13548
926.779	13415
926.886	13415
926.993	13278
927.099	13236
927.206	13270
927.312	13118
927.419	13179
927.525	13221
927.631	13225
927.737	13034
927.843	13126
927.95	12901
928.056	12996
928.162	13095
928.267	13133
928.373	13715
928.479	13118
928.585	12867
928.69	12973
928.796	13031
928.901	12951
929.007	12772
929.112	12856
929.218	12856
929.323	12837
929.428	12703
929.533	12875
929.638	12608
929.743	12662
929.848	12730
929.953	12711
930.058	12650
930.163	12429
930.267	12414
930.372	12513
930.477	12350
930.581	12566
930.685	12448
930.79	12330
930.894	12292
930.998	12285
931.103	12384
931.207	12007
931.311	11980
931.415	11904
931.519	11688
931.623	11611
