Data from test_V78500241_1510.txt Node
Date: Fri Mar 25 15:52:15 CST 2022
User: usil
Spectrometer: V785-0024
Trigger mode: 0
Integration Time (sec): 4.000000E-1
Scans to average: 1
Nonlinearity correction enabled: false
Boxcar width: 0
Storing dark spectrum: false
XAxis mode: Wavelengths
Number of Pixels in Spectrum: 1024
>>>>>Begin Spectral Data<<<<<
801.071	27941
801.214	27880
801.356	27576
801.499	27553
801.641	27656
801.783	27504
801.926	27466
802.068	27526
802.211	27485
802.353	27382
802.496	27310
802.638	27127
802.78	27199
802.923	26971
803.065	27142
803.208	27252
803.35	27272
803.492	27397
803.635	27291
803.777	27195
803.919	27363
804.061	27846
804.204	27530
804.346	27325
804.488	27378
804.63	27336
804.773	27256
804.915	27397
805.057	27424
805.199	27313
805.341	27435
805.483	27641
805.626	27496
805.768	27401
805.91	27515
806.052	27439
806.194	27275
806.336	27899
806.478	27545
806.62	27557
806.762	27682
806.904	27762
807.046	28059
807.188	27876
807.33	27983
807.472	27987
807.614	27903
807.756	27892
807.898	27888
808.04	27698
808.182	27770
808.324	27861
808.465	27914
808.607	28055
808.749	28162
808.891	28246
809.033	28265
809.174	28207
809.316	28139
809.458	28093
809.6	28185
809.741	28166
809.883	28306
810.025	28413
810.166	28398
810.308	28405
810.45	28310
810.591	28322
810.733	28200
810.875	28067
811.016	28021
811.158	28105
811.299	28306
811.441	28268
811.582	28310
811.724	28135
811.865	28147
812.007	28181
812.148	28131
812.29	28135
812.431	28318
812.573	28386
812.714	28561
812.855	28634
812.997	28683
813.138	28919
813.279	28797
813.421	28850
813.562	28713
813.703	28451
813.845	28398
813.986	28082
814.127	27914
814.268	27808
814.41	27842
814.551	27797
814.692	28025
814.833	27960
814.974	27762
815.115	27797
815.256	27698
815.397	27751
815.539	27671
815.68	27652
815.821	27576
815.962	27538
816.103	27625
816.244	27306
816.385	27420
816.526	27477
816.666	27195
816.807	27089
816.948	27055
817.089	27351
817.23	27207
817.371	27161
817.512	27127
817.653	27188
817.793	27116
817.934	27009
818.075	27211
818.216	27100
818.356	27043
818.497	26952
818.638	26804
818.778	26838
818.919	26990
819.06	26842
819.2	26929
819.341	27017
819.481	27062
819.622	27427
819.762	27469
819.903	27340
820.043	27298
820.184	27287
820.324	27264
820.465	27325
820.605	27188
820.746	27245
820.886	26990
821.026	27180
821.167	27260
821.307	27332
821.447	27233
821.588	26982
821.728	27024
821.868	26792
822.008	26511
822.149	26708
822.289	26629
822.429	26400
822.569	26324
822.709	26412
822.849	26046
822.99	26130
823.13	25951
823.27	26008
823.41	25921
823.55	25917
823.69	25837
823.83	25955
823.97	25830
824.11	25719
824.25	25750
824.389	25681
824.529	25868
824.669	25791
824.809	25902
824.949	25833
825.089	25970
825.228	25894
825.368	25670
825.508	25708
825.648	25586
825.787	25651
825.927	25537
826.067	25559
826.206	25624
826.346	25700
826.485	25715
826.625	25514
826.765	25780
826.904	25704
827.044	25491
827.183	25426
827.323	25255
827.462	25335
827.601	25434
827.741	25263
827.88	25369
828.02	25301
828.159	25247
828.298	25225
828.437	25392
828.577	25244
828.716	25468
828.855	25327
828.994	25095
829.134	24992
829.273	25084
829.412	24977
829.551	24958
829.69	25000
829.829	25053
829.968	25118
830.107	25129
830.246	24890
830.385	24924
830.524	24970
830.663	24730
830.802	24738
830.941	24730
831.08	24707
831.219	24684
831.357	24688
831.496	24890
831.635	24623
831.774	24582
831.913	24578
832.051	24418
832.19	24467
832.329	24517
832.467	24342
832.606	24232
832.744	24239
832.883	24289
833.022	24365
833.16	24330
833.299	24403
833.437	24338
833.576	24437
833.714	24460
833.852	24441
833.991	24479
834.129	24380
834.267	24407
834.406	24445
834.544	24395
834.682	24471
834.821	24391
834.959	24505
835.097	24403
835.235	24445
835.373	24418
835.511	24433
835.65	24209
835.788	24171
835.926	24072
836.064	24026
836.202	24057
836.34	24262
836.478	24266
836.615	24228
836.753	24098
836.891	24350
837.029	24136
837.167	24114
837.305	24117
837.443	23996
837.58	23992
837.718	24041
837.856	24095
837.993	23950
838.131	24038
838.269	23916
838.406	23863
838.544	23855
838.681	23627
838.819	23630
838.956	23509
839.094	23459
839.231	23467
839.369	23638
839.506	23999
839.643	23718
839.781	23528
839.918	23417
840.055	23410
840.193	23615
840.33	23433
840.467	23566
840.604	23356
840.742	23699
840.879	23322
841.016	23318
841.153	23265
841.29	23467
841.427	23330
841.564	23311
841.701	23459
841.838	23459
841.975	23299
842.112	23242
842.249	23227
842.385	23178
842.522	23417
842.659	23258
842.796	23029
842.933	23242
843.069	23193
843.206	23075
843.343	23121
843.479	23124
843.616	23185
843.752	22934
843.889	22968
844.025	23075
844.162	22896
844.298	23064
844.435	22881
844.571	22885
844.708	22957
844.844	23174
844.98	23044
845.117	23006
845.253	22854
845.389	22862
845.525	22854
845.661	22733
845.798	22725
845.934	22664
846.07	22687
846.206	22767
846.342	22850
846.478	22653
846.614	22455
846.75	22341
846.886	22382
847.022	22455
847.158	22413
847.294	22386
847.429	22421
847.565	22424
847.701	22721
847.837	22200
847.972	22036
848.108	22185
848.244	22287
848.379	22048
848.515	21956
848.65	21918
848.786	22032
848.921	22101
849.057	22101
849.192	22036
849.328	22036
849.463	21915
849.598	21880
849.734	21884
849.869	21785
850.004	21599
850.14	21842
850.275	21705
850.41	21701
850.545	21667
850.68	21816
850.815	21701
850.95	21842
851.085	21888
851.22	21838
851.355	21720
851.49	21751
851.625	21789
851.76	21785
851.895	21618
852.03	21641
852.165	21762
852.299	21709
852.434	21838
852.569	21804
852.703	21827
852.838	21827
852.973	21926
853.107	21975
853.242	21606
853.376	21641
853.511	21466
853.645	21454
853.78	21751
853.914	21580
854.048	21603
854.183	21526
854.317	21568
854.451	21713
854.585	21622
854.72	21610
854.854	21637
854.988	21614
855.122	21576
855.256	21447
855.39	21561
855.524	21530
855.658	21660
855.792	21542
855.926	21648
856.06	21679
856.194	21622
856.327	21515
856.461	21488
856.595	21412
856.729	21610
856.862	21652
856.996	21686
857.13	21660
857.263	21648
857.397	21599
857.53	21553
857.664	21644
857.797	21751
857.931	21557
858.064	21682
858.197	21781
858.331	21492
858.464	21397
858.597	21428
858.731	21641
858.864	21675
858.997	21705
859.13	21511
859.263	21538
859.396	21660
859.529	21641
859.662	21553
859.795	21644
859.928	21663
860.061	21667
860.194	21682
860.327	21705
860.46	21500
860.592	21736
860.725	21679
860.858	21785
860.99	21576
861.123	21553
861.256	21557
861.388	21583
861.521	22029
861.653	21458
861.786	21325
861.918	21363
862.05	21492
862.183	21485
862.315	21587
862.447	21477
862.58	21454
862.712	21256
862.844	21252
862.976	21416
863.108	21367
863.24	21686
863.372	21245
863.504	21351
863.636	21199
863.768	21412
863.9	21348
864.032	21142
864.164	21367
864.296	21313
864.428	21370
864.559	21233
864.691	21363
864.823	21165
864.954	21294
865.086	21344
865.217	21169
865.349	21066
865.48	21291
865.612	21161
865.743	21306
865.875	21256
866.006	21195
866.137	21199
866.269	21283
866.4	21055
866.531	21089
866.662	21077
866.793	21108
866.924	21214
867.055	21116
867.186	21157
867.317	21112
867.448	21085
867.579	21077
867.71	21051
867.841	21005
867.972	21226
868.103	21131
868.233	21142
868.364	21138
868.495	21203
868.625	21351
868.756	21393
868.886	21279
869.017	21264
869.147	21458
869.278	21420
869.408	21340
869.539	21325
869.669	21378
869.799	21454
869.929	21477
870.06	21420
870.19	21614
870.32	21618
870.45	21686
870.58	21846
870.71	21934
870.84	21895
870.97	21808
871.1	21663
871.23	21903
871.36	21911
871.489	21816
871.619	21941
871.749	22017
871.879	21968
872.008	22131
872.138	21937
872.267	21987
872.397	21861
872.526	21641
872.656	21751
872.785	21865
872.915	21945
873.044	22177
873.173	21968
873.303	22074
873.432	22002
873.561	22044
873.69	22029
873.819	22055
873.948	22070
874.077	21975
874.206	21941
874.335	21915
874.464	22109
874.593	22352
874.722	22242
874.851	22261
874.979	22379
875.108	22280
875.237	22143
875.365	22059
875.494	22166
875.623	22363
875.751	22128
875.88	22322
876.008	22428
876.136	22417
876.265	22596
876.393	22660
876.521	22713
876.65	22782
876.778	22675
876.906	22710
877.034	22512
877.162	22584
877.29	22500
877.418	22565
877.546	22523
877.674	22531
877.802	22542
877.93	22580
878.058	22531
878.185	22402
878.313	22523
878.441	22573
878.568	22257
878.696	22542
878.824	22573
878.951	22580
879.079	22679
879.206	22976
879.333	22653
879.461	22550
879.588	22706
879.715	22736
879.842	22828
879.97	22535
880.097	22386
880.224	22333
880.351	22436
880.478	22314
880.605	22432
880.732	22356
880.859	22618
880.986	22398
881.112	22375
881.239	22169
881.366	22181
881.493	22021
881.619	21953
881.746	22040
881.872	21987
881.999	21892
882.125	21998
882.252	21945
882.378	21865
882.505	22010
882.631	21800
882.757	21663
882.883	21701
883.01	21618
883.136	21644
883.262	21641
883.388	21557
883.514	21667
883.64	21671
883.766	21572
883.892	21466
884.018	21439
884.143	21477
884.269	21542
884.395	21340
884.52	21283
884.646	21355
884.772	21138
884.897	21013
885.023	21351
885.148	21287
885.274	21424
885.399	21370
885.524	21275
885.65	21348
885.775	21207
885.9	21093
886.025	21408
886.15	21325
886.275	21211
886.4	21157
886.525	21256
886.65	21195
886.775	21211
886.9	21332
887.025	21496
887.149	21157
887.274	20979
887.399	21074
887.523	21070
887.648	20941
887.773	20906
887.897	21161
888.021	21135
888.146	20967
888.27	21127
888.395	21157
888.519	21104
888.643	21096
888.767	21039
888.891	20929
889.015	20811
889.139	20864
889.263	20830
889.387	20960
889.511	21017
889.635	21013
889.759	20872
889.883	20842
890.006	20743
890.13	20883
890.254	20785
890.377	20762
890.501	20598
890.624	20583
890.748	20552
890.871	20533
890.995	20393
891.118	20206
891.241	20461
891.364	20385
891.488	20579
891.611	20313
891.734	20541
891.857	20396
891.98	20434
892.103	20400
892.226	20393
892.349	20366
892.471	20294
892.594	20286
892.717	20298
892.839	20275
892.962	20381
893.085	20358
893.207	20275
893.33	20221
893.452	20206
893.575	20362
893.697	20450
893.819	20358
893.941	20530
894.064	20492
894.186	20183
894.308	20237
894.43	20366
894.552	20450
894.674	20412
894.796	20187
894.918	20301
895.04	20233
895.161	20324
895.283	20282
895.405	20233
895.526	20434
895.648	20408
895.769	20404
895.891	20374
896.012	20408
896.134	20263
896.255	20385
896.376	20294
896.498	20377
896.619	20366
896.74	20248
896.861	20339
896.982	20541
897.103	20708
897.224	20465
897.345	20545
897.466	20473
897.587	20454
897.708	20648
897.828	20503
897.949	20484
898.07	20355
898.19	20518
898.311	20590
898.431	20594
898.552	20625
898.672	20632
898.792	20644
898.913	20514
899.033	20377
899.153	20347
899.273	20336
899.393	20248
899.513	20343
899.633	20195
899.753	20229
899.873	20320
899.993	20248
900.113	20256
900.232	20153
900.352	20244
900.472	20180
900.591	20039
900.711	20084
900.83	20012
900.95	20073
901.069	20119
901.189	19970
901.308	19776
901.427	19658
901.546	19586
901.665	19658
901.784	19597
901.904	19480
902.023	19495
902.141	19228
902.26	19171
902.379	19221
902.498	19175
902.617	19072
902.735	19217
902.854	19164
902.973	19091
903.091	18798
903.21	18764
903.328	18776
903.446	18589
903.565	18688
903.683	18597
903.801	18494
903.919	18570
904.038	18418
904.156	18467
904.274	18445
904.392	18422
904.51	18334
904.627	18296
904.745	18376
904.863	18445
904.981	18205
905.098	18114
905.216	18064
905.334	18060
905.451	17988
905.569	18064
905.686	18053
905.803	18030
905.921	17733
906.038	17942
906.155	17832
906.272	17741
906.389	17775
906.506	17619
906.623	17551
906.74	17608
906.857	17376
906.974	17551
907.091	17630
907.208	17661
907.324	17611
907.441	17425
907.557	17246
907.674	17273
907.79	17273
907.907	17242
908.023	17288
908.139	17299
908.256	17197
908.372	17178
908.488	17121
908.604	17079
908.72	17041
908.836	17014
908.952	16980
909.068	17102
909.184	17143
909.3	17022
909.415	17003
909.531	16999
909.647	16744
909.762	16820
909.878	16706
909.993	16675
910.108	16763
910.224	16603
910.339	16569
910.454	16596
910.57	16527
910.685	16440
910.8	16656
910.915	16656
911.03	16527
911.145	16276
911.259	16287
911.374	16352
911.489	16287
911.604	16150
911.718	16048
911.833	16147
911.947	15934
912.062	15899
912.176	16025
912.291	15949
912.405	16032
912.519	16291
912.633	16097
912.748	16021
912.862	15953
912.976	15915
913.09	15808
913.204	15759
913.318	15857
913.431	15934
913.545	15945
913.659	15915
913.772	15759
913.886	15694
914	15644
914.113	15759
914.226	15739
914.34	15751
914.453	15507
914.566	15644
914.68	15488
914.793	15606
914.906	15367
915.019	15321
915.132	15203
915.245	15252
915.358	15233
915.47	15195
915.583	15291
915.696	15302
915.809	15325
915.921	15249
916.034	15131
916.146	15108
916.259	15165
916.371	15260
916.483	15233
916.595	15112
916.708	15081
916.82	15047
916.932	15074
917.044	15108
917.156	15009
917.268	14861
917.38	14952
917.491	14941
917.603	14838
917.715	14948
917.826	15066
917.938	14914
918.049	14792
918.161	14975
918.272	14937
918.384	15043
918.495	14864
918.606	14663
918.717	14617
918.828	14762
918.939	14686
919.05	14590
919.161	14651
919.272	14537
919.383	14518
919.494	14705
919.604	14895
919.715	14716
919.826	14636
919.936	14659
920.047	14655
920.157	14762
920.267	14861
920.378	14648
920.488	14549
920.598	14804
920.708	15005
920.818	14834
920.928	14792
921.038	15005
921.148	14929
921.258	14659
921.368	14541
921.477	14556
921.587	14427
921.697	14225
921.806	14408
921.916	14206
922.025	14100
922.134	14062
922.244	13932
922.353	14100
922.462	13917
922.571	13898
922.68	13807
922.789	13727
922.898	13784
923.007	13674
923.116	13769
923.224	13753
923.333	13556
923.442	13540
923.55	13502
923.659	13529
923.767	13578
923.876	13358
923.984	13693
924.092	13369
924.201	13415
924.309	13457
924.417	13502
924.525	13373
924.633	13335
924.741	14385
924.849	13293
924.956	13407
925.064	13156
925.172	13076
925.279	13057
925.387	13095
925.494	13118
925.602	13194
925.709	13080
925.816	13072
925.924	13038
926.031	13133
926.138	13046
926.245	13053
926.352	12913
926.459	13206
926.566	13126
926.673	13000
926.779	12848
926.886	12829
926.993	12817
927.099	12601
927.206	12544
927.312	12582
927.419	12623
927.525	12612
927.631	12662
927.737	12429
927.843	12433
927.95	12407
928.056	12456
928.162	12407
928.267	12509
928.373	13198
928.479	12563
928.585	12334
928.69	12380
928.796	12460
928.901	12357
929.007	12148
929.112	12296
929.218	12414
929.323	12266
929.428	12270
929.533	12418
929.638	12163
929.743	12098
929.848	12167
929.953	12064
930.058	11946
930.163	11889
930.267	11965
930.372	12148
930.477	11771
930.581	12030
930.685	11950
930.79	11790
930.894	11798
930.998	11714
931.103	11931
931.207	11573
931.311	11410
931.415	11353
931.519	11162
931.623	11201
