Data from test_V78500241_1860.txt Node
Date: Fri Mar 25 15:54:41 CST 2022
User: usil
Spectrometer: V785-0024
Trigger mode: 0
Integration Time (sec): 4.000000E-1
Scans to average: 1
Nonlinearity correction enabled: false
Boxcar width: 0
Storing dark spectrum: false
XAxis mode: Wavelengths
Number of Pixels in Spectrum: 1024
>>>>>Begin Spectral Data<<<<<
801.071	28428
801.214	28333
801.356	28139
801.499	28143
801.641	27922
801.783	28070
801.926	27945
802.068	28010
802.211	27918
802.353	27926
802.496	27766
802.638	27667
802.78	27762
802.923	27534
803.065	27671
803.208	27530
803.35	27629
803.492	27865
803.635	27941
803.777	27701
803.919	27922
804.061	28322
804.204	27918
804.346	27987
804.488	27899
804.63	27949
804.773	27888
804.915	27895
805.057	27934
805.199	27956
805.341	27975
805.483	27960
805.626	28059
805.768	27953
805.91	27934
806.052	28070
806.194	28086
806.336	28158
806.478	28166
806.62	28078
806.762	28105
806.904	28375
807.046	28660
807.188	28459
807.33	28527
807.472	28546
807.614	28432
807.756	28550
807.898	28284
808.04	28299
808.182	28322
808.324	28481
808.465	28318
808.607	28672
808.749	28740
808.891	28713
809.033	28930
809.174	28767
809.316	28729
809.458	28649
809.6	28771
809.741	28892
809.883	29025
810.025	28972
810.166	29029
810.308	28984
810.45	28965
810.591	28904
810.733	28675
810.875	28721
811.016	28531
811.158	28611
811.299	28896
811.441	28866
811.582	28934
811.724	28809
811.865	28687
812.007	28736
812.148	28672
812.29	28725
812.431	28904
812.573	28991
812.714	29204
812.855	29254
812.997	29315
813.138	29391
813.279	29349
813.421	29292
813.562	29102
813.703	29071
813.845	28942
813.986	28740
814.127	28504
814.268	28531
814.41	28470
814.551	28329
814.692	28588
814.833	28409
814.974	28352
815.115	28546
815.256	28249
815.397	28348
815.539	28325
815.68	28318
815.821	28143
815.962	28249
816.103	28257
816.244	28215
816.385	28093
816.526	27983
816.666	27762
816.807	27694
816.948	27785
817.089	27648
817.23	27914
817.371	27652
817.512	27751
817.653	27728
817.793	27572
817.934	27648
818.075	27857
818.216	27812
818.356	27774
818.497	27572
818.638	27553
818.778	27504
818.919	27511
819.06	27652
819.2	27644
819.341	27705
819.481	27865
819.622	27770
819.762	28044
819.903	28166
820.043	27888
820.184	27717
820.324	27797
820.465	27991
820.605	27842
820.746	27728
820.886	27610
821.026	27873
821.167	27838
821.307	27888
821.447	27911
821.588	27667
821.728	27412
821.868	27367
822.008	27195
822.149	27233
822.289	27169
822.429	27047
822.569	26849
822.709	26838
822.849	26743
822.99	26758
823.13	26735
823.27	26727
823.41	26522
823.55	26469
823.69	26480
823.83	26480
823.97	26461
824.11	26294
824.25	26355
824.389	26412
824.529	26370
824.669	26358
824.809	26518
824.949	26377
825.089	26351
825.228	26347
825.368	26187
825.508	26351
825.648	26168
825.787	26343
825.927	26370
826.067	26187
826.206	26130
826.346	26275
826.485	26263
826.625	26244
826.765	26305
826.904	26301
827.044	26027
827.183	25963
827.323	25913
827.462	26134
827.601	26096
827.741	25803
827.88	26054
828.02	25826
828.159	25955
828.298	25982
828.437	26031
828.577	25913
828.716	26020
828.855	25868
828.994	25635
829.134	25681
829.273	25696
829.412	25586
829.551	25597
829.69	25601
829.829	25548
829.968	25753
830.107	25776
830.246	25578
830.385	25601
830.524	25571
830.663	25487
830.802	25453
830.941	25270
831.08	25247
831.219	25369
831.357	25343
831.496	25483
831.635	25327
831.774	25190
831.913	25152
832.051	25133
832.19	25080
832.329	25088
832.467	25008
832.606	24992
832.744	24871
832.883	24890
833.022	24935
833.16	25050
833.299	24859
833.437	25057
833.576	25069
833.714	25027
833.852	24970
833.991	24913
834.129	25038
834.267	25000
834.406	24935
834.544	25152
834.682	24924
834.821	24890
834.959	25194
835.097	24810
835.235	25046
835.373	25038
835.511	24863
835.65	24935
835.788	24859
835.926	24817
836.064	24509
836.202	24559
836.34	24875
836.478	24825
836.615	24711
836.753	24837
836.891	24875
837.029	24852
837.167	24745
837.305	24734
837.443	24661
837.58	24582
837.718	24635
837.856	24582
837.993	24582
838.131	24578
838.269	24490
838.406	24547
838.544	24456
838.681	24254
838.819	24273
838.956	24087
839.094	24060
839.231	24273
839.369	24270
839.506	24464
839.643	24399
839.781	24117
839.918	24140
840.055	24133
840.193	24133
840.33	24018
840.467	24079
840.604	24049
840.742	24239
840.879	23843
841.016	23954
841.153	23878
841.29	24140
841.427	23889
841.564	24125
841.701	23889
841.838	24018
841.975	23984
842.112	24015
842.249	23897
842.385	23745
842.522	24091
842.659	23950
842.796	23767
842.933	23809
843.069	23684
843.206	23729
843.343	23779
843.479	23714
843.616	23798
843.752	23562
843.889	23608
844.025	23684
844.162	23463
844.298	23581
844.435	23471
844.571	23417
844.708	23471
844.844	23665
844.98	23535
845.117	23611
845.253	23497
845.389	23307
845.525	23490
845.661	23315
845.798	23277
845.934	23307
846.07	23330
846.206	23284
846.342	23516
846.478	23166
846.614	23014
846.75	22835
846.886	23079
847.022	23067
847.158	22987
847.294	23060
847.429	23083
847.565	23064
847.701	23147
847.837	22782
847.972	22706
848.108	22763
848.244	22782
848.379	22618
848.515	22653
848.65	22588
848.786	22618
848.921	22546
849.057	22687
849.192	22672
849.328	22561
849.463	22599
849.598	22577
849.734	22436
849.869	22443
850.004	22466
850.14	22398
850.275	22306
850.41	22299
850.545	22299
850.68	22428
850.815	22382
850.95	22272
851.085	22481
851.22	22405
851.355	22436
851.49	22344
851.625	22207
851.76	22360
851.895	22200
852.03	22268
852.165	22234
852.299	22363
852.434	22344
852.569	22432
852.703	22360
852.838	22443
852.973	22531
853.107	22417
853.242	22325
853.376	22257
853.511	22070
853.645	22135
853.78	22261
853.914	22032
854.048	22120
854.183	22173
854.317	22139
854.451	22363
854.585	22280
854.72	22135
854.854	22367
854.988	22166
855.122	22234
855.256	22109
855.39	22154
855.524	22192
855.658	22257
855.792	22150
855.926	22223
856.06	22246
856.194	22337
856.327	22215
856.461	22131
856.595	21994
856.729	22090
856.862	22230
856.996	22261
857.13	22185
857.263	22306
857.397	22166
857.53	22219
857.664	22226
857.797	22257
857.931	22344
858.064	22143
858.197	22363
858.331	22135
858.464	22162
858.597	22059
858.731	22090
858.864	22044
858.997	22093
859.13	22143
859.263	22234
859.396	22249
859.529	22211
859.662	22139
859.795	22143
859.928	22078
860.061	22261
860.194	22379
860.327	22219
860.46	22162
860.592	22253
860.725	22257
860.858	22200
860.99	22287
861.123	22162
861.256	22143
861.388	22112
861.521	23025
861.653	21975
861.786	21949
861.918	22078
862.05	21972
862.183	22143
862.315	21998
862.447	22070
862.58	22105
862.712	21922
862.844	21823
862.976	21949
863.108	21892
863.24	22348
863.372	21739
863.504	21774
863.636	21899
863.768	21895
863.9	21934
864.032	21804
864.164	21766
864.296	21991
864.428	21953
864.559	21945
864.691	21979
864.823	22025
864.954	21880
865.086	21865
865.217	21865
865.349	21739
865.48	21759
865.612	21648
865.743	21911
865.875	21804
866.006	21675
866.137	21694
866.269	21618
866.4	21720
866.531	21698
866.662	21728
866.793	21610
866.924	21698
867.055	21686
867.186	21759
867.317	21671
867.448	21568
867.579	21656
867.71	21523
867.841	21530
867.972	21652
868.103	21656
868.233	21690
868.364	21671
868.495	21759
868.625	21930
868.756	21899
868.886	21880
869.017	21895
869.147	21934
869.278	22135
869.408	21739
869.539	21895
869.669	22101
869.799	22010
869.929	22029
870.06	22010
870.19	22337
870.32	22280
870.45	22310
870.58	22348
870.71	22409
870.84	22284
870.97	22333
871.1	22306
871.23	22455
871.36	22622
871.489	22394
871.619	22466
871.749	22481
871.879	22656
872.008	22641
872.138	22592
872.267	22402
872.397	22379
872.526	22402
872.656	22382
872.785	22459
872.915	22626
873.044	22538
873.173	22508
873.303	22664
873.432	22580
873.561	22630
873.69	22500
873.819	22592
873.948	22596
874.077	22538
874.206	22470
874.335	22500
874.464	22630
874.593	22748
874.722	22713
874.851	22752
874.979	22850
875.108	22927
875.237	22721
875.365	22767
875.494	22774
875.623	22854
875.751	22786
875.88	22908
876.008	22908
876.136	22892
876.265	23147
876.393	23193
876.521	23246
876.65	23220
876.778	23185
876.906	23212
877.034	23094
877.162	23071
877.29	23056
877.418	23121
877.546	23124
877.674	23071
877.802	23162
877.93	22991
878.058	23018
878.185	23037
878.313	23067
878.441	23090
878.568	22908
878.696	22934
878.824	23128
878.951	23170
879.079	23178
879.206	23345
879.333	23315
879.461	23010
879.588	23231
879.715	23258
879.842	23280
879.97	23231
880.097	22995
880.224	22854
880.351	22991
880.478	22957
880.605	22778
880.732	22934
880.859	23166
880.986	22976
881.112	22908
881.239	22877
881.366	22603
881.493	22588
881.619	22481
881.746	22497
881.872	22470
881.999	22428
882.125	22390
882.252	22577
882.378	22478
882.505	22546
882.631	22344
882.757	22128
882.883	22287
883.01	22116
883.136	22173
883.262	22109
883.388	22070
883.514	22169
883.64	22226
883.766	22013
883.892	21930
884.018	21899
884.143	22223
884.269	22246
884.395	21926
884.52	21797
884.646	21812
884.772	21713
884.897	21667
885.023	21728
885.148	21903
885.274	21930
885.399	21903
885.524	21766
885.65	21808
885.775	21816
885.9	21785
886.025	21937
886.15	21865
886.275	21720
886.4	21747
886.525	21720
886.65	21675
886.775	21698
886.9	21983
887.025	22109
887.149	21831
887.274	21679
887.399	21652
887.523	21629
887.648	21492
887.773	21443
887.897	21599
888.021	21553
888.146	21515
888.27	21606
888.395	21549
888.519	21515
888.643	21663
888.767	21656
888.891	21424
889.015	21340
889.139	21401
889.263	21378
889.387	21420
889.511	21553
889.635	21294
889.759	21367
889.883	21397
890.006	21355
890.13	21523
890.254	21287
890.377	21218
890.501	21070
890.624	21142
890.748	21142
890.871	20944
890.995	20971
891.118	20880
891.241	20899
891.364	21005
891.488	21077
891.611	20910
891.734	20861
891.857	20986
891.98	20941
892.103	20994
892.226	20929
892.349	20921
892.471	20762
892.594	20857
892.717	20708
892.839	20785
892.962	20823
893.085	20979
893.207	20823
893.33	20632
893.452	20876
893.575	20857
893.697	20811
893.819	20918
893.941	20963
894.064	20876
894.186	20758
894.308	20746
894.43	20864
894.552	20963
894.674	20838
894.796	20594
894.918	20842
895.04	20724
895.161	20830
895.283	20708
895.405	20670
895.526	20811
895.648	20891
895.769	20876
895.891	20758
896.012	20929
896.134	20899
896.255	20819
896.376	20727
896.498	20765
896.619	20743
896.74	20663
896.861	20861
896.982	21100
897.103	21260
897.224	21013
897.345	21039
897.466	20895
897.587	20994
897.708	21138
897.828	21058
897.949	20830
898.07	20845
898.19	20861
898.311	20960
898.431	21066
898.552	20998
898.672	21017
898.792	21089
898.913	20933
899.033	20921
899.153	20845
899.273	20765
899.393	20750
899.513	20701
899.633	20815
899.753	20750
899.873	20663
899.993	20788
900.113	20575
900.232	20758
900.352	20678
900.472	20648
900.591	20511
900.711	20667
900.83	20465
900.95	20495
901.069	20552
901.189	20438
901.308	20202
901.427	20054
901.546	20115
901.665	20027
901.784	20111
901.904	19868
902.023	19936
902.141	19772
902.26	19624
902.379	19635
902.498	19613
902.617	19540
902.735	19620
902.854	19441
902.973	19381
903.091	19225
903.21	19187
903.328	19168
903.446	19126
903.565	19103
903.683	19137
903.801	19008
903.919	18875
904.038	19038
904.156	18821
904.274	18852
904.392	18829
904.51	18833
904.627	18852
904.745	18787
904.863	18894
904.981	18608
905.098	18414
905.216	18483
905.334	18506
905.451	18441
905.569	18525
905.686	18540
905.803	18388
905.921	18232
906.038	18471
906.155	18289
906.272	18060
906.389	18083
906.506	18152
906.623	18076
906.74	17996
906.857	17855
906.974	17843
907.091	17958
907.208	18110
907.324	18049
907.441	17863
907.557	17668
907.674	17752
907.79	17707
907.907	17672
908.023	17684
908.139	17687
908.256	17627
908.372	17661
908.488	17649
908.604	17573
908.72	17273
908.836	17429
908.952	17337
909.068	17505
909.184	17501
909.3	17391
909.415	17452
909.531	17440
909.647	17193
909.762	17197
909.878	17109
909.993	17090
910.108	17071
910.224	17071
910.339	17159
910.454	16965
910.57	16980
910.685	16831
910.8	17098
910.915	17136
911.03	16847
911.145	16740
911.259	16721
911.374	16611
911.489	16702
911.604	16580
911.718	16489
911.833	16478
911.947	16382
912.062	16265
912.176	16413
912.291	16584
912.405	16436
912.519	16607
912.633	16626
912.748	16428
912.862	16466
912.976	16287
913.09	16139
913.204	16284
913.318	16226
913.431	16390
913.545	16299
913.659	16318
913.772	16204
913.886	16029
914	16055
914.113	16169
914.226	16158
914.34	16154
914.453	15949
914.566	16112
914.68	15892
914.793	15975
914.906	15667
915.019	15663
915.132	15610
915.245	15625
915.358	15652
915.47	15736
915.583	15625
915.696	15648
915.809	15660
915.921	15835
916.034	15538
916.146	15603
916.259	15534
916.371	15660
916.483	15530
916.595	15561
916.708	15595
916.82	15462
916.932	15469
917.044	15416
917.156	15370
917.268	15252
917.38	15256
917.491	15298
917.603	15222
917.715	15287
917.826	15348
917.938	15119
918.049	15112
918.161	15298
918.272	15340
918.384	15298
918.495	15176
918.606	15123
918.717	14967
918.828	15081
918.939	15135
919.05	14914
919.161	15024
919.272	14807
919.383	14982
919.494	14960
919.604	15176
919.715	14994
919.826	14849
919.936	14929
920.047	14982
920.157	14986
920.267	15241
920.378	15062
920.488	15001
920.598	15123
920.708	15275
920.818	15138
920.928	15043
921.038	15241
921.148	15226
921.258	14872
921.368	14819
921.477	14727
921.587	14716
921.697	14629
921.806	14811
921.916	14610
922.025	14396
922.134	14457
922.244	14248
922.353	14408
922.462	14221
922.571	14126
922.68	14138
922.789	14058
922.898	14050
923.007	13959
923.116	14001
923.224	13963
923.333	14027
923.442	13883
923.55	13818
923.659	13822
923.767	13928
923.876	13761
923.984	13936
924.092	13647
924.201	13704
924.309	13689
924.417	13712
924.525	13674
924.633	13620
924.741	14377
924.849	13441
924.956	13578
925.064	13392
925.172	13400
925.279	13384
925.387	13426
925.494	13438
925.602	13544
925.709	13449
925.816	13339
925.924	13266
926.031	13308
926.138	13403
926.245	13324
926.352	13179
926.459	13324
926.566	13339
926.673	13270
926.779	13076
926.886	13099
926.993	13038
927.099	12810
927.206	12829
927.312	12882
927.419	12962
927.525	12939
927.631	12920
927.737	12840
927.843	12806
927.95	12623
928.056	12681
928.162	12715
928.267	12795
928.373	13270
928.479	12776
928.585	12593
928.69	12745
928.796	12688
928.901	12570
929.007	12460
929.112	12574
929.218	12547
929.323	12486
929.428	12407
929.533	12620
929.638	12494
929.743	12452
929.848	12479
929.953	12388
930.058	12311
930.163	12140
930.267	12125
930.372	12266
930.477	12095
930.581	12311
930.685	12136
930.79	12076
930.894	11984
930.998	11920
931.103	12060
931.207	11718
931.311	11668
931.415	11657
931.519	11345
931.623	11360
