Data from test_V78500241_1085.txt Node
Date: Fri Mar 25 15:49:19 CST 2022
User: usil
Spectrometer: V785-0024
Trigger mode: 0
Integration Time (sec): 4.000000E-1
Scans to average: 1
Nonlinearity correction enabled: false
Boxcar width: 0
Storing dark spectrum: false
XAxis mode: Wavelengths
Number of Pixels in Spectrum: 1024
>>>>>Begin Spectral Data<<<<<
801.071	28344
801.214	28306
801.356	28093
801.499	27930
801.641	27914
801.783	27880
801.926	27945
802.068	27747
802.211	27846
802.353	27641
802.496	27629
802.638	27606
802.78	27629
802.923	27378
803.065	27519
803.208	27477
803.35	27618
803.492	27542
803.635	27648
803.777	27576
803.919	27720
804.061	28128
804.204	27835
804.346	27679
804.488	27648
804.63	27739
804.773	27622
804.915	27766
805.057	27781
805.199	27694
805.341	27774
805.483	27956
805.626	27899
805.768	27656
805.91	27861
806.052	27964
806.194	27918
806.336	27895
806.478	28002
806.62	27895
806.762	28048
806.904	28177
807.046	28371
807.188	28287
807.33	28219
807.472	28367
807.614	28188
807.756	28242
807.898	28192
808.04	28063
808.182	28253
808.324	28070
808.465	28219
808.607	28440
808.749	28691
808.891	28778
809.033	28611
809.174	28637
809.316	28371
809.458	28584
809.6	28596
809.741	28664
809.883	28839
810.025	28877
810.166	28892
810.308	28812
810.45	28710
810.591	28816
810.733	28656
810.875	28622
811.016	28550
811.158	28405
811.299	28672
811.441	28698
811.582	28862
811.724	28607
811.865	28706
812.007	28550
812.148	28542
812.29	28645
812.431	28774
812.573	28968
812.714	28927
812.855	29109
812.997	29151
813.138	29296
813.279	29315
813.421	29098
813.562	29121
813.703	28809
813.845	28816
813.986	28405
814.127	28371
814.268	28325
814.41	28356
814.551	28390
814.692	28428
814.833	28367
814.974	28188
815.115	28131
815.256	28086
815.397	28124
815.539	28139
815.68	28006
815.821	27994
815.962	28059
816.103	28128
816.244	27831
816.385	27934
816.526	27857
816.666	27728
816.807	27492
816.948	27564
817.089	27633
817.23	27576
817.371	27553
817.512	27580
817.653	27519
817.793	27606
817.934	27701
818.075	27561
818.216	27564
818.356	27447
818.497	27549
818.638	27291
818.778	27310
818.919	27348
819.06	27325
819.2	27462
819.341	27538
819.481	27580
819.622	27751
819.762	27968
819.903	27812
820.043	27770
820.184	27686
820.324	27705
820.465	27793
820.605	27759
820.746	27675
820.886	27595
821.026	27679
821.167	27694
821.307	27724
821.447	27747
821.588	27542
821.728	27317
821.868	27283
822.008	26990
822.149	27036
822.289	27009
822.429	26868
822.569	26838
822.709	26762
822.849	26507
822.99	26560
823.13	26518
823.27	26499
823.41	26488
823.55	26358
823.69	26465
823.83	26446
823.97	26389
824.11	26176
824.25	26290
824.389	26161
824.529	26427
824.669	26225
824.809	26507
824.949	26229
825.089	26317
825.228	26313
825.368	26084
825.508	26062
825.648	26062
825.787	26016
825.927	26081
826.067	25989
826.206	26046
826.346	26058
826.485	26180
826.625	26210
826.765	26206
826.904	26157
827.044	25966
827.183	25788
827.323	25761
827.462	25860
827.601	25746
827.741	25727
827.88	25966
828.02	25670
828.159	25712
828.298	25723
828.437	25932
828.577	25746
828.716	25966
828.855	25689
828.994	25544
829.134	25506
829.273	25502
829.412	25308
829.551	25422
829.69	25677
829.829	25483
829.968	25415
830.107	25506
830.246	25559
830.385	25388
830.524	25289
830.663	25209
830.802	25392
830.941	25202
831.08	25046
831.219	25187
831.357	25198
831.496	25354
831.635	25084
831.774	24833
831.913	24943
832.051	24829
832.19	24798
832.329	24863
832.467	24760
832.606	24730
832.744	24669
832.883	24741
833.022	24745
833.16	24810
833.299	24913
833.437	24734
833.576	24848
833.714	24859
833.852	24939
833.991	24821
834.129	24966
834.267	24837
834.406	24882
834.544	24852
834.682	24875
834.821	24878
834.959	24943
835.097	24783
835.235	24947
835.373	24825
835.511	24703
835.65	24616
835.788	24719
835.926	24661
836.064	24483
836.202	24528
836.34	24631
836.478	24749
836.615	24513
836.753	24604
836.891	24696
837.029	24574
837.167	24608
837.305	24544
837.443	24498
837.58	24479
837.718	24490
837.856	24433
837.993	24433
838.131	24525
838.269	24350
838.406	24391
838.544	24266
838.681	24243
838.819	24129
838.956	24007
839.094	23908
839.231	23999
839.369	24125
839.506	24243
839.643	24144
839.781	24030
839.918	23992
840.055	23999
840.193	23859
840.33	23935
840.467	23954
840.604	23882
840.742	24144
840.879	23707
841.016	23813
841.153	23809
841.29	23901
841.427	23920
841.564	23908
841.701	23882
841.838	23828
841.975	23680
842.112	23798
842.249	23817
842.385	23687
842.522	23920
842.659	23722
842.796	23501
842.933	23707
843.069	23604
843.206	23604
843.343	23661
843.479	23482
843.616	23608
843.752	23402
843.889	23376
844.025	23501
844.162	23250
844.298	23524
844.435	23299
844.571	23383
844.708	23490
844.844	23642
844.98	23573
845.117	23471
845.253	23406
845.389	23383
845.525	23334
845.661	23280
845.798	23200
845.934	23239
846.07	23273
846.206	23166
846.342	23265
846.478	23105
846.614	23029
846.75	22778
846.886	22763
847.022	22942
847.158	22930
847.294	22831
847.429	22847
847.565	22736
847.701	23159
847.837	22634
847.972	22603
848.108	22778
848.244	22660
848.379	22535
848.515	22443
848.65	22485
848.786	22440
848.921	22390
849.057	22596
849.192	22538
849.328	22516
849.463	22390
849.598	22402
849.734	22276
849.869	22284
850.004	22109
850.14	22242
850.275	22207
850.41	22246
850.545	22158
850.68	22120
850.815	22150
850.95	22249
851.085	22329
851.22	22276
851.355	22128
851.49	22207
851.625	22166
851.76	22154
851.895	22154
852.03	22070
852.165	22223
852.299	22234
852.434	22291
852.569	22143
852.703	22261
852.838	22295
852.973	22325
853.107	22344
853.242	22177
853.376	22063
853.511	21888
853.645	22044
853.78	22105
853.914	22010
854.048	21911
854.183	21926
854.317	21975
854.451	22139
854.585	22070
854.72	22063
854.854	22021
854.988	22002
855.122	22051
855.256	21918
855.39	22135
855.524	22086
855.658	22116
855.792	22105
855.926	21975
856.06	22093
856.194	22181
856.327	22025
856.461	21922
856.595	21998
856.729	21930
856.862	22253
856.996	21926
857.13	22150
857.263	22093
857.397	22070
857.53	21937
857.664	22070
857.797	22059
857.931	22166
858.064	22078
858.197	22196
858.331	21987
858.464	22059
858.597	22010
858.731	21899
858.864	21945
858.997	21983
859.13	22067
859.263	22082
859.396	22055
859.529	22067
859.662	21987
859.795	21972
859.928	22040
860.061	22211
860.194	22280
860.327	22029
860.46	22025
860.592	22181
860.725	22169
860.858	22185
860.99	21964
861.123	21903
861.256	21888
861.388	21911
861.521	22733
861.653	21968
861.786	21747
861.918	21869
862.05	21774
862.183	21956
862.315	21949
862.447	21956
862.58	21876
862.712	21743
862.844	21713
862.976	21926
863.108	21679
863.24	22287
863.372	21823
863.504	21751
863.636	21766
863.768	21816
863.9	21781
864.032	21599
864.164	21728
864.296	21717
864.428	21876
864.559	21766
864.691	21823
864.823	21713
864.954	21785
865.086	21675
865.217	21629
865.349	21679
865.48	21496
865.612	21686
865.743	21648
865.875	21637
866.006	21473
866.137	21599
866.269	21701
866.4	21587
866.531	21599
866.662	21500
866.793	21580
866.924	21576
867.055	21515
867.186	21610
867.317	21481
867.448	21435
867.579	21557
867.71	21568
867.841	21526
867.972	21603
868.103	21488
868.233	21473
868.364	21561
868.495	21564
868.625	21785
868.756	21694
868.886	21720
869.017	21838
869.147	21953
869.278	21884
869.408	21774
869.539	21797
869.669	21865
869.799	21759
869.929	21869
870.06	21975
870.19	22215
870.32	22078
870.45	22215
870.58	22063
870.71	22261
870.84	22310
870.97	22219
871.1	22215
871.23	22284
871.36	22405
871.489	22242
871.619	22299
871.749	22284
871.879	22398
872.008	22409
872.138	22398
872.267	22455
872.397	22204
872.526	22177
872.656	22215
872.785	22207
872.915	22440
873.044	22455
873.173	22367
873.303	22303
873.432	22466
873.561	22462
873.69	22436
873.819	22432
873.948	22497
874.077	22481
874.206	22405
874.335	22405
874.464	22504
874.593	22599
874.722	22592
874.851	22660
874.979	22577
875.108	22630
875.237	22451
875.365	22565
875.494	22569
875.623	22615
875.751	22607
875.88	22615
876.008	22812
876.136	22843
876.265	22965
876.393	23075
876.521	23105
876.65	23003
876.778	22987
876.906	22892
877.034	22908
877.162	22904
877.29	22980
877.418	22991
877.546	22930
877.674	23044
877.802	22961
877.93	22995
878.058	22896
878.185	22896
878.313	22854
878.441	22919
878.568	22702
878.696	22869
878.824	23010
878.951	23086
879.079	23124
879.206	23341
879.333	23212
879.461	23010
879.588	23117
879.715	23025
879.842	23212
879.97	22949
880.097	22733
880.224	22816
880.351	22854
880.478	22774
880.605	22793
880.732	22858
880.859	22858
880.986	22850
881.112	22733
881.239	22725
881.366	22489
881.493	22424
881.619	22329
881.746	22455
881.872	22512
881.999	22356
882.125	22253
882.252	22390
882.378	22348
882.505	22325
882.631	22265
882.757	22128
882.883	22196
883.01	21930
883.136	21945
883.262	21907
883.388	21823
883.514	22082
883.64	22032
883.766	21911
883.892	21865
884.018	21819
884.143	22139
884.269	22074
884.395	21812
884.52	21572
884.646	21625
884.772	21633
884.897	21583
885.023	21591
885.148	21774
885.274	21720
885.399	21819
885.524	21709
885.65	21739
885.775	21709
885.9	21652
886.025	21629
886.15	21720
886.275	21606
886.4	21564
886.525	21694
886.65	21500
886.775	21553
886.9	21770
887.025	21861
887.149	21641
887.274	21473
887.399	21447
887.523	21355
887.648	21294
887.773	21298
887.897	21580
888.021	21511
888.146	21340
888.27	21545
888.395	21401
888.519	21450
888.643	21370
888.767	21420
888.891	21279
889.015	21230
889.139	21283
889.263	21218
889.387	21321
889.511	21519
889.635	21378
889.759	21081
889.883	21283
890.006	21245
890.13	21222
890.254	21237
890.377	21108
890.501	20975
890.624	20963
890.748	20971
890.871	20750
890.995	20792
891.118	20769
891.241	20845
891.364	20819
891.488	20914
891.611	20956
891.734	20933
891.857	20853
891.98	20880
892.103	20830
892.226	20857
892.349	20606
892.471	20651
892.594	20746
892.717	20754
892.839	20507
892.962	20765
893.085	20838
893.207	20693
893.33	20545
893.452	20629
893.575	20708
893.697	20670
893.819	20807
893.941	20864
894.064	20773
894.186	20556
894.308	20575
894.43	20754
894.552	20800
894.674	20705
894.796	20621
894.918	20575
895.04	20724
895.161	20678
895.283	20773
895.405	20667
895.526	20609
895.648	20746
895.769	20777
895.891	20861
896.012	20746
896.134	20788
896.255	20640
896.376	20727
896.498	20708
896.619	20792
896.74	20727
896.861	20743
896.982	20986
897.103	21119
897.224	20944
897.345	20963
897.466	20899
897.587	20971
897.708	21131
897.828	20986
897.949	20910
898.07	20800
898.19	20785
898.311	21024
898.431	20857
898.552	21062
898.672	21020
898.792	21066
898.913	20944
899.033	20735
899.153	20670
899.273	20659
899.393	20568
899.513	20602
899.633	20632
899.753	20670
899.873	20629
899.993	20678
900.113	20644
900.232	20648
900.352	20480
900.472	20556
900.591	20461
900.711	20431
900.83	20374
900.95	20545
901.069	20450
901.189	20290
901.308	20084
901.427	19986
901.546	19894
901.665	20035
901.784	19974
901.904	19818
902.023	19696
902.141	19597
902.26	19514
902.379	19651
902.498	19605
902.617	19426
902.735	19430
902.854	19518
902.973	19449
903.091	19221
903.21	19175
903.328	19099
903.446	19099
903.565	18878
903.683	18981
903.801	18875
903.919	18817
904.038	18909
904.156	18757
904.274	18802
904.392	18684
904.51	18623
904.627	18665
904.745	18711
904.863	18696
904.981	18498
905.098	18429
905.216	18357
905.334	18464
905.451	18418
905.569	18452
905.686	18391
905.803	18361
905.921	18243
906.038	18285
906.155	18152
906.272	18053
906.389	18083
906.506	17969
906.623	18003
906.74	17961
906.857	17855
906.974	17824
907.091	17897
907.208	18068
907.324	17973
907.441	17794
907.557	17623
907.674	17615
907.79	17577
907.907	17577
908.023	17623
908.139	17630
908.256	17501
908.372	17547
908.488	17486
908.604	17372
908.72	17318
908.836	17478
908.952	17292
909.068	17299
909.184	17402
909.3	17311
909.415	17372
909.531	17273
909.647	17140
909.762	17075
909.878	17037
909.993	17041
910.108	16999
910.224	17037
910.339	17010
910.454	16927
910.57	16809
910.685	16744
910.8	16984
910.915	16980
911.03	16801
911.145	16721
911.259	16683
911.374	16588
911.489	16615
911.604	16508
911.718	16405
911.833	16451
911.947	16371
912.062	16268
912.176	16386
912.291	16375
912.405	16398
912.519	16599
912.633	16478
912.748	16337
912.862	16257
912.976	16223
913.09	16093
913.204	16185
913.318	16173
913.431	16226
913.545	16242
913.659	16257
913.772	16067
913.886	16093
914	15915
914.113	15960
914.226	16002
914.34	16067
914.453	15899
914.566	15926
914.68	15861
914.793	15823
914.906	15618
915.019	15641
915.132	15572
915.245	15568
915.358	15568
915.47	15492
915.583	15447
915.696	15526
915.809	15656
915.921	15717
916.034	15504
916.146	15462
916.259	15431
916.371	15523
916.483	15462
916.595	15386
916.708	15370
916.82	15447
916.932	15287
917.044	15393
917.156	15351
917.268	15154
917.38	15310
917.491	15165
917.603	15214
917.715	15310
917.826	15252
917.938	15146
918.049	14929
918.161	15047
918.272	15260
918.384	15192
918.495	15142
918.606	15062
918.717	14895
918.828	14998
918.939	14979
919.05	14887
919.161	14929
919.272	14765
919.383	14807
919.494	14963
919.604	15112
919.715	14902
919.826	14811
919.936	14906
920.047	14876
920.157	14994
920.267	15100
920.378	14994
920.488	14914
920.598	15085
920.708	15180
920.818	15089
920.928	15085
921.038	15165
921.148	15074
921.258	14853
921.368	14743
921.477	14716
921.587	14640
921.697	14610
921.806	14667
921.916	14396
922.025	14389
922.134	14355
922.244	14286
922.353	14263
922.462	14172
922.571	14119
922.68	13982
922.789	13913
922.898	13917
923.007	13814
923.116	13955
923.224	13887
923.333	13750
923.442	13719
923.55	13681
923.659	13791
923.767	13734
923.876	13727
923.984	13731
924.092	13605
924.201	13628
924.309	13643
924.417	13693
924.525	13552
924.633	13575
924.741	14328
924.849	13388
924.956	13537
925.064	13438
925.172	13373
925.279	13213
925.387	13301
925.494	13301
925.602	13346
925.709	13415
925.816	13198
925.924	13232
926.031	13316
926.138	13320
926.245	13259
926.352	13213
926.459	13289
926.566	13301
926.673	13107
926.779	13008
926.886	13019
926.993	12966
927.099	12821
927.206	12901
927.312	12764
927.419	12951
927.525	12947
927.631	12916
927.737	12810
927.843	12734
927.95	12585
928.056	12741
928.162	12711
928.267	12715
928.373	13187
928.479	12707
928.585	12623
928.69	12593
928.796	12654
928.901	12486
929.007	12403
929.112	12494
929.218	12525
929.323	12407
929.428	12399
929.533	12551
929.638	12296
929.743	12254
929.848	12296
929.953	12350
930.058	12292
930.163	12041
930.267	12125
930.372	12205
930.477	12003
930.581	12266
930.685	12136
930.79	11965
930.894	11984
930.998	11931
931.103	12129
931.207	11748
931.311	11688
931.415	11554
931.519	11417
931.623	11349
