Data from test_V78500241_2518.txt Node
Date: Fri Mar 25 15:59:14 CST 2022
User: usil
Spectrometer: V785-0024
Trigger mode: 0
Integration Time (sec): 4.000000E-1
Scans to average: 1
Nonlinearity correction enabled: false
Boxcar width: 0
Storing dark spectrum: false
XAxis mode: Wavelengths
Number of Pixels in Spectrum: 1024
>>>>>Begin Spectral Data<<<<<
801.071	28824
801.214	28748
801.356	28455
801.499	28363
801.641	28375
801.783	28386
801.926	28451
802.068	28371
802.211	28261
802.353	28211
802.496	28013
802.638	28040
802.78	28059
802.923	27842
803.065	27892
803.208	27823
803.35	28010
803.492	28128
803.635	28318
803.777	28150
803.919	28322
804.061	28508
804.204	28230
804.346	28211
804.488	28215
804.63	28356
804.773	28128
804.915	28405
805.057	28379
805.199	28318
805.341	28428
805.483	28493
805.626	28478
805.768	28333
805.91	28424
806.052	28459
806.194	28379
806.336	28626
806.478	28424
806.62	28405
806.762	28466
806.904	28698
807.046	28862
807.188	28961
807.33	28968
807.472	28881
807.614	28748
807.756	28771
807.898	28771
808.04	28767
808.182	28523
808.324	28710
808.465	28713
808.607	28987
808.749	29102
808.891	29086
809.033	29322
809.174	29189
809.316	29140
809.458	29102
809.6	29124
809.741	29143
809.883	29326
810.025	29345
810.166	29322
810.308	29455
810.45	29345
810.591	29231
810.733	29159
810.875	29258
811.016	29132
811.158	29132
811.299	29200
811.441	29212
811.582	29033
811.724	29086
811.865	29143
812.007	29105
812.148	29094
812.29	29223
812.431	29326
812.573	29482
812.714	29604
812.855	29619
812.997	29710
813.138	30003
813.279	29691
813.421	29581
813.562	29623
813.703	29227
813.845	29417
813.986	29143
814.127	29025
814.268	28862
814.41	28839
814.551	28755
814.692	28999
814.833	28778
814.974	28797
815.115	28839
815.256	28831
815.397	28717
815.539	28710
815.68	28596
815.821	28519
815.962	28607
816.103	28763
816.244	28497
816.385	28474
816.526	28428
816.666	28371
816.807	28143
816.948	28268
817.089	28223
817.23	28253
817.371	28109
817.512	28097
817.653	28097
817.793	28074
817.934	28207
818.075	28131
818.216	28143
818.356	28082
818.497	27994
818.638	27884
818.778	27907
818.919	28017
819.06	27945
819.2	28055
819.341	28135
819.481	28154
819.622	28291
819.762	28649
819.903	28459
820.043	28253
820.184	28379
820.324	28211
820.465	28459
820.605	28219
820.746	28215
820.886	28112
821.026	28120
821.167	28280
821.307	28360
821.447	28139
821.588	28223
821.728	28086
821.868	27823
822.008	27774
822.149	27553
822.289	27583
822.429	27462
822.569	27302
822.709	27287
822.849	27188
822.99	27093
823.13	27146
823.27	27062
823.41	26971
823.55	26906
823.69	27005
823.83	26990
823.97	26944
824.11	26864
824.25	26743
824.389	26819
824.529	26887
824.669	26739
824.809	26918
824.949	26891
825.089	26861
825.228	26826
825.368	26549
825.508	26556
825.648	26754
825.787	26648
825.927	26739
826.067	26735
826.206	26568
826.346	26701
826.485	26788
826.625	26655
826.765	26937
826.904	26796
827.044	26469
827.183	26404
827.323	26358
827.462	26552
827.601	26400
827.741	26453
827.88	26461
828.02	26423
828.159	26221
828.298	26518
828.437	26522
828.577	26320
828.716	26556
828.855	26218
828.994	26008
829.134	26126
829.273	26008
829.412	26035
829.551	26027
829.69	26225
829.829	26122
829.968	26256
830.107	26115
830.246	26161
830.385	26062
830.524	25947
830.663	25936
830.802	25791
830.941	25860
831.08	25674
831.219	25791
831.357	25757
831.496	25928
831.635	25639
831.774	25628
831.913	25514
832.051	25495
832.19	25590
832.329	25556
832.467	25373
832.606	25350
832.744	25343
832.883	25411
833.022	25400
833.16	25335
833.299	25495
833.437	25365
833.576	25464
833.714	25350
833.852	25548
833.991	25529
834.129	25533
834.267	25544
834.406	25529
834.544	25453
834.682	25533
834.821	25301
834.959	25540
835.097	25362
835.235	25601
835.373	25499
835.511	25491
835.65	25316
835.788	25244
835.926	25110
836.064	25076
836.202	25137
836.34	25187
836.478	25365
836.615	25270
836.753	25350
836.891	25308
837.029	25403
837.167	25270
837.305	25244
837.443	25175
837.58	25133
837.718	25118
837.856	25069
837.993	25069
838.131	25110
838.269	24981
838.406	25046
838.544	24871
838.681	24612
838.819	24688
838.956	24563
839.094	24551
839.231	24631
839.369	24715
839.506	24943
839.643	24821
839.781	24429
839.918	24505
840.055	24479
840.193	24490
840.33	24361
840.467	24429
840.604	24441
840.742	24684
840.879	24380
841.016	24418
841.153	24209
841.29	24505
841.427	24330
841.564	24445
841.701	24327
841.838	24258
841.975	24418
842.112	24327
842.249	24342
842.385	24304
842.522	24490
842.659	24361
842.796	24228
842.933	24190
843.069	24220
843.206	24155
843.343	24243
843.479	24262
843.616	24319
843.752	23946
843.889	23878
844.025	24091
844.162	23965
844.298	24106
844.435	23980
844.571	23855
844.708	24102
844.844	24011
844.98	24152
845.117	24083
845.253	23836
845.389	23798
845.525	23882
845.661	23931
845.798	23649
845.934	23870
846.07	23794
846.206	23615
846.342	23916
846.478	23661
846.614	23592
846.75	23455
846.886	23379
847.022	23509
847.158	23543
847.294	23459
847.429	23516
847.565	23421
847.701	23653
847.837	23136
847.972	23208
848.108	23147
848.244	23269
848.379	23022
848.515	22953
848.65	22953
848.786	23048
848.921	23041
849.057	23010
849.192	23170
849.328	23113
849.463	22915
849.598	22786
849.734	23003
849.869	22968
850.004	22755
850.14	22843
850.275	22782
850.41	22736
850.545	22630
850.68	22801
850.815	22763
850.95	22858
851.085	23003
851.22	22923
851.355	22816
851.49	22797
851.625	22809
851.76	22824
851.895	22645
852.03	22797
852.165	22691
852.299	22839
852.434	22892
852.569	22824
852.703	22843
852.838	22801
852.973	22980
853.107	22858
853.242	22626
853.376	22634
853.511	22474
853.645	22653
853.78	22725
853.914	22630
854.048	22554
854.183	22557
854.317	22668
854.451	22778
854.585	22542
854.72	22569
854.854	22687
854.988	22500
855.122	22649
855.256	22459
855.39	22535
855.524	22786
855.658	22592
855.792	22573
855.926	22691
856.06	22683
856.194	22687
856.327	22489
856.461	22656
856.595	22542
856.729	22561
856.862	22542
856.996	22561
857.13	22615
857.263	22675
857.397	22729
857.53	22573
857.664	22687
857.797	22584
857.931	22752
858.064	22691
858.197	22744
858.331	22554
858.464	22622
858.597	22516
858.731	22626
858.864	22588
858.997	22485
859.13	22588
859.263	22561
859.396	22725
859.529	22481
859.662	22546
859.795	22538
859.928	22577
860.061	22679
860.194	22771
860.327	22675
860.46	22607
860.592	22664
860.725	22801
860.858	22717
860.99	22577
861.123	22493
861.256	22596
861.388	22516
861.521	23239
861.653	22436
861.786	22485
861.918	22375
862.05	22596
862.183	22485
862.315	22546
862.447	22618
862.58	22542
862.712	22329
862.844	22367
862.976	22451
863.108	22428
863.24	22717
863.372	22257
863.504	22402
863.636	22310
863.768	22386
863.9	22303
864.032	22223
864.164	22284
864.296	22375
864.428	22443
864.559	22455
864.691	22409
864.823	22394
864.954	22314
865.086	22379
865.217	22158
865.349	22116
865.48	22238
865.612	22139
865.743	22211
865.875	22211
866.006	22295
866.137	22367
866.269	22234
866.4	22246
866.531	22147
866.662	22010
866.793	22135
866.924	22147
867.055	22204
867.186	22101
867.317	22116
867.448	21945
867.579	22097
867.71	22013
867.841	21979
867.972	22067
868.103	21972
868.233	22192
868.364	22223
868.495	22196
868.625	22291
868.756	22421
868.886	22280
869.017	22402
869.147	22569
869.278	22390
869.408	22432
869.539	22390
869.669	22413
869.799	22390
869.929	22428
870.06	22379
870.19	22717
870.32	22599
870.45	22774
870.58	22736
870.71	22782
870.84	22828
870.97	22778
871.1	22820
871.23	22961
871.36	22911
871.489	22744
871.619	22968
871.749	22885
871.879	22790
872.008	23022
872.138	23029
872.267	22900
872.397	22869
872.526	22683
872.656	22930
872.785	22820
872.915	22824
873.044	23075
873.173	22987
873.303	22999
873.432	23064
873.561	22976
873.69	23094
873.819	22968
873.948	23022
874.077	22980
874.206	22881
874.335	22923
874.464	23094
874.593	23178
874.722	23166
874.851	23208
874.979	23204
875.108	23311
875.237	23227
875.365	23003
875.494	23216
875.623	23166
875.751	23132
875.88	23204
876.008	23395
876.136	23379
876.265	23615
876.393	23718
876.521	23604
876.65	23600
876.778	23638
876.906	23562
877.034	23554
877.162	23551
877.29	23417
877.418	23528
877.546	23478
877.674	23486
877.802	23501
877.93	23482
878.058	23497
878.185	23372
878.313	23448
878.441	23520
878.568	23334
878.696	23383
878.824	23531
878.951	23562
879.079	23615
879.206	23836
879.333	23668
879.461	23646
879.588	23665
879.715	23657
879.842	23836
879.97	23642
880.097	23379
880.224	23356
880.351	23372
880.478	23315
880.605	23303
880.732	23311
880.859	23471
880.986	23246
881.112	23391
881.239	23235
881.366	23052
881.493	22904
881.619	22927
881.746	22847
881.872	22843
881.999	22881
882.125	22771
882.252	22881
882.378	22862
882.505	23037
882.631	22721
882.757	22573
882.883	22675
883.01	22645
883.136	22470
883.262	22413
883.388	22318
883.514	22561
883.64	22672
883.766	22405
883.892	22257
884.018	22318
884.143	22500
884.269	22557
884.395	22322
884.52	22211
884.646	22116
884.772	22116
884.897	22078
885.023	22131
885.148	22234
885.274	22413
885.399	22303
885.524	22211
885.65	22181
885.775	22299
885.9	22215
886.025	22230
886.15	22223
886.275	22265
886.4	22188
886.525	22109
886.65	22188
886.775	22147
886.9	22238
887.025	22500
887.149	22238
887.274	22029
887.399	21911
887.523	21869
887.648	21819
887.773	21857
887.897	22002
888.021	22021
888.146	21873
888.27	21979
888.395	22044
888.519	22002
888.643	21949
888.767	22112
888.891	21903
889.015	21793
889.139	21778
889.263	21797
889.387	21964
889.511	21972
889.635	22032
889.759	21724
889.883	21755
890.006	21770
890.13	21793
890.254	21698
890.377	21568
890.501	21447
890.624	21526
890.748	21549
890.871	21317
890.995	21203
891.118	21317
891.241	21245
891.364	21260
891.488	21367
891.611	21355
891.734	21306
891.857	21519
891.98	21397
892.103	21325
892.226	21287
892.349	21241
892.471	21017
892.594	21298
892.717	21226
892.839	21173
892.962	21184
893.085	21256
893.207	21047
893.33	21017
893.452	21077
893.575	21230
893.697	21184
893.819	21249
893.941	21477
894.064	21325
894.186	21070
894.308	21127
894.43	21279
894.552	21241
894.674	21279
894.796	21074
894.918	21218
895.04	21081
895.161	21268
895.283	21211
895.405	21131
895.526	21188
895.648	21157
895.769	21165
895.891	21112
896.012	21268
896.134	21264
896.255	21108
896.376	21146
896.498	21298
896.619	21211
896.74	21112
896.861	21173
896.982	21458
897.103	21507
897.224	21523
897.345	21348
897.466	21412
897.587	21348
897.708	21564
897.828	21389
897.949	21283
898.07	21184
898.19	21249
898.311	21481
898.431	21321
898.552	21283
898.672	21500
898.792	21469
898.913	21294
899.033	21279
899.153	21077
899.273	21138
899.393	21154
899.513	20941
899.633	21165
899.753	21058
899.873	20929
899.993	21199
900.113	21089
900.232	21119
900.352	20971
900.472	21009
900.591	20845
900.711	20872
900.83	20834
900.95	20910
901.069	20899
901.189	20807
901.308	20526
901.427	20374
901.546	20446
901.665	20431
901.784	20499
901.904	20294
902.023	20199
902.141	20073
902.26	19944
902.379	20130
902.498	19868
902.617	19818
902.735	19928
902.854	19845
902.973	19856
903.091	19540
903.21	19559
903.328	19632
903.446	19525
903.565	19400
903.683	19354
903.801	19259
903.919	19312
904.038	19198
904.156	19110
904.274	19209
904.392	19126
904.51	19031
904.627	19012
904.745	19137
904.863	19266
904.981	18905
905.098	18810
905.216	18958
905.334	18894
905.451	18779
905.569	18696
905.686	18798
905.803	18764
905.921	18589
906.038	18757
906.155	18623
906.272	18525
906.389	18597
906.506	18361
906.623	18391
906.74	18365
906.857	18228
906.974	18155
907.091	18281
907.208	18464
907.324	18350
907.441	18262
907.557	18041
907.674	18049
907.79	17916
907.907	17988
908.023	18030
908.139	18091
908.256	17904
908.372	18045
908.488	17980
908.604	17939
908.72	17604
908.836	17710
908.952	17676
909.068	17779
909.184	17771
909.3	17676
909.415	17745
909.531	17748
909.647	17463
909.762	17493
909.878	17440
909.993	17455
910.108	17520
910.224	17360
910.339	17410
910.454	17307
910.57	17246
910.685	17136
910.8	17364
910.915	17246
911.03	17280
911.145	17018
911.259	17071
911.374	16953
911.489	16976
911.604	16850
911.718	16740
911.833	16729
911.947	16778
912.062	16649
912.176	16660
912.291	16759
912.405	16782
912.519	16949
912.633	16889
912.748	16710
912.862	16717
912.976	16569
913.09	16481
913.204	16497
913.318	16523
913.431	16607
913.545	16512
913.659	16558
913.772	16527
913.886	16417
914	16325
914.113	16402
914.226	16379
914.34	16371
914.453	16105
914.566	16394
914.68	16196
914.793	16249
914.906	16029
915.019	15983
915.132	15892
915.245	16010
915.358	15876
915.47	15968
915.583	15937
915.696	15949
915.809	16021
915.921	16025
916.034	15895
916.146	15781
916.259	15694
916.371	15979
916.483	15774
916.595	15789
916.708	15774
916.82	15709
916.932	15682
917.044	15778
917.156	15698
917.268	15538
917.38	15584
917.491	15496
917.603	15591
917.715	15686
917.826	15603
917.938	15458
918.049	15317
918.161	15435
918.272	15591
918.384	15663
918.495	15526
918.606	15386
918.717	15203
918.828	15344
918.939	15321
919.05	15268
919.161	15264
919.272	15100
919.383	15165
919.494	15245
919.604	15454
919.715	15264
919.826	15184
919.936	15226
920.047	15298
920.157	15306
920.267	15431
920.378	15237
920.488	15230
920.598	15344
920.708	15428
920.818	15389
920.928	15386
921.038	15511
921.148	15340
921.258	15192
921.368	15112
921.477	14990
921.587	14998
921.697	14716
921.806	14883
921.916	14800
922.025	14648
922.134	14644
922.244	14545
922.353	14648
922.462	14400
922.571	14446
922.68	14233
922.789	14271
922.898	14271
923.007	14119
923.116	14278
923.224	14153
923.333	14240
923.442	14123
923.55	14103
923.659	14005
923.767	14176
923.876	13982
923.984	14031
924.092	13936
924.201	13974
924.309	13921
924.417	13947
924.525	13868
924.633	13868
924.741	14625
924.849	13731
924.956	13818
925.064	13643
925.172	13533
925.279	13636
925.387	13639
925.494	13578
925.602	13757
925.709	13670
925.816	13491
925.924	13624
926.031	13605
926.138	13529
926.245	13628
926.352	13525
926.459	13578
926.566	13681
926.673	13502
926.779	13297
926.886	13247
926.993	13198
927.099	13164
927.206	13069
927.312	13027
927.419	13110
927.525	13198
927.631	13126
927.737	13034
927.843	12993
927.95	12837
928.056	12973
928.162	12977
928.267	13065
928.373	13609
928.479	13019
928.585	12848
928.69	12890
928.796	12970
928.901	12802
929.007	12662
929.112	12795
929.218	12795
929.323	12840
929.428	12673
929.533	12745
929.638	12528
929.743	12707
929.848	12620
929.953	12582
930.058	12479
930.163	12350
930.267	12308
930.372	12452
930.477	12323
930.581	12570
930.685	12338
930.79	12201
930.894	12270
930.998	12098
931.103	12342
931.207	11988
931.311	11863
931.415	11775
931.519	11596
931.623	11535
