Data from test_V78500241_1998.txt Node
Date: Fri Mar 25 15:55:38 CST 2022
User: usil
Spectrometer: V785-0024
Trigger mode: 0
Integration Time (sec): 4.000000E-1
Scans to average: 1
Nonlinearity correction enabled: false
Boxcar width: 0
Storing dark spectrum: false
XAxis mode: Wavelengths
Number of Pixels in Spectrum: 1024
>>>>>Begin Spectral Data<<<<<
801.071	28611
801.214	28554
801.356	28344
801.499	28261
801.641	28082
801.783	28211
801.926	28325
802.068	28299
802.211	28207
802.353	28078
802.496	28032
802.638	27968
802.78	27857
802.923	27797
803.065	27743
803.208	27816
803.35	27903
803.492	28002
803.635	28226
803.777	27911
803.919	28124
804.061	28424
804.204	28097
804.346	28093
804.488	28040
804.63	28036
804.773	28192
804.915	28322
805.057	28268
805.199	28185
805.341	28226
805.483	28348
805.626	28219
805.768	28276
805.91	28234
806.052	28367
806.194	28154
806.336	28329
806.478	28265
806.62	28379
806.762	28451
806.904	28603
807.046	28858
807.188	28873
807.33	28835
807.472	28790
807.614	28759
807.756	28717
807.898	28584
808.04	28519
808.182	28519
808.324	28634
808.465	28516
808.607	28892
808.749	28999
808.891	29079
809.033	29223
809.174	29037
809.316	28942
809.458	28991
809.6	28987
809.741	29018
809.883	29033
810.025	29353
810.166	29193
810.308	29296
810.45	29322
810.591	29136
810.733	28869
810.875	28938
811.016	28904
811.158	28812
811.299	29067
811.441	29185
811.582	29143
811.724	28949
811.865	28987
812.007	28991
812.148	28984
812.29	29029
812.431	29204
812.573	29258
812.714	29398
812.855	29528
812.997	29589
813.138	29714
813.279	29615
813.421	29516
813.562	29425
813.703	29493
813.845	29200
813.986	28881
814.127	28786
814.268	28725
814.41	28668
814.551	28588
814.692	28706
814.833	28596
814.974	28675
815.115	28691
815.256	28580
815.397	28615
815.539	28356
815.68	28493
815.821	28500
815.962	28649
816.103	28557
816.244	28329
816.385	28265
816.526	28253
816.666	28162
816.807	27953
816.948	28101
817.089	28109
817.23	27983
817.371	27998
817.512	27972
817.653	27937
817.793	27964
817.934	27926
818.075	28090
818.216	28044
818.356	27850
818.497	27941
818.638	27808
818.778	27747
818.919	27816
819.06	27759
819.2	27880
819.341	27964
819.481	28112
819.622	28036
819.762	28390
819.903	28265
820.043	28101
820.184	28143
820.324	28013
820.465	28234
820.605	28185
820.746	28070
820.886	28150
821.026	28101
821.167	28082
821.307	28032
821.447	28044
821.588	27911
821.728	27781
821.868	27671
822.008	27447
822.149	27424
822.289	27420
822.429	27211
822.569	27150
822.709	27188
822.849	26891
822.99	27066
823.13	27043
823.27	26937
823.41	26853
823.55	26811
823.69	26929
823.83	26815
823.97	26765
824.11	26560
824.25	26686
824.389	26659
824.529	26788
824.669	26606
824.809	26708
824.949	26697
825.089	26705
825.228	26743
825.368	26484
825.508	26476
825.648	26651
825.787	26488
825.927	26640
826.067	26533
826.206	26476
826.346	26492
826.485	26552
826.625	26526
826.765	26556
826.904	26606
827.044	26358
827.183	26233
827.323	26256
827.462	26438
827.601	26214
827.741	26115
827.88	26320
828.02	26161
828.159	26256
828.298	26267
828.437	26313
828.577	26126
828.716	26225
828.855	26183
828.994	25833
829.134	26005
829.273	25921
829.412	25826
829.551	25947
829.69	25921
829.829	26005
829.968	26073
830.107	26016
830.246	25902
830.385	25917
830.524	25761
830.663	25860
830.802	25601
830.941	25502
831.08	25594
831.219	25495
831.357	25529
831.496	25761
831.635	25559
831.774	25491
831.913	25479
832.051	25324
832.19	25263
832.329	25274
832.467	25160
832.606	25164
832.744	25095
832.883	25198
833.022	25217
833.16	25221
833.299	25122
833.437	25168
833.576	25331
833.714	25171
833.852	25312
833.991	25236
834.129	25324
834.267	25236
834.406	25228
834.544	25183
834.682	25324
834.821	25213
834.959	25259
835.097	25297
835.235	25282
835.373	25114
835.511	25103
835.65	25122
835.788	25107
835.926	25050
836.064	24901
836.202	25019
836.34	25099
836.478	25137
836.615	25072
836.753	25000
836.891	25190
837.029	25038
837.167	24954
837.305	25053
837.443	24859
837.58	24821
837.718	24970
837.856	24943
837.993	24837
838.131	24890
838.269	24772
838.406	24787
838.544	24787
838.681	24574
838.819	24475
838.956	24403
839.094	24388
839.231	24494
839.369	24612
839.506	24707
839.643	24627
839.781	24281
839.918	24281
840.055	24319
840.193	24228
840.33	24216
840.467	24243
840.604	24346
840.742	24517
840.879	24125
841.016	24117
841.153	24186
841.29	24296
841.427	24148
841.564	24353
841.701	24266
841.838	24266
841.975	24106
842.112	24121
842.249	24114
842.385	23977
842.522	24106
842.659	24163
842.796	23931
842.933	24072
843.069	23935
843.206	24038
843.343	24133
843.479	23946
843.616	23882
843.752	23832
843.889	23901
844.025	23912
844.162	23874
844.298	23889
844.435	23623
844.571	23771
844.708	23832
844.844	24034
844.98	23843
845.117	23931
845.253	23684
845.389	23699
845.525	23767
845.661	23710
845.798	23414
845.934	23558
846.07	23417
846.206	23566
846.342	23551
846.478	23531
846.614	23376
846.75	23258
846.886	23140
847.022	23261
847.158	23288
847.294	23288
847.429	23239
847.565	23212
847.701	23448
847.837	22904
847.972	23022
848.108	22968
848.244	23071
848.379	22828
848.515	22797
848.65	22908
848.786	22725
848.921	22812
849.057	22923
849.192	22976
849.328	22881
849.463	22847
849.598	22782
849.734	22778
849.869	22733
850.004	22542
850.14	22660
850.275	22611
850.41	22516
850.545	22546
850.68	22561
850.815	22679
850.95	22634
851.085	22778
851.22	22744
851.355	22630
851.49	22557
851.625	22634
851.76	22512
851.895	22561
852.03	22615
852.165	22660
852.299	22672
852.434	22607
852.569	22634
852.703	22713
852.838	22675
852.973	22801
853.107	22687
853.242	22641
853.376	22447
853.511	22367
853.645	22428
853.78	22554
853.914	22493
854.048	22341
854.183	22478
854.317	22516
854.451	22599
854.585	22310
854.72	22443
854.854	22535
854.988	22348
855.122	22436
855.256	22432
855.39	22314
855.524	22516
855.658	22508
855.792	22382
855.926	22584
856.06	22459
856.194	22554
856.327	22428
856.461	22390
856.595	22417
856.729	22417
856.862	22580
856.996	22386
857.13	22432
857.263	22596
857.397	22538
857.53	22402
857.664	22474
857.797	22432
857.931	22497
858.064	22405
858.197	22451
858.331	22375
858.464	22291
858.597	22318
858.731	22382
858.864	22356
858.997	22200
859.13	22303
859.263	22462
859.396	22489
859.529	22405
859.662	22261
859.795	22386
859.928	22493
860.061	22546
860.194	22535
860.327	22554
860.46	22500
860.592	22569
860.725	22557
860.858	22500
860.99	22394
861.123	22303
861.256	22436
861.388	22557
861.521	23098
861.653	22185
861.786	22188
861.918	22265
862.05	22360
862.183	22360
862.315	22356
862.447	22352
862.58	22257
862.712	22268
862.844	22181
862.976	22219
863.108	22162
863.24	22538
863.372	22063
863.504	22082
863.636	22185
863.768	22105
863.9	22082
864.032	22105
864.164	22120
864.296	22158
864.428	22268
864.559	22215
864.691	22284
864.823	22166
864.954	22185
865.086	22063
865.217	22070
865.349	21983
865.48	21991
865.612	21975
865.743	22177
865.875	22063
866.006	22013
866.137	21987
866.269	22010
866.4	21892
866.531	22010
866.662	21934
866.793	21915
866.924	21854
867.055	22010
867.186	21979
867.317	21949
867.448	21755
867.579	21975
867.71	21751
867.841	21800
867.972	21964
868.103	21911
868.233	21960
868.364	22063
868.495	22074
868.625	22097
868.756	22265
868.886	22063
869.017	22223
869.147	22284
869.278	22287
869.408	22226
869.539	22097
869.669	22253
869.799	22177
869.929	22402
870.06	22185
870.19	22485
870.32	22382
870.45	22584
870.58	22668
870.71	22824
870.84	22580
870.97	22607
871.1	22535
871.23	22645
871.36	22649
871.489	22733
871.619	22820
871.749	22759
871.879	22763
872.008	22949
872.138	22759
872.267	22805
872.397	22702
872.526	22740
872.656	22759
872.785	22691
872.915	22828
873.044	22812
873.173	22805
873.303	22771
873.432	22850
873.561	22911
873.69	22702
873.819	22801
873.948	22889
874.077	22778
874.206	22634
874.335	22755
874.464	22976
874.593	23033
874.722	22953
874.851	23060
874.979	22965
875.108	22900
875.237	23003
875.365	22866
875.494	22965
875.623	23010
875.751	22877
875.88	23079
876.008	23075
876.136	23121
876.265	23383
876.393	23551
876.521	23444
876.65	23493
876.778	23364
876.906	23341
877.034	23356
877.162	23356
877.29	23402
877.418	23391
877.546	23417
877.674	23376
877.802	23261
877.93	23269
878.058	23261
878.185	23143
878.313	23322
878.441	23459
878.568	23159
878.696	23322
878.824	23474
878.951	23421
879.079	23410
879.206	23608
879.333	23608
879.461	23326
879.588	23478
879.715	23562
879.842	23592
879.97	23425
880.097	23037
880.224	23174
880.351	23235
880.478	23231
880.605	23086
880.732	23147
880.859	23372
880.986	23113
881.112	23174
881.239	23003
881.366	22892
881.493	22710
881.619	22660
881.746	22729
881.872	22698
881.999	22679
882.125	22687
882.252	22729
882.378	22622
882.505	22809
882.631	22599
882.757	22500
882.883	22512
883.01	22417
883.136	22337
883.262	22272
883.388	22272
883.514	22413
883.64	22489
883.766	22360
883.892	22143
884.018	22314
884.143	22325
884.269	22462
884.395	22036
884.52	22032
884.646	22044
884.772	21964
884.897	22044
885.023	22067
885.148	22048
885.274	22181
885.399	22188
885.524	22124
885.65	22074
885.775	22025
885.9	22021
886.025	22154
886.15	21895
886.275	22055
886.4	21888
886.525	21915
886.65	21972
886.775	21975
886.9	22013
887.025	22150
887.149	22036
887.274	21793
887.399	21812
887.523	21850
887.648	21747
887.773	21564
887.897	21895
888.021	21884
888.146	21698
888.27	21861
888.395	21846
888.519	21846
888.643	21675
888.767	21778
888.891	21694
889.015	21652
889.139	21618
889.263	21507
889.387	21576
889.511	21774
889.635	21648
889.759	21519
889.883	21481
890.006	21800
890.13	21679
890.254	21492
890.377	21500
890.501	21329
890.624	21348
890.748	21416
890.871	21192
890.995	21074
891.118	21074
891.241	21135
891.364	21233
891.488	21256
891.611	21070
891.734	21142
891.857	21154
891.98	21058
892.103	21131
892.226	21055
892.349	21108
892.471	20918
892.594	21146
892.717	21032
892.839	21013
892.962	21077
893.085	21112
893.207	20967
893.33	20864
893.452	20933
893.575	21173
893.697	21066
893.819	21180
893.941	21245
894.064	21131
894.186	21017
894.308	20960
894.43	21062
894.552	21058
894.674	21043
894.796	20933
894.918	20895
895.04	20963
895.161	21104
895.283	21070
895.405	21013
895.526	20986
895.648	21051
895.769	20937
895.891	21077
896.012	21184
896.134	20994
896.255	21066
896.376	20960
896.498	20933
896.619	21062
896.74	20902
896.861	21146
896.982	21367
897.103	21545
897.224	21233
897.345	21218
897.466	21066
897.587	21211
897.708	21313
897.828	21264
897.949	21096
898.07	21146
898.19	21173
898.311	21325
898.431	21207
898.552	21249
898.672	21195
898.792	21249
898.913	21199
899.033	21051
899.153	20895
899.273	20830
899.393	20952
899.513	20994
899.633	20944
899.753	20986
899.873	20864
899.993	21036
900.113	20941
900.232	20925
900.352	20864
900.472	20864
900.591	20750
900.711	20807
900.83	20689
900.95	20807
901.069	20823
901.189	20632
901.308	20393
901.427	20427
901.546	20187
901.665	20301
901.784	20339
901.904	20161
902.023	20122
902.141	19746
902.26	19689
902.379	19894
902.498	19791
902.617	19655
902.735	19795
902.854	19807
902.973	19643
903.091	19548
903.21	19422
903.328	19422
903.446	19335
903.565	19251
903.683	19293
903.801	19145
903.919	19202
904.038	19171
904.156	18977
904.274	19099
904.392	18932
904.51	19084
904.627	19053
904.745	19012
904.863	19110
904.981	18817
905.098	18658
905.216	18711
905.334	18696
905.451	18692
905.569	18757
905.686	18791
905.803	18692
905.921	18410
906.038	18536
906.155	18388
906.272	18304
906.389	18426
906.506	18136
906.623	18262
906.74	18209
906.857	18114
906.974	18182
907.091	18190
907.208	18281
907.324	18163
907.441	18117
907.557	17866
907.674	17977
907.79	17874
907.907	17882
908.023	17942
908.139	17901
908.256	17817
908.372	17764
908.488	17783
908.604	17619
908.72	17676
908.836	17581
908.952	17695
909.068	17554
909.184	17726
909.3	17680
909.415	17710
909.531	17566
909.647	17258
909.762	17315
909.878	17322
909.993	17326
910.108	17254
910.224	17337
910.339	17341
910.454	17235
910.57	17064
910.685	17022
910.8	17345
910.915	17280
911.03	17022
911.145	16927
911.259	16934
911.374	16999
911.489	16763
911.604	16763
911.718	16679
911.833	16615
911.947	16569
912.062	16386
912.176	16622
912.291	16626
912.405	16577
912.519	16824
912.633	16839
912.748	16622
912.862	16584
912.976	16474
913.09	16424
913.204	16455
913.318	16386
913.431	16474
913.545	16497
913.659	16485
913.772	16333
913.886	16265
914	16211
914.113	16257
914.226	16337
914.34	16341
914.453	16082
914.566	16223
914.68	16150
914.793	16135
914.906	15876
915.019	15819
915.132	15743
915.245	15751
915.358	15804
915.47	15922
915.583	15781
915.696	15854
915.809	15968
915.921	15953
916.034	15785
916.146	15793
916.259	15701
916.371	15785
916.483	15705
916.595	15660
916.708	15545
916.82	15576
916.932	15561
917.044	15584
917.156	15622
917.268	15397
917.38	15500
917.491	15496
917.603	15439
917.715	15553
917.826	15534
917.938	15378
918.049	15264
918.161	15389
918.272	15504
918.384	15485
918.495	15367
918.606	15241
918.717	15150
918.828	15161
918.939	15279
919.05	15161
919.161	15249
919.272	14918
919.383	15131
919.494	15249
919.604	15332
919.715	15173
919.826	15005
919.936	15146
920.047	15199
920.157	15097
920.267	15275
920.378	15169
920.488	15100
920.598	15176
920.708	15447
920.818	15294
920.928	15317
921.038	15367
921.148	15424
921.258	15043
921.368	14979
921.477	14937
921.587	14876
921.697	14667
921.806	14948
921.916	14682
922.025	14621
922.134	14537
922.244	14511
922.353	14495
922.462	14389
922.571	14317
922.68	14145
922.789	14153
922.898	14115
923.007	14100
923.116	14161
923.224	14142
923.333	14084
923.442	14016
923.55	13902
923.659	14065
923.767	14050
923.876	13951
923.984	14069
924.092	13868
924.201	13841
924.309	13849
924.417	13826
924.525	13788
924.633	13750
924.741	14602
924.849	13578
924.956	13761
925.064	13506
925.172	13457
925.279	13548
925.387	13506
925.494	13590
925.602	13620
925.709	13597
925.816	13346
925.924	13430
926.031	13575
926.138	13495
926.245	13544
926.352	13445
926.459	13480
926.566	13632
926.673	13354
926.779	13289
926.886	13278
926.993	13065
927.099	13015
927.206	12989
927.312	13019
927.419	13080
927.525	13084
927.631	13145
927.737	13027
927.843	12977
927.95	12867
928.056	12878
928.162	12916
928.267	12962
928.373	13575
928.479	13019
928.585	12730
928.69	12840
928.796	12909
928.901	12905
929.007	12608
929.112	12783
929.218	12654
929.323	12566
929.428	12650
929.533	12734
929.638	12563
929.743	12589
929.848	12582
929.953	12528
930.058	12471
930.163	12239
930.267	12323
930.372	12407
930.477	12296
930.581	12448
930.685	12384
930.79	12175
930.894	12224
930.998	12167
931.103	12350
931.207	11946
931.311	11764
931.415	11722
931.519	11490
931.623	11585
