Data from test_V78500241_568.txt Node
Date: Fri Mar 25 15:45:44 CST 2022
User: usil
Spectrometer: V785-0024
Trigger mode: 0
Integration Time (sec): 4.000000E-1
Scans to average: 1
Nonlinearity correction enabled: false
Boxcar width: 0
Storing dark spectrum: false
XAxis mode: Wavelengths
Number of Pixels in Spectrum: 1024
>>>>>Begin Spectral Data<<<<<
801.071	27260
801.214	27192
801.356	27017
801.499	26883
801.641	26826
801.783	26724
801.926	26937
802.068	26746
802.211	26689
802.353	26613
802.496	26457
802.638	26339
802.78	26400
802.923	26339
803.065	26366
803.208	26301
803.35	26488
803.492	26606
803.635	26518
803.777	26507
803.919	26625
804.061	27001
804.204	26564
804.346	26568
804.488	26484
804.63	26571
804.773	26503
804.915	26598
805.057	26659
805.199	26533
805.341	26545
805.483	26678
805.626	26636
805.768	26590
805.91	26682
806.052	26617
806.194	26594
806.336	26804
806.478	26587
806.62	26701
806.762	26883
806.904	26849
807.046	27245
807.188	27169
807.33	27116
807.472	27138
807.614	27043
807.756	26967
807.898	26929
808.04	26887
808.182	26857
808.324	26785
808.465	26975
808.607	27135
808.749	27389
808.891	27477
809.033	27427
809.174	27374
809.316	27427
809.458	27382
809.6	27237
809.741	27351
809.883	27397
810.025	27492
810.166	27477
810.308	27595
810.45	27526
810.591	27492
810.733	27321
810.875	27344
811.016	27157
811.158	27226
811.299	27291
811.441	27344
811.582	27466
811.724	27245
811.865	27268
812.007	27161
812.148	27279
812.29	27332
812.431	27443
812.573	27671
812.714	27793
812.855	27785
812.997	27857
813.138	28078
813.279	27941
813.421	27808
813.562	27732
813.703	27709
813.845	27485
813.986	27188
814.127	27077
814.268	27089
814.41	26800
814.551	27005
814.692	26990
814.833	26982
814.974	26956
815.115	26906
815.256	26842
815.397	26849
815.539	26918
815.68	26731
815.821	26762
815.962	26785
816.103	26712
816.244	26632
816.385	26499
816.526	26549
816.666	26294
816.807	26191
816.948	26252
817.089	26305
817.23	26259
817.371	26286
817.512	26157
817.653	26180
817.793	26157
817.934	26267
818.075	26366
818.216	26423
818.356	26252
818.497	26081
818.638	26043
818.778	25894
818.919	25936
819.06	25909
819.2	26054
819.341	26206
819.481	26267
819.622	26370
819.762	26495
819.903	26453
820.043	26324
820.184	26377
820.324	26248
820.465	26301
820.605	26225
820.746	26366
820.886	26134
821.026	26256
821.167	26259
821.307	26366
821.447	26214
821.588	26092
821.728	25959
821.868	25803
822.008	25628
822.149	25578
822.289	25723
822.429	25354
822.569	25148
822.709	25346
822.849	25221
822.99	25156
823.13	25240
823.27	25042
823.41	24970
823.55	24878
823.69	24996
823.83	24962
823.97	24909
824.11	24684
824.25	24738
824.389	24916
824.529	24958
824.669	24852
824.809	24970
824.949	24973
825.089	24867
825.228	24783
825.368	24677
825.508	24639
825.648	24555
825.787	24604
825.927	24635
826.067	24650
826.206	24722
826.346	24593
826.485	24719
826.625	24574
826.765	24795
826.904	24639
827.044	24452
827.183	24426
827.323	24353
827.462	24441
827.601	24254
827.741	24273
827.88	24308
828.02	24308
828.159	24270
828.298	24475
828.437	24448
828.577	24270
828.716	24376
828.855	24273
828.994	24087
829.134	24041
829.273	24220
829.412	24026
829.551	24049
829.69	24053
829.829	23927
829.968	24163
830.107	24163
830.246	23988
830.385	24038
830.524	23942
830.663	23805
830.802	23836
830.941	23604
831.08	23657
831.219	23748
831.357	23752
831.496	23760
831.635	23703
831.774	23657
831.913	23516
832.051	23376
832.19	23334
832.329	23520
832.467	23318
832.606	23334
832.744	23296
832.883	23360
833.022	23360
833.16	23402
833.299	23406
833.437	23356
833.576	23425
833.714	23376
833.852	23516
833.991	23471
834.129	23410
834.267	23478
834.406	23322
834.544	23379
834.682	23372
834.821	23242
834.959	23687
835.097	23387
835.235	23490
835.373	23345
835.511	23395
835.65	23318
835.788	23231
835.926	23102
836.064	23037
836.202	23090
836.34	23368
836.478	23315
836.615	23189
836.753	23261
836.891	23334
837.029	23337
837.167	23242
837.305	23052
837.443	23056
837.58	23033
837.718	23250
837.856	23185
837.993	23014
838.131	23105
838.269	22987
838.406	22885
838.544	22850
838.681	22755
838.819	22782
838.956	22584
839.094	22580
839.231	22683
839.369	22691
839.506	22908
839.643	22843
839.781	22512
839.918	22409
840.055	22645
840.193	22443
840.33	22512
840.467	22561
840.604	22470
840.742	22793
840.879	22291
841.016	22409
841.153	22341
841.29	22599
841.427	22569
841.564	22554
841.701	22542
841.838	22402
841.975	22306
842.112	22379
842.249	22348
842.385	22124
842.522	22417
842.659	22314
842.796	22246
842.933	22306
843.069	22215
843.206	22177
843.343	22249
843.479	22234
843.616	22181
843.752	22051
843.889	22048
844.025	22116
844.162	21907
844.298	22082
844.435	22112
844.571	21941
844.708	22013
844.844	22196
844.98	22147
845.117	22185
845.253	21987
845.389	21797
845.525	21850
845.661	21835
845.798	21774
845.934	21755
846.07	21591
846.206	21816
846.342	21808
846.478	21747
846.614	21530
846.75	21500
846.886	21492
847.022	21515
847.158	21534
847.294	21511
847.429	21515
847.565	21526
847.701	21648
847.837	21298
847.972	21260
848.108	21302
848.244	21313
848.379	21051
848.515	21138
848.65	21108
848.786	21096
848.921	21024
849.057	21222
849.192	21154
849.328	21009
849.463	21112
849.598	20971
849.734	21028
849.869	20963
850.004	20842
850.14	20891
850.275	20929
850.41	20796
850.545	20849
850.68	20895
850.815	20944
850.95	20906
851.085	21005
851.22	20937
851.355	20830
851.49	20826
851.625	20826
851.76	20632
851.895	20933
852.03	20811
852.165	20743
852.299	20921
852.434	20811
852.569	20876
852.703	20849
852.838	21017
852.973	21001
853.107	20990
853.242	20762
853.376	20697
853.511	20705
853.645	20602
853.78	20754
853.914	20552
854.048	20693
854.183	20651
854.317	20708
854.451	20842
854.585	20712
854.72	20514
854.854	20769
854.988	20530
855.122	20651
855.256	20518
855.39	20705
855.524	20773
855.658	20739
855.792	20579
855.926	20773
856.06	20636
856.194	20739
856.327	20530
856.461	20625
856.595	20629
856.729	20590
856.862	20815
856.996	20644
857.13	20788
857.263	20769
857.397	20739
857.53	20667
857.664	20701
857.797	20842
857.931	20750
858.064	20697
858.197	20678
858.331	20678
858.464	20606
858.597	20552
858.731	20636
858.864	20492
858.997	20617
859.13	20533
859.263	20750
859.396	20697
859.529	20564
859.662	20644
859.795	20583
859.928	20697
860.061	20853
860.194	20746
860.327	20682
860.46	20716
860.592	20708
860.725	20876
860.858	20781
860.99	20674
861.123	20727
861.256	20598
861.388	20636
861.521	21119
861.653	20629
861.786	20461
861.918	20507
862.05	20473
862.183	20708
862.315	20511
862.447	20674
862.58	20583
862.712	20366
862.844	20267
862.976	20499
863.108	20415
863.24	20819
863.372	20336
863.504	20381
863.636	20431
863.768	20366
863.9	20370
864.032	20275
864.164	20267
864.296	20442
864.428	20457
864.559	20431
864.691	20495
864.823	20488
864.954	20377
865.086	20404
865.217	20434
865.349	20206
865.48	20362
865.612	20393
865.743	20351
865.875	20305
866.006	20301
866.137	20259
866.269	20336
866.4	20244
866.531	20313
866.662	20210
866.793	20278
866.924	20259
867.055	20313
867.186	20301
867.317	20191
867.448	20263
867.579	20317
867.71	20191
867.841	20282
867.972	20161
868.103	20244
868.233	20244
868.364	20237
868.495	20351
868.625	20434
868.756	20636
868.886	20381
869.017	20393
869.147	20568
869.278	20571
869.408	20434
869.539	20457
869.669	20484
869.799	20636
869.929	20621
870.06	20579
870.19	20762
870.32	20796
870.45	20864
870.58	20815
870.71	20925
870.84	20906
870.97	20815
871.1	20906
871.23	21051
871.36	21074
871.489	21028
871.619	20994
871.749	21104
871.879	21142
872.008	21195
872.138	21146
872.267	21093
872.397	20883
872.526	20933
872.656	20876
872.785	20914
872.915	21058
873.044	21146
873.173	21195
873.303	21104
873.432	21157
873.561	21264
873.69	21188
873.819	21074
873.948	21195
874.077	21119
874.206	21096
874.335	21119
874.464	21169
874.593	21485
874.722	21313
874.851	21294
874.979	21485
875.108	21469
875.237	21294
875.365	21222
875.494	21298
875.623	21264
875.751	21367
875.88	21207
876.008	21492
876.136	21614
876.265	21819
876.393	21835
876.521	21751
876.65	21709
876.778	21705
876.906	21618
877.034	21652
877.162	21610
877.29	21633
877.418	21694
877.546	21610
877.674	21587
877.802	21682
877.93	21728
878.058	21766
878.185	21545
878.313	21595
878.441	21698
878.568	21515
878.696	21648
878.824	21762
878.951	21622
879.079	21831
879.206	22048
879.333	21930
879.461	21755
879.588	21797
879.715	21956
879.842	21941
879.97	21679
880.097	21412
880.224	21519
880.351	21443
880.478	21412
880.605	21545
880.732	21504
880.859	21793
880.986	21576
881.112	21420
881.239	21367
881.366	21332
881.493	21138
881.619	21062
881.746	21161
881.872	21154
881.999	21100
882.125	21020
882.252	21036
882.378	21055
882.505	21127
882.631	20925
882.757	20830
882.883	20979
883.01	20765
883.136	20758
883.262	20678
883.388	20686
883.514	20811
883.64	20765
883.766	20686
883.892	20598
884.018	20648
884.143	20785
884.269	20834
884.395	20590
884.52	20404
884.646	20377
884.772	20278
884.897	20233
885.023	20480
885.148	20549
885.274	20571
885.399	20419
885.524	20465
885.65	20503
885.775	20404
885.9	20465
886.025	20571
886.15	20514
886.275	20305
886.4	20339
886.525	20415
886.65	20446
886.775	20324
886.9	20526
887.025	20781
887.149	20450
887.274	20278
887.399	20221
887.523	20202
887.648	20172
887.773	20149
887.897	20278
888.021	20187
888.146	20187
888.27	20320
888.395	20324
888.519	20339
888.643	20244
888.767	20351
888.891	20168
889.015	20016
889.139	20191
889.263	19997
889.387	20084
889.511	20317
889.635	20119
889.759	19955
889.883	19989
890.006	20084
890.13	20157
890.254	20001
890.377	19906
890.501	19826
890.624	19830
890.748	19894
890.871	19674
890.995	19624
891.118	19635
891.241	19635
891.364	19624
891.488	19738
891.611	19696
891.734	19464
891.857	19704
891.98	19651
892.103	19700
892.226	19723
892.349	19514
892.471	19525
892.594	19624
892.717	19609
892.839	19495
892.962	19487
893.085	19655
893.207	19548
893.33	19396
893.452	19476
893.575	19628
893.697	19518
893.819	19693
893.941	19746
894.064	19700
894.186	19457
894.308	19422
894.43	19548
894.552	19670
894.674	19628
894.796	19460
894.918	19449
895.04	19464
895.161	19609
895.283	19529
895.405	19476
895.526	19552
895.648	19483
895.769	19514
895.891	19613
896.012	19537
896.134	19651
896.255	19537
896.376	19499
896.498	19468
896.619	19582
896.74	19552
896.861	19647
896.982	19883
897.103	20062
897.224	19921
897.345	19803
897.466	19742
897.587	19753
897.708	19928
897.828	19807
897.949	19700
898.07	19624
898.19	19731
898.311	19791
898.431	19757
898.552	19715
898.672	19791
898.792	19704
898.913	19772
899.033	19761
899.153	19575
899.273	19445
899.393	19586
899.513	19548
899.633	19586
899.753	19464
899.873	19514
899.993	19677
900.113	19491
900.232	19480
900.352	19415
900.472	19419
900.591	19411
900.711	19491
900.83	19301
900.95	19343
901.069	19301
901.189	19179
901.308	18913
901.427	18772
901.546	18894
901.665	18932
901.784	18993
901.904	18787
902.023	18772
902.141	18532
902.26	18521
902.379	18475
902.498	18578
902.617	18494
902.735	18498
902.854	18357
902.973	18357
903.091	17969
903.21	18045
903.328	18049
903.446	18019
903.565	17950
903.683	17889
903.801	17775
903.919	17946
904.038	17878
904.156	17726
904.274	17718
904.392	17737
904.51	17623
904.627	17733
904.745	17764
904.863	17741
904.981	17490
905.098	17395
905.216	17299
905.334	17467
905.451	17398
905.569	17261
905.686	17288
905.803	17318
905.921	17166
906.038	17258
906.155	17216
906.272	17067
906.389	17136
906.506	16991
906.623	16850
906.74	17006
906.857	16786
906.974	16793
907.091	16911
907.208	16976
907.324	16927
907.441	16782
907.557	16668
907.674	16687
907.79	16523
907.907	16573
908.023	16618
908.139	16630
908.256	16542
908.372	16485
908.488	16500
908.604	16322
908.72	16280
908.836	16379
908.952	16310
909.068	16470
909.184	16413
909.3	16280
909.415	16371
909.531	16421
909.647	16135
909.762	16097
909.878	16040
909.993	16002
910.108	15968
910.224	15975
910.339	15953
910.454	15922
910.57	15873
910.685	15838
910.8	16021
910.915	15960
911.03	15838
911.145	15686
911.259	15660
911.374	15644
911.489	15599
911.604	15637
911.718	15397
911.833	15439
911.947	15348
912.062	15222
912.176	15397
912.291	15443
912.405	15408
912.519	15618
912.633	15580
912.748	15401
912.862	15332
912.976	15233
913.09	15146
913.204	15249
913.318	15180
913.431	15272
913.545	15275
913.659	15310
913.772	15157
913.886	15017
914	15032
914.113	14975
914.226	15165
914.34	15062
914.453	14944
914.566	15047
914.68	14963
914.793	14944
914.906	14743
915.019	14689
915.132	14610
915.245	14655
915.358	14701
915.47	14697
915.583	14598
915.696	14773
915.809	14754
915.921	14880
916.034	14587
916.146	14503
916.259	14492
916.371	14651
916.483	14644
916.595	14537
916.708	14568
916.82	14590
916.932	14427
917.044	14476
917.156	14434
917.268	14305
917.38	14362
917.491	14290
917.603	14317
917.715	14404
917.826	14427
917.938	14244
918.049	14161
918.161	14347
918.272	14442
918.384	14412
918.495	14305
918.606	14271
918.717	14065
918.828	14130
918.939	14088
919.05	14008
919.161	14069
919.272	13860
919.383	13955
919.494	14111
919.604	14252
919.715	14062
919.826	14020
919.936	13989
920.047	14138
920.157	14183
920.267	14218
920.378	14069
920.488	13993
920.598	14195
920.708	14362
920.818	14161
920.928	14176
921.038	14454
921.148	14267
921.258	14039
921.368	13947
921.477	13947
921.587	13822
921.697	13734
921.806	13791
921.916	13689
922.025	13544
922.134	13434
922.244	13407
922.353	13453
922.462	13377
922.571	13247
922.68	13183
922.789	13274
922.898	12996
923.007	13099
923.116	13129
923.224	13149
923.333	13122
923.442	12901
923.55	13038
923.659	12989
923.767	12913
923.876	12909
923.984	12985
924.092	12852
924.201	12943
924.309	12871
924.417	12905
924.525	12863
924.633	12817
924.741	13765
924.849	12604
924.956	12749
925.064	12551
925.172	12521
925.279	12544
925.387	12536
925.494	12665
925.602	12688
925.709	12551
925.816	12452
925.924	12547
926.031	12601
926.138	12483
926.245	12479
926.352	12361
926.459	12540
926.566	12555
926.673	12369
926.779	12353
926.886	12357
926.993	12216
927.099	12140
927.206	12102
927.312	12015
927.419	12258
927.525	12163
927.631	12152
927.737	11999
927.843	11980
927.95	11901
928.056	11920
928.162	11973
928.267	11996
928.373	12669
928.479	12049
928.585	11802
928.69	11946
928.796	11954
928.901	11908
929.007	11703
929.112	11870
929.218	11843
929.323	11668
929.428	11710
929.533	11828
929.638	11615
929.743	11699
929.848	11691
929.953	11623
930.058	11524
930.163	11501
930.267	11471
930.372	11577
930.477	11425
930.581	11642
930.685	11493
930.79	11250
930.894	11360
930.998	11303
931.103	11471
931.207	11014
931.311	11022
931.415	10980
931.519	10649
931.623	10649
