Data from test_V78500241_3115.txt Node
Date: Fri Mar 25 16:03:22 CST 2022
User: usil
Spectrometer: V785-0024
Trigger mode: 0
Integration Time (sec): 4.000000E-1
Scans to average: 1
Nonlinearity correction enabled: false
Boxcar width: 0
Storing dark spectrum: false
XAxis mode: Wavelengths
Number of Pixels in Spectrum: 1024
>>>>>Begin Spectral Data<<<<<
801.071	28557
801.214	28527
801.356	28333
801.499	28284
801.641	28166
801.783	28158
801.926	28207
802.068	28158
802.211	28078
802.353	28150
802.496	28013
802.638	27865
802.78	27892
802.923	27614
803.065	27720
803.208	27880
803.35	27808
803.492	28177
803.635	28002
803.777	27934
803.919	28116
804.061	28303
804.204	28162
804.346	28059
804.488	28010
804.63	28010
804.773	28086
804.915	28135
805.057	28226
805.199	28211
805.341	28246
805.483	28242
805.626	28181
805.768	28112
805.91	28234
806.052	28329
806.194	28135
806.336	28352
806.478	28181
806.62	28257
806.762	28462
806.904	28508
807.046	28892
807.188	28755
807.33	28641
807.472	28850
807.614	28679
807.756	28630
807.898	28649
808.04	28440
808.182	28531
808.324	28615
808.465	28615
808.607	28694
808.749	29064
808.891	29044
809.033	29086
809.174	28980
809.316	28888
809.458	28820
809.6	28923
809.741	28984
809.883	28972
810.025	29204
810.166	29220
810.308	29185
810.45	29151
810.591	29075
810.733	29010
810.875	28942
811.016	28812
811.158	28961
811.299	28965
811.441	29086
811.582	29132
811.724	29033
811.865	28938
812.007	28828
812.148	28908
812.29	29064
812.431	29250
812.573	29261
812.714	29349
812.855	29375
812.997	29516
813.138	29752
813.279	29528
813.421	29337
813.562	29383
813.703	29284
813.845	29155
813.986	28824
814.127	28771
814.268	28592
814.41	28740
814.551	28615
814.692	28698
814.833	28580
814.974	28740
815.115	28550
815.256	28592
815.397	28485
815.539	28561
815.68	28413
815.821	28447
815.962	28508
816.103	28466
816.244	28360
816.385	28322
816.526	28360
816.666	28025
816.807	28044
816.948	27914
817.089	28097
817.23	27934
817.371	27953
817.512	27956
817.653	27857
817.793	27835
817.934	27934
818.075	28044
818.216	27968
818.356	27937
818.497	27903
818.638	27800
818.778	27690
818.919	27682
819.06	27804
819.2	27789
819.341	27945
819.481	27880
819.622	28154
819.762	28295
819.903	28230
820.043	28025
820.184	28112
820.324	28143
820.465	28150
820.605	28063
820.746	27911
820.886	27922
821.026	28120
821.167	28029
821.307	28082
821.447	27903
821.588	27857
821.728	27766
821.868	27606
822.008	27583
822.149	27485
822.289	27530
822.429	27211
822.569	27135
822.709	27104
822.849	26937
822.99	26902
823.13	26872
823.27	26830
823.41	26674
823.55	26606
823.69	26765
823.83	26777
823.97	26750
824.11	26644
824.25	26530
824.389	26693
824.529	26590
824.669	26689
824.809	26655
824.949	26724
825.089	26705
825.228	26701
825.368	26476
825.508	26514
825.648	26518
825.787	26507
825.927	26503
826.067	26495
826.206	26434
826.346	26705
826.485	26438
826.625	26579
826.765	26701
826.904	26560
827.044	26366
827.183	26256
827.323	26191
827.462	26408
827.601	26202
827.741	26145
827.88	26233
828.02	26145
828.159	26252
828.298	26142
828.437	26221
828.577	26088
828.716	26317
828.855	26054
828.994	25928
829.134	25940
829.273	25940
829.412	25909
829.551	25978
829.69	25837
829.829	26107
829.968	25940
830.107	25978
830.246	25921
830.385	25944
830.524	25887
830.663	25578
830.802	25514
830.941	25502
831.08	25529
831.219	25685
831.357	25415
831.496	25757
831.635	25533
831.774	25354
831.913	25358
832.051	25304
832.19	25247
832.329	25209
832.467	25156
832.606	25110
832.744	25190
832.883	25027
833.022	25164
833.16	25346
833.299	25190
833.437	25148
833.576	25209
833.714	25266
833.852	25282
833.991	25297
834.129	25354
834.267	25331
834.406	25354
834.544	25217
834.682	25263
834.821	25285
834.959	25362
835.097	25008
835.235	25213
835.373	25331
835.511	25183
835.65	25126
835.788	25118
835.926	25080
836.064	24848
836.202	24871
836.34	25031
836.478	25217
836.615	25034
836.753	25065
836.891	25103
837.029	25008
837.167	24943
837.305	25012
837.443	24905
837.58	24825
837.718	24901
837.856	24897
837.993	24894
838.131	24783
838.269	24757
838.406	24825
838.544	24825
838.681	24517
838.819	24532
838.956	24429
839.094	24334
839.231	24475
839.369	24528
839.506	24719
839.643	24574
839.781	24502
839.918	24391
840.055	24304
840.193	24304
840.33	24178
840.467	24114
840.604	24342
840.742	24536
840.879	24125
841.016	24194
841.153	24281
841.29	24395
841.427	24323
841.564	24304
841.701	24228
841.838	24083
841.975	24190
842.112	24140
842.249	24041
842.385	24038
842.522	24262
842.659	24022
842.796	24011
842.933	23996
843.069	23977
843.206	23893
843.343	23999
843.479	23935
843.616	23927
843.752	23775
843.889	23798
844.025	23939
844.162	23817
844.298	23756
844.435	23783
844.571	23756
844.708	23775
844.844	23946
844.98	23946
845.117	23904
845.253	23596
845.389	23535
845.525	23547
845.661	23615
845.798	23524
845.934	23627
846.07	23551
846.206	23543
846.342	23703
846.478	23334
846.614	23265
846.75	23200
846.886	23360
847.022	23368
847.158	23220
847.294	23250
847.429	23261
847.565	23254
847.701	23467
847.837	23018
847.972	23010
848.108	23018
848.244	23094
848.379	22923
848.515	22778
848.65	22748
848.786	22831
848.921	22839
849.057	22885
849.192	22774
849.328	22930
849.463	22831
849.598	22740
849.734	22694
849.869	22660
850.004	22538
850.14	22584
850.275	22656
850.41	22516
850.545	22565
850.68	22653
850.815	22653
850.95	22630
851.085	22736
851.22	22721
851.355	22550
851.49	22622
851.625	22634
851.76	22493
851.895	22455
852.03	22466
852.165	22603
852.299	22527
852.434	22725
852.569	22557
852.703	22588
852.838	22637
852.973	22679
853.107	22603
853.242	22493
853.376	22481
853.511	22341
853.645	22455
853.78	22481
853.914	22447
854.048	22363
854.183	22405
854.317	22470
854.451	22512
854.585	22428
854.72	22500
854.854	22440
854.988	22367
855.122	22402
855.256	22318
855.39	22466
855.524	22390
855.658	22565
855.792	22348
855.926	22516
856.06	22432
856.194	22615
856.327	22367
856.461	22379
856.595	22226
856.729	22341
856.862	22649
856.996	22508
857.13	22542
857.263	22626
857.397	22508
857.53	22466
857.664	22478
857.797	22394
857.931	22573
858.064	22409
858.197	22554
858.331	22360
858.464	22314
858.597	22352
858.731	22303
858.864	22325
858.997	22360
859.13	22249
859.263	22500
859.396	22550
859.529	22367
859.662	22409
859.795	22421
859.928	22478
860.061	22527
860.194	22645
860.327	22478
860.46	22500
860.592	22542
860.725	22615
860.858	22535
860.99	22371
861.123	22363
861.256	22371
861.388	22421
861.521	23223
861.653	22363
861.786	22181
861.918	22360
862.05	22306
862.183	22367
862.315	22386
862.447	22440
862.58	22421
862.712	22143
862.844	22116
862.976	22101
863.108	22154
863.24	22569
863.372	22078
863.504	22169
863.636	22101
863.768	22188
863.9	22013
864.032	22036
864.164	22032
864.296	22234
864.428	22185
864.559	22234
864.691	22116
864.823	22109
864.954	21991
865.086	22086
865.217	22002
865.349	21907
865.48	22040
865.612	21937
865.743	22120
865.875	21983
866.006	21941
866.137	22090
866.269	22029
866.4	21983
866.531	21987
866.662	21930
866.793	21941
866.924	22048
867.055	21831
867.186	21922
867.317	22017
867.448	21869
867.579	21880
867.71	21819
867.841	21823
867.972	21892
868.103	21941
868.233	21930
868.364	21892
868.495	22029
868.625	22139
868.756	22242
868.886	22131
869.017	22219
869.147	22204
869.278	22173
869.408	22257
869.539	22291
869.669	22234
869.799	22371
869.929	22325
870.06	22234
870.19	22561
870.32	22341
870.45	22451
870.58	22550
870.71	22744
870.84	22596
870.97	22615
871.1	22592
871.23	22767
871.36	22740
871.489	22793
871.619	22793
871.749	22767
871.879	22923
872.008	22839
872.138	22672
872.267	22881
872.397	22588
872.526	22561
872.656	22569
872.785	22630
872.915	22759
873.044	22820
873.173	22767
873.303	22949
873.432	22862
873.561	22953
873.69	22729
873.819	22869
873.948	22835
874.077	22858
874.206	22733
874.335	22759
874.464	22892
874.593	23064
874.722	22930
874.851	22953
874.979	23060
875.108	23037
875.237	23029
875.365	22942
875.494	23044
875.623	23105
875.751	23025
875.88	22987
876.008	23170
876.136	23178
876.265	23471
876.393	23566
876.521	23604
876.65	23566
876.778	23433
876.906	23330
877.034	23360
877.162	23239
877.29	23280
877.418	23269
877.546	23307
877.674	23254
877.802	23372
877.93	23391
878.058	23277
878.185	23181
878.313	23406
878.441	23311
878.568	23136
878.696	23349
878.824	23315
878.951	23406
879.079	23615
879.206	23668
879.333	23573
879.461	23398
879.588	23531
879.715	23436
879.842	23653
879.97	23448
880.097	23166
880.224	23231
880.351	23368
880.478	23246
880.605	23090
880.732	23269
880.859	23318
880.986	23136
881.112	23075
881.239	22976
881.366	22953
881.493	22927
881.619	22683
881.746	22831
881.872	22797
881.999	22698
882.125	22561
882.252	22801
882.378	22774
882.505	22896
882.631	22630
882.757	22485
882.883	22443
883.01	22573
883.136	22459
883.262	22303
883.388	22284
883.514	22470
883.64	22379
883.766	22531
883.892	22257
884.018	22219
884.143	22348
884.269	22436
884.395	22139
884.52	22032
884.646	22128
884.772	22147
884.897	21930
885.023	22070
885.148	22154
885.274	22158
885.399	22086
885.524	22021
885.65	22051
885.775	22032
885.9	21972
886.025	22036
886.15	22196
886.275	22120
886.4	21983
886.525	22086
886.65	21991
886.775	21876
886.9	22158
887.025	22188
887.149	21968
887.274	21793
887.399	21880
887.523	21930
887.648	21808
887.773	21728
887.897	21972
888.021	21823
888.146	21831
888.27	21880
888.395	21869
888.519	21800
888.643	21698
888.767	21713
888.891	21774
889.015	21625
889.139	21698
889.263	21519
889.387	21770
889.511	21888
889.635	21747
889.759	21564
889.883	21526
890.006	21583
890.13	21698
890.254	21439
890.377	21549
890.501	21393
890.624	21249
890.748	21386
890.871	21340
890.995	21119
891.118	21131
891.241	21176
891.364	21150
891.488	21199
891.611	21100
891.734	21127
891.857	21325
891.98	21119
892.103	21150
892.226	21119
892.349	21055
892.471	21013
892.594	21081
892.717	21123
892.839	21104
892.962	21173
893.085	21184
893.207	20998
893.33	20948
893.452	20975
893.575	21024
893.697	21024
893.819	21351
893.941	21230
894.064	21146
894.186	21074
894.308	21013
894.43	21051
894.552	21241
894.674	21161
894.796	20914
894.918	20956
895.04	21051
895.161	21116
895.283	21096
895.405	21020
895.526	21161
895.648	20937
895.769	21089
895.891	21085
896.012	21081
896.134	21077
896.255	21047
896.376	21077
896.498	21077
896.619	20994
896.74	21116
896.861	21081
896.982	21359
897.103	21424
897.224	21252
897.345	21199
897.466	21123
897.587	21256
897.708	21405
897.828	21207
897.949	21249
898.07	21039
898.19	21085
898.311	21416
898.431	21062
898.552	21188
898.672	21222
898.792	21294
898.913	21336
899.033	21066
899.153	21131
899.273	20826
899.393	20925
899.513	20998
899.633	20887
899.753	21043
899.873	20849
899.993	20975
900.113	20895
900.232	20876
900.352	20834
900.472	20796
900.591	20659
900.711	20682
900.83	20887
900.95	20773
901.069	20815
901.189	20598
901.308	20419
901.427	20286
901.546	20328
901.665	20286
901.784	20240
901.904	20103
902.023	20119
902.141	19871
902.26	19727
902.379	19974
902.498	19784
902.617	19807
902.735	19818
902.854	19738
902.973	19674
903.091	19533
903.21	19476
903.328	19480
903.446	19445
903.565	19270
903.683	19282
903.801	19232
903.919	19190
904.038	19194
904.156	19061
904.274	19027
904.392	18920
904.51	18962
904.627	19061
904.745	19065
904.863	19076
904.981	18848
905.098	18715
905.216	18661
905.334	18612
905.451	18627
905.569	18650
905.686	18711
905.803	18726
905.921	18464
906.038	18471
906.155	18422
906.272	18426
906.389	18426
906.506	18064
906.623	18224
906.74	18243
906.857	18083
906.974	18034
907.091	18319
907.208	18327
907.324	18171
907.441	18201
907.557	17942
907.674	17927
907.79	17851
907.907	17843
908.023	17935
908.139	17965
908.256	17836
908.372	17878
908.488	17786
908.604	17741
908.72	17539
908.836	17703
908.952	17615
909.068	17600
909.184	17691
909.3	17573
909.415	17646
909.531	17623
909.647	17414
909.762	17414
909.878	17330
909.993	17383
910.108	17239
910.224	17368
910.339	17277
910.454	17155
910.57	17140
910.685	17098
910.8	17288
910.915	17296
911.03	17162
911.145	16881
911.259	16930
911.374	16923
911.489	16862
911.604	16805
911.718	16672
911.833	16744
911.947	16523
912.062	16504
912.176	16653
912.291	16641
912.405	16660
912.519	16866
912.633	16866
912.748	16744
912.862	16698
912.976	16493
913.09	16341
913.204	16455
913.318	16584
913.431	16523
913.545	16527
913.659	16481
913.772	16459
913.886	16211
914	16314
914.113	16284
914.226	16253
914.34	16306
914.453	15975
914.566	16272
914.68	16109
914.793	16124
914.906	15934
915.019	15880
915.132	15724
915.245	15846
915.358	15884
915.47	15800
915.583	15747
915.696	15835
915.809	15972
915.921	15964
916.034	15751
916.146	15679
916.259	15553
916.371	15808
916.483	15800
916.595	15713
916.708	15663
916.82	15774
916.932	15652
917.044	15542
917.156	15633
917.268	15526
917.38	15549
917.491	15538
917.603	15473
917.715	15462
917.826	15530
917.938	15416
918.049	15256
918.161	15443
918.272	15561
918.384	15511
918.495	15397
918.606	15199
918.717	15093
918.828	15211
918.939	15195
919.05	15051
919.161	15180
919.272	14982
919.383	14979
919.494	15184
919.604	15329
919.715	15142
919.826	15032
919.936	15211
920.047	15180
920.157	15131
920.267	15302
920.378	15161
920.488	14998
920.598	15226
920.708	15351
920.818	15294
920.928	15256
921.038	15458
921.148	15359
921.258	15131
921.368	15020
921.477	14819
921.587	14804
921.697	14708
921.806	14929
921.916	14796
922.025	14495
922.134	14552
922.244	14530
922.353	14579
922.462	14457
922.571	14343
922.68	14157
922.789	14271
922.898	14153
923.007	14115
923.116	14229
923.224	14058
923.333	14054
923.442	14050
923.55	14031
923.659	13974
923.767	14065
923.876	13902
923.984	14024
924.092	13913
924.201	13963
924.309	13898
924.417	13970
924.525	13818
924.633	13868
924.741	14621
924.849	13632
924.956	13761
925.064	13624
925.172	13518
925.279	13639
925.387	13628
925.494	13624
925.602	13708
925.709	13647
925.816	13384
925.924	13605
926.031	13590
926.138	13582
926.245	13582
926.352	13396
926.459	13563
926.566	13533
926.673	13415
926.779	13289
926.886	13392
926.993	13221
927.099	13145
927.206	13046
927.312	13031
927.419	13107
927.525	13008
927.631	13141
927.737	13103
927.843	12909
927.95	12821
928.056	12859
928.162	12943
928.267	12954
928.373	13590
928.479	13034
928.585	12757
928.69	12814
928.796	12920
928.901	12688
929.007	12669
929.112	12768
929.218	12711
929.323	12665
929.428	12681
929.533	12715
929.638	12559
929.743	12582
929.848	12620
929.953	12673
930.058	12407
930.163	12391
930.267	12239
930.372	12448
930.477	12311
930.581	12525
930.685	12361
930.79	12106
930.894	12197
930.998	12106
931.103	12289
931.207	11920
931.311	11859
931.415	11733
931.519	11573
931.623	11554
