Data from test_V78500241_2186.txt Node
Date: Fri Mar 25 15:56:56 CST 2022
User: usil
Spectrometer: V785-0024
Trigger mode: 0
Integration Time (sec): 4.000000E-1
Scans to average: 1
Nonlinearity correction enabled: false
Boxcar width: 0
Storing dark spectrum: false
XAxis mode: Wavelengths
Number of Pixels in Spectrum: 1024
>>>>>Begin Spectral Data<<<<<
801.071	28999
801.214	29128
801.356	28866
801.499	28713
801.641	28675
801.783	28607
801.926	28710
802.068	28596
802.211	28592
802.353	28630
802.496	28417
802.638	28299
802.78	28322
802.923	28188
803.065	28238
803.208	28265
803.35	28436
803.492	28508
803.635	28702
803.777	28462
803.919	28493
804.061	28869
804.204	28717
804.346	28542
804.488	28565
804.63	28557
804.773	28485
804.915	28687
805.057	28634
805.199	28577
805.341	28668
805.483	28683
805.626	28672
805.768	28626
805.91	28694
806.052	28790
806.194	28694
806.336	28930
806.478	28812
806.62	28755
806.762	28767
806.904	29044
807.046	29337
807.188	29185
807.33	29132
807.472	29273
807.614	29064
807.756	29254
807.898	29006
808.04	29041
808.182	28934
808.324	29162
808.465	29231
808.607	29318
808.749	29383
808.891	29452
809.033	29604
809.174	29417
809.316	29391
809.458	29455
809.6	29292
809.741	29528
809.883	29581
810.025	29573
810.166	29703
810.308	29893
810.45	29627
810.591	29661
810.733	29634
810.875	29482
811.016	29482
811.158	29341
811.299	29558
811.441	29585
811.582	29710
811.724	29528
811.865	29448
812.007	29436
812.148	29414
812.29	29440
812.431	29646
812.573	29748
812.714	29935
812.855	29954
812.997	30057
813.138	30258
813.279	30072
813.421	30026
813.562	30011
813.703	29832
813.845	29634
813.986	29349
814.127	29315
814.268	29216
814.41	29326
814.551	29166
814.692	29269
814.833	29143
814.974	29143
815.115	29250
815.256	29128
815.397	29098
815.539	29094
815.68	29037
815.821	29014
815.962	28904
816.103	28999
816.244	28927
816.385	28717
816.526	28653
816.666	28599
816.807	28405
816.948	28508
817.089	28660
817.23	28546
817.371	28451
817.512	28462
817.653	28455
817.793	28462
817.934	28447
818.075	28584
818.216	28474
818.356	28401
818.497	28421
818.638	28280
818.778	28226
818.919	28299
819.06	28421
819.2	28451
819.341	28542
819.481	28443
819.622	28645
819.762	28927
819.903	28831
820.043	28771
820.184	28592
820.324	28675
820.465	28672
820.605	28607
820.746	28542
820.886	28360
821.026	28557
821.167	28580
821.307	28698
821.447	28577
821.588	28466
821.728	28196
821.868	28280
822.008	27937
822.149	27922
822.289	27926
822.429	27652
822.569	27610
822.709	27610
822.849	27507
822.99	27606
823.13	27332
823.27	27458
823.41	27264
823.55	27222
823.69	27298
823.83	27226
823.97	27275
824.11	27081
824.25	27058
824.389	27104
824.529	27340
824.669	27214
824.809	27249
824.949	27313
825.089	27161
825.228	27214
825.368	27104
825.508	27089
825.648	26982
825.787	27146
825.927	27116
826.067	26979
826.206	26944
826.346	27131
826.485	27116
826.625	27005
826.765	26929
826.904	27127
827.044	26807
827.183	26895
827.323	26754
827.462	26864
827.601	26678
827.741	26960
827.88	26739
828.02	26644
828.159	26773
828.298	26758
828.437	26754
828.577	26621
828.716	26720
828.855	26606
828.994	26393
829.134	26507
829.273	26492
829.412	26400
829.551	26351
829.69	26351
829.829	26370
829.968	26480
830.107	26663
830.246	26514
830.385	26362
830.524	26278
830.663	26225
830.802	26043
830.941	25959
831.08	26027
831.219	25997
831.357	26138
831.496	26237
831.635	26062
831.774	25906
831.913	25947
832.051	25769
832.19	25803
832.329	25833
832.467	25746
832.606	25715
832.744	25601
832.883	25639
833.022	25635
833.16	25674
833.299	25666
833.437	25742
833.576	25738
833.714	25780
833.852	25860
833.991	25788
834.129	25898
834.267	25898
834.406	25685
834.544	25738
834.682	25845
834.821	25837
834.959	25921
835.097	25757
835.235	25864
835.373	25582
835.511	25537
835.65	25609
835.788	25586
835.926	25362
836.064	25381
836.202	25449
836.34	25476
836.478	25674
836.615	25559
836.753	25533
836.891	25594
837.029	25700
837.167	25639
837.305	25499
837.443	25400
837.58	25365
837.718	25559
837.856	25312
837.993	25358
838.131	25464
838.269	25259
838.406	25350
838.544	25198
838.681	25034
838.819	24996
838.956	24848
839.094	24859
839.231	24913
839.369	24886
839.506	25247
839.643	25194
839.781	24890
839.918	24764
840.055	24920
840.193	24901
840.33	24856
840.467	24814
840.604	24829
840.742	25080
840.879	24722
841.016	24734
841.153	24566
841.29	24806
841.427	24688
841.564	24875
841.701	24661
841.838	24726
841.975	24604
842.112	24578
842.249	24601
842.385	24582
842.522	24753
842.659	24623
842.796	24456
842.933	24429
843.069	24471
843.206	24467
843.343	24593
843.479	24388
843.616	24509
843.752	24407
843.889	24197
844.025	24308
844.162	24292
844.298	24471
844.435	24292
844.571	24243
844.708	24361
844.844	24437
844.98	24327
845.117	24353
845.253	24239
845.389	24049
845.525	24190
845.661	24102
845.798	24133
845.934	24034
846.07	24079
846.206	24007
846.342	24083
846.478	23954
846.614	23794
846.75	23760
846.886	23737
847.022	23805
847.158	23703
847.294	23802
847.429	23779
847.565	23729
847.701	24057
847.837	23429
847.972	23436
848.108	23562
848.244	23668
848.379	23372
848.515	23349
848.65	23303
848.786	23372
848.921	23360
849.057	23406
849.192	23296
849.328	23478
849.463	23280
849.598	23273
849.734	23356
849.869	23166
850.004	23178
850.14	23128
850.275	23075
850.41	22900
850.545	23018
850.68	23056
850.815	23075
850.95	23121
851.085	23223
851.22	23246
851.355	23033
851.49	22976
851.625	22953
851.76	22991
851.895	23166
852.03	22991
852.165	23140
852.299	23064
852.434	23231
852.569	23041
852.703	23124
852.838	23033
852.973	23162
853.107	23155
853.242	23033
853.376	22923
853.511	22892
853.645	22824
853.78	23025
853.914	22965
854.048	22885
854.183	22881
854.317	22904
854.451	23212
854.585	22908
854.72	22904
854.854	22976
854.988	22706
855.122	22847
855.256	22653
855.39	22885
855.524	22949
855.658	22862
855.792	22854
855.926	22987
856.06	23067
856.194	22911
856.327	22881
856.461	22900
856.595	22824
856.729	22927
856.862	22957
856.996	22942
857.13	22942
857.263	23014
857.397	22927
857.53	22972
857.664	22908
857.797	22972
857.931	22862
858.064	22972
858.197	22991
858.331	22835
858.464	22816
858.597	22790
858.731	22873
858.864	22889
858.997	23014
859.13	22850
859.263	22900
859.396	22930
859.529	22930
859.662	22862
859.795	22850
859.928	22812
860.061	23052
860.194	23071
860.327	23003
860.46	22908
860.592	22927
860.725	23147
860.858	23010
860.99	22877
861.123	22759
861.256	22934
861.388	22839
861.521	23535
861.653	22786
861.786	22733
861.918	22793
862.05	22729
862.183	22805
862.315	22835
862.447	22892
862.58	22782
862.712	22504
862.844	22611
862.976	22744
863.108	22713
863.24	23136
863.372	22554
863.504	22679
863.636	22615
863.768	22596
863.9	22577
864.032	22523
864.164	22584
864.296	22622
864.428	22702
864.559	22672
864.691	22790
864.823	22618
864.954	22493
865.086	22489
865.217	22341
865.349	22375
865.48	22516
865.612	22481
865.743	22523
865.875	22588
866.006	22451
866.137	22447
866.269	22462
866.4	22352
866.531	22402
866.662	22337
866.793	22440
866.924	22371
867.055	22512
867.186	22257
867.317	22394
867.448	22394
867.579	22318
867.71	22352
867.841	22268
867.972	22440
868.103	22459
868.233	22455
868.364	22344
868.495	22455
868.625	22656
868.756	22694
868.886	22592
869.017	22607
869.147	22687
869.278	22786
869.408	22733
869.539	22573
869.669	22771
869.799	22774
869.929	22812
870.06	22740
870.19	22927
870.32	22877
870.45	23029
870.58	23056
870.71	23250
870.84	23128
870.97	23037
871.1	23018
871.23	23181
871.36	23113
871.489	23151
871.619	23235
871.749	23216
871.879	23250
872.008	23258
872.138	23239
872.267	23337
872.397	23037
872.526	23048
872.656	23102
872.785	23071
872.915	23212
873.044	23254
873.173	23200
873.303	23265
873.432	23307
873.561	23421
873.69	23250
873.819	23235
873.948	23379
874.077	23337
874.206	23212
874.335	23284
874.464	23376
874.593	23391
874.722	23421
874.851	23543
874.979	23463
875.108	23455
875.237	23383
875.365	23299
875.494	23395
875.623	23539
875.751	23433
875.88	23505
876.008	23562
876.136	23657
876.265	23901
876.393	23973
876.521	23904
876.65	23904
876.778	23805
876.906	23802
877.034	23779
877.162	23802
877.29	23695
877.418	23726
877.546	23771
877.674	23847
877.802	23783
877.93	23726
878.058	23680
878.185	23661
878.313	23691
878.441	23748
878.568	23497
878.696	23714
878.824	23680
878.951	23851
879.079	23988
879.206	24064
879.333	23927
879.461	23764
879.588	23764
879.715	23946
879.842	24034
879.97	23764
880.097	23570
880.224	23665
880.351	23600
880.478	23585
880.605	23619
880.732	23566
880.859	23745
880.986	23577
881.112	23528
881.239	23467
881.366	23334
881.493	23246
881.619	23258
881.746	23220
881.872	23185
881.999	23189
882.125	23159
882.252	23235
882.378	23151
882.505	23208
882.631	23044
882.757	22847
882.883	23014
883.01	22820
883.136	22938
883.262	22778
883.388	22828
883.514	22854
883.64	22831
883.766	22736
883.892	22596
884.018	22508
884.143	22767
884.269	22835
884.395	22538
884.52	22455
884.646	22436
884.772	22421
884.897	22443
885.023	22417
885.148	22634
885.274	22729
885.399	22584
885.524	22424
885.65	22402
885.775	22443
885.9	22497
886.025	22622
886.15	22637
886.275	22295
886.4	22405
886.525	22428
886.65	22474
886.775	22371
886.9	22542
887.025	22687
887.149	22436
887.274	22295
887.399	22147
887.523	22249
887.648	22181
887.773	21998
887.897	22322
888.021	22135
888.146	22169
888.27	22188
888.395	22272
888.519	22272
888.643	22280
888.767	22287
888.891	21934
889.015	22044
889.139	22055
889.263	21968
889.387	22055
889.511	22223
889.635	22116
889.759	21956
889.883	21987
890.006	21968
890.13	22101
890.254	21926
890.377	21941
890.501	21724
890.624	21686
890.748	21778
890.871	21553
890.995	21648
891.118	21466
891.241	21587
891.364	21545
891.488	21641
891.611	21614
891.734	21500
891.857	21641
891.98	21660
892.103	21526
892.226	21701
892.349	21633
892.471	21386
892.594	21610
892.717	21488
892.839	21507
892.962	21534
893.085	21500
893.207	21416
893.33	21370
893.452	21401
893.575	21583
893.697	21355
893.819	21538
893.941	21644
894.064	21523
894.186	21389
894.308	21412
894.43	21576
894.552	21698
894.674	21492
894.796	21370
894.918	21378
895.04	21393
895.161	21492
895.283	21507
895.405	21367
895.526	21447
895.648	21340
895.769	21428
895.891	21622
896.012	21466
896.134	21473
896.255	21447
896.376	21393
896.498	21351
896.619	21447
896.74	21591
896.861	21507
896.982	21751
897.103	21960
897.224	21797
897.345	21652
897.466	21591
897.587	21648
897.708	21648
897.828	21644
897.949	21599
898.07	21553
898.19	21564
898.311	21766
898.431	21644
898.552	21545
898.672	21606
898.792	21724
898.913	21606
899.033	21542
899.153	21363
899.273	21359
899.393	21374
899.513	21363
899.633	21424
899.753	21386
899.873	21355
899.993	21332
900.113	21252
900.232	21382
900.352	21310
900.472	21116
900.591	21165
900.711	21199
900.83	21150
900.95	21233
901.069	21245
901.189	21024
901.308	20792
901.427	20727
901.546	20670
901.665	20651
901.784	20785
901.904	20530
902.023	20564
902.141	20351
902.26	20237
902.379	20332
902.498	20199
902.617	20012
902.735	20172
902.854	19993
902.973	20043
903.091	19883
903.21	19871
903.328	19856
903.446	19761
903.565	19700
903.683	19647
903.801	19468
903.919	19544
904.038	19552
904.156	19457
904.274	19487
904.392	19434
904.51	19270
904.627	19449
904.745	19297
904.863	19422
904.981	19088
905.098	19031
905.216	19088
905.334	19126
905.451	19057
905.569	19122
905.686	19103
905.803	18939
905.921	18848
906.038	18993
906.155	18878
906.272	18871
906.389	18802
906.506	18555
906.623	18601
906.74	18631
906.857	18471
906.974	18422
907.091	18620
907.208	18738
907.324	18654
907.441	18437
907.557	18380
907.674	18182
907.79	18186
907.907	18235
908.023	18304
908.139	18334
908.256	18258
908.372	18144
908.488	18079
908.604	18053
908.72	17939
908.836	18041
908.952	17935
909.068	18102
909.184	18060
909.3	18060
909.415	18015
909.531	17931
909.647	17729
909.762	17638
909.878	17687
909.993	17630
910.108	17634
910.224	17672
910.339	17623
910.454	17630
910.57	17551
910.685	17463
910.8	17805
910.915	17642
911.03	17463
911.145	17204
911.259	17189
911.374	17265
911.489	17223
911.604	17086
911.718	17098
911.833	17071
911.947	16881
912.062	16881
912.176	16957
912.291	16946
912.405	16999
912.519	17250
912.633	17143
912.748	17056
912.862	16877
912.976	16911
913.09	16683
913.204	16847
913.318	16812
913.431	16949
913.545	16854
913.659	16976
913.772	16858
913.886	16645
914	16603
914.113	16599
914.226	16748
914.34	16588
914.453	16565
914.566	16535
914.68	16550
914.793	16421
914.906	16166
915.019	16207
915.132	16010
915.245	16238
915.358	16185
915.47	16185
915.583	16204
915.696	16071
915.809	16234
915.921	16192
916.034	16124
916.146	16093
916.259	16051
916.371	16173
916.483	16067
916.595	15949
916.708	15968
916.82	15949
916.932	15808
917.044	15926
917.156	15911
917.268	15728
917.38	15797
917.491	15717
917.603	15728
917.715	15831
917.826	15869
917.938	15694
918.049	15576
918.161	15736
918.272	15895
918.384	15766
918.495	15663
918.606	15526
918.717	15519
918.828	15507
918.939	15568
919.05	15401
919.161	15477
919.272	15298
919.383	15325
919.494	15530
919.604	15709
919.715	15523
919.826	15450
919.936	15344
920.047	15405
920.157	15363
920.267	15663
920.378	15481
920.488	15485
920.598	15614
920.708	15690
920.818	15526
920.928	15542
921.038	15774
921.148	15606
921.258	15542
921.368	15374
921.477	15173
921.587	15188
921.697	14975
921.806	15138
921.916	15043
922.025	14910
922.134	14777
922.244	14674
922.353	14861
922.462	14682
922.571	14598
922.68	14469
922.789	14400
922.898	14419
923.007	14431
923.116	14412
923.224	14385
923.333	14408
923.442	14229
923.55	14229
923.659	14343
923.767	14275
923.876	14206
923.984	14347
924.092	14149
924.201	14138
924.309	14183
924.417	14187
924.525	14027
924.633	14001
924.741	14727
924.849	13833
924.956	14012
925.064	13871
925.172	13799
925.279	13776
925.387	13830
925.494	13780
925.602	13917
925.709	13833
925.816	13685
925.924	13776
926.031	13887
926.138	13674
926.245	13788
926.352	13666
926.459	13666
926.566	13833
926.673	13632
926.779	13556
926.886	13525
926.993	13381
927.099	13362
927.206	13213
927.312	13282
927.419	13346
927.525	13388
927.631	13320
927.737	13289
927.843	13244
927.95	13114
928.056	13168
928.162	13110
928.267	13137
928.373	13761
928.479	13236
928.585	12947
928.69	13015
928.796	13110
928.901	13031
929.007	12787
929.112	12951
929.218	13023
929.323	12951
929.428	12802
929.533	12935
929.638	12700
929.743	12791
929.848	12795
929.953	12825
930.058	12601
930.163	12570
930.267	12551
930.372	12635
930.477	12494
930.581	12662
930.685	12479
930.79	12448
930.894	12391
930.998	12391
931.103	12498
931.207	12148
931.311	12060
931.415	11904
931.519	11779
931.623	11748
