Data from test_V78500241_2184.txt Node
Date: Fri Mar 25 15:56:55 CST 2022
User: usil
Spectrometer: V785-0024
Trigger mode: 0
Integration Time (sec): 4.000000E-1
Scans to average: 1
Nonlinearity correction enabled: false
Boxcar width: 0
Storing dark spectrum: false
XAxis mode: Wavelengths
Number of Pixels in Spectrum: 1024
>>>>>Begin Spectral Data<<<<<
801.071	28892
801.214	28919
801.356	28721
801.499	28755
801.641	28733
801.783	28508
801.926	28630
802.068	28577
802.211	28546
802.353	28459
802.496	28356
802.638	28341
802.78	28211
802.923	28249
803.065	28280
803.208	28204
803.35	28318
803.492	28504
803.635	28565
803.777	28504
803.919	28428
804.061	28820
804.204	28592
804.346	28550
804.488	28459
804.63	28538
804.773	28550
804.915	28565
805.057	28478
805.199	28519
805.341	28573
805.483	28759
805.626	28828
805.768	28557
805.91	28611
806.052	28812
806.194	28664
806.336	28908
806.478	28706
806.62	28554
806.762	28824
806.904	29014
807.046	29254
807.188	29018
807.33	29060
807.472	29258
807.614	29124
807.756	29098
807.898	28976
808.04	28999
808.182	28862
808.324	28980
808.465	29003
808.607	29284
808.749	29318
808.891	29372
809.033	29547
809.174	29573
809.316	29315
809.458	29292
809.6	29280
809.741	29623
809.883	29501
810.025	29729
810.166	29707
810.308	29623
810.45	29680
810.591	29592
810.733	29448
810.875	29501
811.016	29433
811.158	29246
811.299	29414
811.441	29558
811.582	29695
811.724	29284
811.865	29273
812.007	29360
812.148	29566
812.29	29429
812.431	29501
812.573	29760
812.714	29847
812.855	29999
812.997	30117
813.138	30049
813.279	30171
813.421	29870
813.562	29855
813.703	29630
813.845	29619
813.986	29509
814.127	29337
814.268	29174
814.41	29136
814.551	29113
814.692	29025
814.833	29003
814.974	29006
815.115	29094
815.256	28938
815.397	29037
815.539	29071
815.68	28866
815.821	28938
815.962	28953
816.103	29044
816.244	28801
816.385	28615
816.526	28771
816.666	28664
816.807	28337
816.948	28481
817.089	28451
817.23	28466
817.371	28436
817.512	28508
817.653	28421
817.793	28485
817.934	28470
818.075	28424
818.216	28417
818.356	28497
818.497	28276
818.638	28204
818.778	28143
818.919	28143
819.06	28287
819.2	28390
819.341	28516
819.481	28508
819.622	28634
819.762	28725
819.903	28740
820.043	28660
820.184	28649
820.324	28565
820.465	28626
820.605	28596
820.746	28451
820.886	28390
821.026	28550
821.167	28557
821.307	28630
821.447	28527
821.588	28401
821.728	28207
821.868	27998
822.008	27987
822.149	27880
822.289	27926
822.429	27789
822.569	27656
822.709	27625
822.849	27504
822.99	27542
823.13	27336
823.27	27397
823.41	27389
823.55	27154
823.69	27294
823.83	27264
823.97	27180
824.11	27001
824.25	27043
824.389	27066
824.529	27279
824.669	27089
824.809	27332
824.949	27058
825.089	27241
825.228	27089
825.368	26933
825.508	26929
825.648	27001
825.787	27043
825.927	27028
826.067	26902
826.206	26929
826.346	26956
826.485	26880
826.625	26979
826.765	27055
826.904	27135
827.044	26743
827.183	26708
827.323	26670
827.462	26861
827.601	26693
827.741	26651
827.88	26781
828.02	26674
828.159	26815
828.298	26663
828.437	26743
828.577	26583
828.716	26868
828.855	26457
828.994	26343
829.134	26431
829.273	26461
829.412	26446
829.551	26309
829.69	26248
829.829	26301
829.968	26461
830.107	26415
830.246	26286
830.385	26256
830.524	26073
830.663	26233
830.802	26069
830.941	26103
831.08	25852
831.219	25955
831.357	26020
831.496	26252
831.635	25963
831.774	25936
831.913	25986
832.051	25875
832.19	25666
832.329	25780
832.467	25727
832.606	25689
832.744	25655
832.883	25586
833.022	25624
833.16	25647
833.299	25681
833.437	25651
833.576	25769
833.714	25902
833.852	25780
833.991	25894
834.129	25791
834.267	25868
834.406	25696
834.544	25746
834.682	25719
834.821	25700
834.959	25818
835.097	25700
835.235	25742
835.373	25670
835.511	25700
835.65	25674
835.788	25479
835.926	25346
836.064	25407
836.202	25403
836.34	25495
836.478	25647
836.615	25510
836.753	25563
836.891	25548
837.029	25609
837.167	25499
837.305	25460
837.443	25468
837.58	25316
837.718	25396
837.856	25377
837.993	25331
838.131	25392
838.269	25282
838.406	25217
838.544	25209
838.681	25107
838.819	24989
838.956	24753
839.094	24837
839.231	24897
839.369	25050
839.506	25236
839.643	25000
839.781	24920
839.918	24745
840.055	24951
840.193	24749
840.33	24768
840.467	24639
840.604	24696
840.742	24928
840.879	24426
841.016	24616
841.153	24635
841.29	24821
841.427	24566
841.564	24779
841.701	24707
841.838	24589
841.975	24563
842.112	24631
842.249	24505
842.385	24433
842.522	24620
842.659	24582
842.796	24471
842.933	24490
843.069	24308
843.206	24483
843.343	24441
843.479	24505
843.616	24498
843.752	24384
843.889	24266
844.025	24319
844.162	24395
844.298	24300
844.435	24327
844.571	24117
844.708	24285
844.844	24308
844.98	24365
845.117	24346
845.253	24266
845.389	24003
845.525	24076
845.661	24045
845.798	23946
845.934	24041
846.07	23897
846.206	23988
846.342	24140
846.478	23961
846.614	23710
846.75	23794
846.886	23623
847.022	23741
847.158	23836
847.294	23665
847.429	23634
847.565	23600
847.701	23920
847.837	23383
847.972	23353
848.108	23486
848.244	23570
848.379	23364
848.515	23246
848.65	23254
848.786	23174
848.921	23204
849.057	23524
849.192	23398
849.328	23360
849.463	23273
849.598	23200
849.734	23216
849.869	23147
850.004	23056
850.14	23117
850.275	22938
850.41	23071
850.545	23033
850.68	22957
850.815	23052
850.95	23029
851.085	23147
851.22	23132
851.355	23250
851.49	22999
851.625	23071
851.76	23010
851.895	23006
852.03	22892
852.165	23048
852.299	23102
852.434	23117
852.569	23102
852.703	22946
852.838	23079
852.973	23132
853.107	23109
853.242	22885
853.376	22877
853.511	22767
853.645	22828
853.78	22938
853.914	22999
854.048	22763
854.183	22957
854.317	22877
854.451	23022
854.585	22828
854.72	22900
854.854	22866
854.988	22790
855.122	22885
855.256	22713
855.39	22763
855.524	22923
855.658	22942
855.792	22927
855.926	22820
856.06	22934
856.194	22900
856.327	22881
856.461	22797
856.595	22816
856.729	22911
856.862	22919
856.996	22843
857.13	22877
857.263	23025
857.397	22889
857.53	22793
857.664	22843
857.797	22953
857.931	23010
858.064	22896
858.197	22991
858.331	22801
858.464	22790
858.597	22763
858.731	22828
858.864	22797
858.997	22778
859.13	22748
859.263	22866
859.396	22911
859.529	22957
859.662	22816
859.795	22778
859.928	22908
860.061	23041
860.194	23044
860.327	22911
860.46	22828
860.592	22900
860.725	23143
860.858	22980
860.99	22824
861.123	22744
861.256	22694
861.388	22911
861.521	23459
861.653	22843
861.786	22592
861.918	22725
862.05	22733
862.183	22771
862.315	22721
862.447	22778
862.58	22740
862.712	22485
862.844	22485
862.976	22622
863.108	22588
863.24	23022
863.372	22485
863.504	22436
863.636	22596
863.768	22596
863.9	22561
864.032	22504
864.164	22542
864.296	22660
864.428	22645
864.559	22561
864.691	22672
864.823	22656
864.954	22489
865.086	22573
865.217	22352
865.349	22329
865.48	22413
865.612	22508
865.743	22546
865.875	22432
866.006	22363
866.137	22382
866.269	22432
866.4	22318
866.531	22356
866.662	22356
866.793	22371
866.924	22382
867.055	22394
867.186	22371
867.317	22268
867.448	22306
867.579	22306
867.71	22219
867.841	22333
867.972	22280
868.103	22421
868.233	22394
868.364	22356
868.495	22386
868.625	22584
868.756	22786
868.886	22546
869.017	22580
869.147	22675
869.278	22774
869.408	22615
869.539	22512
869.669	22797
869.799	22622
869.929	22748
870.06	22694
870.19	22854
870.32	22828
870.45	22919
870.58	23037
870.71	23124
870.84	23136
870.97	22995
871.1	22976
871.23	23086
871.36	23269
871.489	22991
871.619	23147
871.749	23212
871.879	23128
872.008	23280
872.138	23166
872.267	23174
872.397	22991
872.526	22923
872.656	23185
872.785	22938
872.915	23261
873.044	23391
873.173	23212
873.303	23185
873.432	23216
873.561	23296
873.69	23178
873.819	23102
873.948	23250
874.077	23083
874.206	23162
874.335	23178
874.464	23261
874.593	23459
874.722	23337
874.851	23482
874.979	23391
875.108	23398
875.237	23254
875.365	23341
875.494	23387
875.623	23436
875.751	23318
875.88	23444
876.008	23547
876.136	23665
876.265	23874
876.393	23851
876.521	23775
876.65	23824
876.778	23722
876.906	23695
877.034	23764
877.162	23653
877.29	23710
877.418	23760
877.546	23794
877.674	23767
877.802	23748
877.93	23798
878.058	23646
878.185	23634
878.313	23805
878.441	23767
878.568	23634
878.696	23668
878.824	23790
878.951	23863
879.079	23927
879.206	23916
879.333	23961
879.461	23824
879.588	23752
879.715	23889
879.842	24038
879.97	23790
880.097	23486
880.224	23596
880.351	23581
880.478	23516
880.605	23482
880.732	23509
880.859	23737
880.986	23627
881.112	23490
881.239	23421
881.366	23334
881.493	23220
881.619	23162
881.746	23162
881.872	23041
881.999	23048
882.125	22980
882.252	23140
882.378	23246
882.505	23094
882.631	22889
882.757	22885
882.883	22759
883.01	22892
883.136	22710
883.262	22664
883.388	22713
883.514	22778
883.64	22656
883.766	22679
883.892	22569
884.018	22523
884.143	22805
884.269	22915
884.395	22557
884.52	22367
884.646	22363
884.772	22440
884.897	22348
885.023	22493
885.148	22599
885.274	22508
885.399	22577
885.524	22363
885.65	22344
885.775	22432
885.9	22363
886.025	22546
886.15	22379
886.275	22478
886.4	22295
886.525	22291
886.65	22333
886.775	22390
886.9	22428
887.025	22580
887.149	22344
887.274	22109
887.399	22230
887.523	22166
887.648	22074
887.773	22059
887.897	22242
888.021	22131
888.146	22196
888.27	22238
888.395	22268
888.519	22249
888.643	22181
888.767	22101
888.891	22048
889.015	21987
889.139	21949
889.263	21899
889.387	21979
889.511	22162
889.635	22010
889.759	21968
889.883	21869
890.006	21930
890.13	21983
890.254	22029
890.377	21835
890.501	21622
890.624	21713
890.748	21717
890.871	21679
890.995	21473
891.118	21443
891.241	21485
891.364	21545
891.488	21599
891.611	21431
891.734	21458
891.857	21557
891.98	21477
892.103	21477
892.226	21447
892.349	21435
892.471	21268
892.594	21386
892.717	21481
892.839	21370
892.962	21405
893.085	21549
893.207	21348
893.33	21310
893.452	21237
893.575	21321
893.697	21386
893.819	21488
893.941	21534
894.064	21405
894.186	21405
894.308	21367
894.43	21500
894.552	21481
894.674	21428
894.796	21313
894.918	21188
895.04	21473
895.161	21477
895.283	21389
895.405	21325
895.526	21241
895.648	21298
895.769	21439
895.891	21306
896.012	21401
896.134	21306
896.255	21313
896.376	21332
896.498	21245
896.619	21321
896.74	21447
896.861	21355
896.982	21743
897.103	21835
897.224	21473
897.345	21553
897.466	21447
897.587	21401
897.708	21701
897.828	21637
897.949	21492
898.07	21405
898.19	21401
898.311	21553
898.431	21507
898.552	21553
898.672	21564
898.792	21523
898.913	21538
899.033	21469
899.153	21367
899.273	21256
899.393	21287
899.513	21222
899.633	21249
899.753	21310
899.873	21150
899.993	21268
900.113	21058
900.232	21214
900.352	21176
900.472	21005
900.591	21154
900.711	20979
900.83	20960
900.95	21077
901.069	21013
901.189	20994
901.308	20686
901.427	20549
901.546	20503
901.665	20613
901.784	20674
901.904	20404
902.023	20442
902.141	20263
902.26	20016
902.379	20081
902.498	20180
902.617	20024
902.735	20115
902.854	20016
902.973	20069
903.091	19852
903.21	19704
903.328	19685
903.446	19624
903.565	19518
903.683	19552
903.801	19430
903.919	19457
904.038	19537
904.156	19244
904.274	19384
904.392	19312
904.51	19274
904.627	19365
904.745	19327
904.863	19232
904.981	19152
905.098	19080
905.216	18939
905.334	19034
905.451	19027
905.569	18947
905.686	18985
905.803	18935
905.921	18650
906.038	18939
906.155	18798
906.272	18646
906.389	18760
906.506	18563
906.623	18418
906.74	18403
906.857	18376
906.974	18513
907.091	18547
907.208	18658
907.324	18490
907.441	18426
907.557	18243
907.674	18228
907.79	18190
907.907	18201
908.023	18186
908.139	18144
908.256	18117
908.372	18072
908.488	18079
908.604	17969
908.72	17897
908.836	17984
908.952	17920
909.068	17923
909.184	18087
909.3	17980
909.415	17942
909.531	17889
909.647	17718
909.762	17661
909.878	17581
909.993	17619
910.108	17532
910.224	17577
910.339	17570
910.454	17421
910.57	17463
910.685	17356
910.8	17570
910.915	17490
911.03	17379
911.145	17200
911.259	17170
911.374	17170
911.489	17132
911.604	17128
911.718	16892
911.833	16889
911.947	16797
912.062	16740
912.176	16976
912.291	16946
912.405	16949
912.519	17162
912.633	17109
912.748	16900
912.862	16831
912.976	16805
913.09	16607
913.204	16580
913.318	16744
913.431	16786
913.545	16778
913.659	16786
913.772	16717
913.886	16470
914	16481
914.113	16630
914.226	16588
914.34	16577
914.453	16367
914.566	16588
914.68	16451
914.793	16219
914.906	16173
915.019	16128
915.132	15941
915.245	16128
915.358	16006
915.47	16090
915.583	16074
915.696	16112
915.809	16185
915.921	16196
916.034	16017
916.146	15911
916.259	15941
916.371	15998
916.483	16006
916.595	15907
916.708	15918
916.82	15941
916.932	15850
917.044	15869
917.156	15778
917.268	15732
917.38	15789
917.491	15625
917.603	15713
917.715	15842
917.826	15789
917.938	15690
918.049	15595
918.161	15561
918.272	15793
918.384	15743
918.495	15644
918.606	15504
918.717	15264
918.828	15500
918.939	15473
919.05	15218
919.161	15473
919.272	15294
919.383	15302
919.494	15492
919.604	15690
919.715	15428
919.826	15370
919.936	15291
920.047	15542
920.157	15401
920.267	15557
920.378	15374
920.488	15363
920.598	15561
920.708	15724
920.818	15507
920.928	15450
921.038	15667
921.148	15622
921.258	15329
921.368	15245
921.477	15085
921.587	15066
921.697	14899
921.806	15112
921.916	14933
922.025	14731
922.134	14670
922.244	14773
922.353	14823
922.462	14575
922.571	14549
922.68	14366
922.789	14419
922.898	14298
923.007	14351
923.116	14434
923.224	14336
923.333	14256
923.442	14240
923.55	14218
923.659	14187
923.767	14206
923.876	14073
923.984	14206
924.092	14073
924.201	14103
924.309	13982
924.417	14008
924.525	14027
924.633	13936
924.741	14826
924.849	13791
924.956	13852
925.064	13818
925.172	13639
925.279	13742
925.387	13723
925.494	13772
925.602	13791
925.709	13719
925.816	13586
925.924	13723
926.031	13784
926.138	13689
926.245	13731
926.352	13567
926.459	13738
926.566	13727
926.673	13582
926.779	13346
926.886	13460
926.993	13293
927.099	13274
927.206	13171
927.312	13194
927.419	13331
927.525	13221
927.631	13308
927.737	13198
927.843	13034
927.95	13061
928.056	13118
928.162	13031
928.267	13107
928.373	13689
928.479	13012
928.585	12939
928.69	13008
928.796	13053
928.901	12901
929.007	12757
929.112	12802
929.218	12837
929.323	12817
929.428	12749
929.533	12894
929.638	12772
929.743	12745
929.848	12730
929.953	12681
930.058	12601
930.163	12426
930.267	12494
930.372	12616
930.477	12414
930.581	12601
930.685	12486
930.79	12300
930.894	12292
930.998	12330
931.103	12407
931.207	12072
931.311	11988
931.415	11817
931.519	11672
931.623	11672
