Data from test_V78500241_3292.txt Node
Date: Fri Mar 25 16:04:36 CST 2022
User: usil
Spectrometer: V785-0024
Trigger mode: 0
Integration Time (sec): 4.000000E-1
Scans to average: 1
Nonlinearity correction enabled: false
Boxcar width: 0
Storing dark spectrum: false
XAxis mode: Wavelengths
Number of Pixels in Spectrum: 1024
>>>>>Begin Spectral Data<<<<<
801.071	28596
801.214	28653
801.356	28577
801.499	28455
801.641	28386
801.783	28379
801.926	28466
802.068	28325
802.211	28223
802.353	28242
802.496	28070
802.638	28063
802.78	27953
802.923	27914
803.065	28101
803.208	27934
803.35	28162
803.492	28200
803.635	28344
803.777	28116
803.919	28230
804.061	28542
804.204	28360
804.346	28238
804.488	28078
804.63	28272
804.773	28101
804.915	28398
805.057	28451
805.199	28303
805.341	28329
805.483	28428
805.626	28436
805.768	28348
805.91	28516
806.052	28333
806.194	28455
806.336	28565
806.478	28466
806.62	28466
806.762	28679
806.904	28847
807.046	28980
807.188	28854
807.33	28816
807.472	29006
807.614	28850
807.756	28752
807.898	28641
808.04	28588
808.182	28599
808.324	28790
808.465	28854
808.607	28976
808.749	29109
808.891	29162
809.033	29277
809.174	29166
809.316	29174
809.458	29048
809.6	29098
809.741	29239
809.883	29258
810.025	29455
810.166	29509
810.308	29452
810.45	29444
810.591	29337
810.733	29258
810.875	29227
811.016	29105
811.158	29147
811.299	29280
811.441	29220
811.582	29406
811.724	29143
811.865	29124
812.007	29052
812.148	29174
812.29	29353
812.431	29459
812.573	29459
812.714	29638
812.855	29786
812.997	29847
813.138	29862
813.279	29786
813.421	29646
813.562	29649
813.703	29512
813.845	29391
813.986	29086
814.127	28919
814.268	28976
814.41	28850
814.551	28835
814.692	28843
814.833	28713
814.974	28908
815.115	28919
815.256	28725
815.397	28774
815.539	28706
815.68	28656
815.821	28596
815.962	28588
816.103	28778
816.244	28645
816.385	28409
816.526	28341
816.666	28322
816.807	27960
816.948	28265
817.089	28390
817.23	28226
817.371	28261
817.512	28188
817.653	28093
817.793	28101
817.934	28109
818.075	28131
818.216	28207
818.356	28116
818.497	28116
818.638	27903
818.778	27937
818.919	28131
819.06	28063
819.2	28177
819.341	28211
819.481	28188
819.622	28322
819.762	28481
819.903	28386
820.043	28440
820.184	28375
820.324	28401
820.465	28485
820.605	28352
820.746	28261
820.886	28154
821.026	28295
821.167	28284
821.307	28261
821.447	28272
821.588	28021
821.728	28044
821.868	27816
822.008	27759
822.149	27549
822.289	27660
822.429	27454
822.569	27378
822.709	27287
822.849	27218
822.99	27108
823.13	27192
823.27	27131
823.41	27074
823.55	26842
823.69	26990
823.83	27051
823.97	26838
824.11	26632
824.25	26830
824.389	26712
824.529	26868
824.669	26929
824.809	26887
824.949	27009
825.089	26956
825.228	26857
825.368	26655
825.508	26625
825.648	26659
825.787	26686
825.927	26853
826.067	26693
826.206	26636
826.346	26807
826.485	26876
826.625	26678
826.765	26826
826.904	26754
827.044	26560
827.183	26495
827.323	26370
827.462	26465
827.601	26594
827.741	26480
827.88	26446
828.02	26355
828.159	26301
828.298	26552
828.437	26442
828.577	26362
828.716	26412
828.855	26328
828.994	26130
829.134	26301
829.273	26221
829.412	26107
829.551	26054
829.69	26119
829.829	26168
829.968	26309
830.107	26339
830.246	26176
830.385	26016
830.524	26031
830.663	25845
830.802	25966
830.941	25734
831.08	25696
831.219	25780
831.357	25845
831.496	26073
831.635	25776
831.774	25738
831.913	25632
832.051	25499
832.19	25491
832.329	25571
832.467	25510
832.606	25514
832.744	25483
832.883	25392
833.022	25327
833.16	25506
833.299	25449
833.437	25407
833.576	25468
833.714	25476
833.852	25575
833.991	25491
834.129	25552
834.267	25506
834.406	25518
834.544	25495
834.682	25472
834.821	25495
834.959	25632
835.097	25567
835.235	25540
835.373	25464
835.511	25556
835.65	25407
835.788	25225
835.926	25308
836.064	25065
836.202	25076
836.34	25400
836.478	25407
836.615	25274
836.753	25285
836.891	25270
837.029	25369
837.167	25270
837.305	25282
837.443	25194
837.58	25038
837.718	25179
837.856	25183
837.993	25080
838.131	25133
838.269	24996
838.406	25046
838.544	24795
838.681	24810
838.819	24783
838.956	24486
839.094	24593
839.231	24669
839.369	24741
839.506	25008
839.643	24768
839.781	24757
839.918	24608
840.055	24711
840.193	24563
840.33	24555
840.467	24604
840.604	24642
840.742	24821
840.879	24407
841.016	24475
841.153	24372
841.29	24608
841.427	24388
841.564	24483
841.701	24555
841.838	24467
841.975	24445
842.112	24403
842.249	24441
842.385	24311
842.522	24464
842.659	24251
842.796	24251
842.933	24388
843.069	24205
843.206	24152
843.343	24266
843.479	24197
843.616	24194
843.752	24049
843.889	24049
844.025	24121
844.162	23950
844.298	24091
844.435	23996
844.571	24079
844.708	24007
844.844	24235
844.98	24273
845.117	24254
845.253	23999
845.389	23984
845.525	24030
845.661	23920
845.798	23859
845.934	23893
846.07	23798
846.206	23817
846.342	23939
846.478	23665
846.614	23524
846.75	23471
846.886	23547
847.022	23589
847.158	23608
847.294	23619
847.429	23512
847.565	23444
847.701	23737
847.837	23197
847.972	23220
848.108	23395
848.244	23307
848.379	23185
848.515	23071
848.65	23025
848.786	23056
848.921	23056
849.057	23170
849.192	23261
849.328	23200
849.463	23162
849.598	23033
849.734	22900
849.869	22862
850.004	22968
850.14	22900
850.275	22824
850.41	22847
850.545	22809
850.68	22744
850.815	22915
850.95	22831
851.085	23010
851.22	23014
851.355	22949
851.49	22885
851.625	22904
851.76	22839
851.895	22801
852.03	22904
852.165	22805
852.299	22930
852.434	22896
852.569	22889
852.703	22881
852.838	22801
852.973	22873
853.107	22991
853.242	22824
853.376	22694
853.511	22569
853.645	22687
853.78	22763
853.914	22630
854.048	22656
854.183	22660
854.317	22782
854.451	22908
854.585	22763
854.72	22839
854.854	22782
854.988	22702
855.122	22542
855.256	22649
855.39	22733
855.524	22721
855.658	22645
855.792	22729
855.926	22660
856.06	22687
856.194	22759
856.327	22607
856.461	22599
856.595	22603
856.729	22611
856.862	22812
856.996	22736
857.13	22755
857.263	22759
857.397	22805
857.53	22607
857.664	22656
857.797	22736
857.931	22710
858.064	22672
858.197	22786
858.331	22645
858.464	22634
858.597	22462
858.731	22649
858.864	22660
858.997	22634
859.13	22622
859.263	22679
859.396	22721
859.529	22637
859.662	22664
859.795	22626
859.928	22523
860.061	22744
860.194	22767
860.327	22721
860.46	22656
860.592	22908
860.725	22828
860.858	22759
860.99	22557
861.123	22615
861.256	22637
861.388	22679
861.521	23307
861.653	22478
861.786	22417
861.918	22535
862.05	22683
862.183	22535
862.315	22577
862.447	22679
862.58	22660
862.712	22409
862.844	22379
862.976	22443
863.108	22413
863.24	22923
863.372	22398
863.504	22322
863.636	22375
863.768	22333
863.9	22360
864.032	22261
864.164	22238
864.296	22432
864.428	22470
864.559	22512
864.691	22432
864.823	22382
864.954	22314
865.086	22367
865.217	22226
865.349	22074
865.48	22329
865.612	22242
865.743	22344
865.875	22101
866.006	22253
866.137	22261
866.269	22185
866.4	22150
866.531	22291
866.662	22143
866.793	22211
866.924	22169
867.055	22284
867.186	22257
867.317	22143
867.448	22063
867.579	22181
867.71	22158
867.841	22040
867.972	22257
868.103	22188
868.233	22169
868.364	22173
868.495	22242
868.625	22493
868.756	22489
868.886	22360
869.017	22363
869.147	22641
869.278	22607
869.408	22466
869.539	22390
869.669	22485
869.799	22489
869.929	22573
870.06	22637
870.19	22729
870.32	22759
870.45	22824
870.58	22801
870.71	22923
870.84	22824
870.97	22759
871.1	22683
871.23	23105
871.36	22946
871.489	22938
871.619	22999
871.749	22953
871.879	23041
872.008	23098
872.138	23117
872.267	23041
872.397	22835
872.526	22866
872.656	22919
872.785	22847
872.915	22980
873.044	23060
873.173	23098
873.303	23220
873.432	23037
873.561	23189
873.69	22987
873.819	23067
873.948	23094
874.077	23117
874.206	22953
874.335	23029
874.464	23151
874.593	23246
874.722	23174
874.851	23269
874.979	23280
875.108	23433
875.237	23185
875.365	23181
875.494	23212
875.623	23402
875.751	23208
875.88	23235
876.008	23387
876.136	23425
876.265	23600
876.393	23687
876.521	23699
876.65	23824
876.778	23699
876.906	23516
877.034	23577
877.162	23661
877.29	23611
877.418	23619
877.546	23512
877.674	23509
877.802	23497
877.93	23551
878.058	23486
878.185	23322
878.313	23528
878.441	23615
878.568	23299
878.696	23570
878.824	23741
878.951	23691
879.079	23684
879.206	23977
879.333	23726
879.461	23619
879.588	23684
879.715	23615
879.842	23958
879.97	23699
880.097	23379
880.224	23463
880.351	23433
880.478	23429
880.605	23436
880.732	23372
880.859	23570
880.986	23318
881.112	23318
881.239	23402
881.366	23037
881.493	22987
881.619	22965
881.746	23010
881.872	22869
881.999	22949
882.125	23041
882.252	23067
882.378	23048
882.505	22892
882.631	22843
882.757	22641
882.883	22626
883.01	22694
883.136	22630
883.262	22577
883.388	22462
883.514	22611
883.64	22599
883.766	22607
883.892	22379
884.018	22341
884.143	22584
884.269	22672
884.395	22196
884.52	22219
884.646	22268
884.772	22337
884.897	22112
885.023	22314
885.148	22386
885.274	22561
885.399	22485
885.524	22242
885.65	22249
885.775	22356
885.9	22280
886.025	22466
886.15	22428
886.275	22337
886.4	22109
886.525	22158
886.65	22238
886.775	22139
886.9	22284
887.025	22546
887.149	22280
887.274	22010
887.399	22010
887.523	21983
887.648	22112
887.773	21812
887.897	22070
888.021	21998
888.146	21979
888.27	22154
888.395	22090
888.519	22093
888.643	22025
888.767	21953
888.891	21918
889.015	21926
889.139	21895
889.263	21759
889.387	21937
889.511	22021
889.635	21918
889.759	21766
889.883	21770
890.006	21869
890.13	21941
890.254	21892
890.377	21797
890.501	21545
890.624	21526
890.748	21572
890.871	21325
890.995	21283
891.118	21310
891.241	21397
891.364	21340
891.488	21374
891.611	21393
891.734	21359
891.857	21374
891.98	21291
892.103	21397
892.226	21378
892.349	21351
892.471	21199
892.594	21332
892.717	21294
892.839	21313
892.962	21252
893.085	21393
893.207	21207
893.33	21184
893.452	21161
893.575	21351
893.697	21233
893.819	21428
893.941	21458
894.064	21428
894.186	21230
894.308	21089
894.43	21279
894.552	21359
894.674	21180
894.796	21070
894.918	21214
895.04	21214
895.161	21313
895.283	21313
895.405	21161
895.526	21119
895.648	21192
895.769	21226
895.891	21329
896.012	21408
896.134	21332
896.255	21169
896.376	21135
896.498	21260
896.619	21241
896.74	21176
896.861	21260
896.982	21473
897.103	21709
897.224	21435
897.345	21488
897.466	21268
897.587	21431
897.708	21530
897.828	21473
897.949	21367
898.07	21195
898.19	21245
898.311	21428
898.431	21367
898.552	21496
898.672	21485
898.792	21420
898.913	21355
899.033	21264
899.153	21287
899.273	21001
899.393	21108
899.513	21199
899.633	21131
899.753	21123
899.873	20948
899.993	21047
900.113	21047
900.232	21112
900.352	21051
900.472	20990
900.591	20861
900.711	20963
900.83	20868
900.95	21047
901.069	20960
901.189	20883
901.308	20667
901.427	20339
901.546	20442
901.665	20533
901.784	20404
901.904	20305
902.023	20294
902.141	20168
902.26	19974
902.379	20153
902.498	19890
902.617	19921
902.735	20077
902.854	19864
902.973	19769
903.091	19674
903.21	19635
903.328	19609
903.446	19624
903.565	19411
903.683	19396
903.801	19358
903.919	19476
904.038	19350
904.156	19251
904.274	19320
904.392	19118
904.51	19160
904.627	19179
904.745	19225
904.863	19198
904.981	18943
905.098	18897
905.216	18837
905.334	18966
905.451	18947
905.569	18856
905.686	18913
905.803	18719
905.921	18745
906.038	18810
906.155	18456
906.272	18597
906.389	18574
906.506	18471
906.623	18429
906.74	18315
906.857	18140
906.974	18285
907.091	18380
907.208	18490
907.324	18342
907.441	18232
907.557	18152
907.674	18201
907.79	18045
907.907	18057
908.023	18079
908.139	18015
908.256	18057
908.372	18045
908.488	17980
908.604	17927
908.72	17802
908.836	17836
908.952	17771
909.068	17794
909.184	17923
909.3	17718
909.415	17752
909.531	17668
909.647	17592
909.762	17490
909.878	17558
909.993	17512
910.108	17478
910.224	17414
910.339	17406
910.454	17345
910.57	17277
910.685	17242
910.8	17493
910.915	17543
911.03	17288
911.145	17132
911.259	17090
911.374	17071
911.489	17014
911.604	16930
911.718	16862
911.833	16854
911.947	16862
912.062	16672
912.176	16801
912.291	16683
912.405	16774
912.519	17014
912.633	16942
912.748	16809
912.862	16854
912.976	16656
913.09	16466
913.204	16577
913.318	16679
913.431	16717
913.545	16721
913.659	16630
913.772	16596
913.886	16474
914	16462
914.113	16440
914.226	16592
914.34	16394
914.453	16284
914.566	16542
914.68	16215
914.793	16158
914.906	16135
915.019	15983
915.132	15998
915.245	15934
915.358	16048
915.47	15926
915.583	16044
915.696	15991
915.809	16071
915.921	16082
916.034	16063
916.146	15979
916.259	15842
916.371	15991
916.483	15850
916.595	15835
916.708	15789
916.82	15724
916.932	15800
917.044	15732
917.156	15694
917.268	15701
917.38	15641
917.491	15553
917.603	15549
917.715	15644
917.826	15679
917.938	15671
918.049	15523
918.161	15618
918.272	15625
918.384	15717
918.495	15526
918.606	15351
918.717	15222
918.828	15393
918.939	15428
919.05	15237
919.161	15302
919.272	15119
919.383	15192
919.494	15367
919.604	15469
919.715	15291
919.826	15218
919.936	15348
920.047	15313
920.157	15359
920.267	15424
920.378	15336
920.488	15275
920.598	15496
920.708	15477
920.818	15351
920.928	15405
921.038	15599
921.148	15462
921.258	15272
921.368	15138
921.477	15051
921.587	14899
921.697	14918
921.806	15005
921.916	14876
922.025	14754
922.134	14663
922.244	14663
922.353	14640
922.462	14598
922.571	14526
922.68	14301
922.789	14355
922.898	14389
923.007	14317
923.116	14317
923.224	14267
923.333	14256
923.442	14191
923.55	14092
923.659	14183
923.767	14100
923.876	13978
923.984	14176
924.092	13963
924.201	14115
924.309	14084
924.417	13936
924.525	13864
924.633	13978
924.741	14750
924.849	13696
924.956	13818
925.064	13605
925.172	13552
925.279	13616
925.387	13609
925.494	13636
925.602	13761
925.709	13700
925.816	13559
925.924	13628
926.031	13685
926.138	13502
926.245	13616
926.352	13495
926.459	13563
926.566	13628
926.673	13464
926.779	13468
926.886	13369
926.993	13236
927.099	13274
927.206	13141
927.312	13141
927.419	13247
927.525	13202
927.631	13244
927.737	13004
927.843	13023
927.95	12973
928.056	12977
928.162	13004
928.267	13095
928.373	13544
928.479	13072
928.585	12840
928.69	12951
928.796	12951
928.901	12863
929.007	12787
929.112	12859
929.218	12760
929.323	12730
929.428	12597
929.533	12817
929.638	12635
929.743	12677
929.848	12711
929.953	12639
930.058	12517
930.163	12475
930.267	12475
930.372	12456
930.477	12410
930.581	12597
930.685	12410
930.79	12239
930.894	12338
930.998	12289
931.103	12330
931.207	12015
931.311	11984
931.415	11756
931.519	11627
931.623	11581
