Data from test_V78500241_3138.txt Node
Date: Fri Mar 25 16:03:32 CST 2022
User: usil
Spectrometer: V785-0024
Trigger mode: 0
Integration Time (sec): 4.000000E-1
Scans to average: 1
Nonlinearity correction enabled: false
Boxcar width: 0
Storing dark spectrum: false
XAxis mode: Wavelengths
Number of Pixels in Spectrum: 1024
>>>>>Begin Spectral Data<<<<<
801.071	28869
801.214	28744
801.356	28531
801.499	28432
801.641	28318
801.783	28398
801.926	28379
802.068	28466
802.211	28226
802.353	28375
802.496	28166
802.638	28204
802.78	27964
802.923	27888
803.065	27922
803.208	28063
803.35	28082
803.492	28257
803.635	28329
803.777	28181
803.919	28234
804.061	28584
804.204	28329
804.346	28299
804.488	28276
804.63	28333
804.773	28356
804.915	28325
805.057	28508
805.199	28421
805.341	28390
805.483	28527
805.626	28493
805.768	28428
805.91	28588
806.052	28489
806.194	28360
806.336	28580
806.478	28440
806.62	28485
806.762	28687
806.904	28820
807.046	28999
807.188	29003
807.33	28961
807.472	28961
807.614	28885
807.756	28949
807.898	28843
808.04	28713
808.182	28820
808.324	28778
808.465	28896
808.607	29162
808.749	29071
808.891	29204
809.033	29315
809.174	29254
809.316	29124
809.458	28999
809.6	29094
809.741	29307
809.883	29330
810.025	29383
810.166	29657
810.308	29604
810.45	29436
810.591	29512
810.733	29288
810.875	29239
811.016	28968
811.158	29121
811.299	29216
811.441	29455
811.582	29535
811.724	29220
811.865	29242
812.007	29204
812.148	29136
812.29	29269
812.431	29516
812.573	29551
812.714	29528
812.855	29627
812.997	29912
813.138	30102
813.279	29961
813.421	29794
813.562	29718
813.703	29490
813.845	29387
813.986	29208
814.127	28953
814.268	28987
814.41	28942
814.551	28942
814.692	29037
814.833	28790
814.974	28930
815.115	29022
815.256	28786
815.397	28782
815.539	28805
815.68	28725
815.821	28694
815.962	28569
816.103	28767
816.244	28538
816.385	28436
816.526	28421
816.666	28219
816.807	28147
816.948	28268
817.089	28424
817.23	28287
817.371	28306
817.512	28234
817.653	28272
817.793	28166
817.934	28291
818.075	28382
818.216	28291
818.356	28173
818.497	28143
818.638	27994
818.778	27926
818.919	27937
819.06	28093
819.2	28177
819.341	28371
819.481	28211
819.622	28508
819.762	28713
819.903	28493
820.043	28516
820.184	28352
820.324	28409
820.465	28538
820.605	28344
820.746	28276
820.886	28196
821.026	28367
821.167	28333
821.307	28489
821.447	28325
821.588	28173
821.728	28051
821.868	27964
822.008	27831
822.149	27869
822.289	27701
822.429	27420
822.569	27424
822.709	27504
822.849	27161
822.99	27195
823.13	27329
823.27	27222
823.41	27195
823.55	26952
823.69	27096
823.83	27119
823.97	26960
824.11	27009
824.25	26864
824.389	26876
824.529	26971
824.669	26842
824.809	27039
824.949	26868
825.089	26918
825.228	26956
825.368	26686
825.508	26693
825.648	26727
825.787	26823
825.927	26880
826.067	26800
826.206	26807
826.346	26724
826.485	26815
826.625	26762
826.765	26845
826.904	26697
827.044	26636
827.183	26621
827.323	26507
827.462	26571
827.601	26632
827.741	26598
827.88	26606
828.02	26256
828.159	26393
828.298	26473
828.437	26617
828.577	26560
828.716	26678
828.855	26370
828.994	26024
829.134	26221
829.273	26218
829.412	26164
829.551	26088
829.69	26259
829.829	26240
829.968	26221
830.107	26415
830.246	26130
830.385	26161
830.524	26103
830.663	25993
830.802	25963
830.941	25852
831.08	25811
831.219	25769
831.357	25875
831.496	25814
831.635	25845
831.774	25674
831.913	25624
832.051	25639
832.19	25693
832.329	25544
832.467	25544
832.606	25552
832.744	25441
832.883	25396
833.022	25381
833.16	25651
833.299	25502
833.437	25567
833.576	25552
833.714	25563
833.852	25578
833.991	25563
834.129	25628
834.267	25635
834.406	25586
834.544	25571
834.682	25533
834.821	25548
834.959	25605
835.097	25358
835.235	25540
835.373	25506
835.511	25445
835.65	25373
835.788	25308
835.926	25301
836.064	25297
836.202	25160
836.34	25388
836.478	25434
836.615	25384
836.753	25419
836.891	25278
837.029	25388
837.167	25110
837.305	25164
837.443	25129
837.58	25190
837.718	25129
837.856	25217
837.993	25107
838.131	25156
838.269	25061
838.406	25141
838.544	25091
838.681	24890
838.819	24859
838.956	24612
839.094	24711
839.231	24703
839.369	24886
839.506	25091
839.643	24817
839.781	24635
839.918	24589
840.055	24658
840.193	24585
840.33	24620
840.467	24616
840.604	24616
840.742	24814
840.879	24494
841.016	24456
841.153	24418
841.29	24574
841.427	24566
841.564	24502
841.701	24456
841.838	24350
841.975	24391
842.112	24460
842.249	24266
842.385	24342
842.522	24642
842.659	24395
842.796	24372
842.933	24304
843.069	24270
843.206	24148
843.343	24327
843.479	24388
843.616	24353
843.752	24095
843.889	23988
844.025	24129
844.162	24106
844.298	24106
844.435	24205
844.571	24121
844.708	24270
844.844	24289
844.98	24155
845.117	24095
845.253	24045
845.389	23977
845.525	23935
845.661	23923
845.798	23901
845.934	23855
846.07	23733
846.206	23646
846.342	23965
846.478	23885
846.614	23528
846.75	23444
846.886	23497
847.022	23539
847.158	23501
847.294	23558
847.429	23581
847.565	23596
847.701	23756
847.837	23292
847.972	23204
848.108	23197
848.244	23356
848.379	23155
848.515	23132
848.65	23140
848.786	23105
848.921	23143
849.057	23345
849.192	23181
849.328	23246
849.463	23197
849.598	23010
849.734	22999
849.869	22961
850.004	22862
850.14	22908
850.275	22896
850.41	22869
850.545	22767
850.68	22900
850.815	22904
850.95	22896
851.085	22991
851.22	23006
851.355	22862
851.49	22930
851.625	22854
851.76	22790
851.895	22736
852.03	22839
852.165	22831
852.299	23010
852.434	22984
852.569	22946
852.703	22927
852.838	22835
852.973	23102
853.107	23067
853.242	22755
853.376	22706
853.511	22535
853.645	22713
853.78	22820
853.914	22611
854.048	22694
854.183	22721
854.317	22797
854.451	22889
854.585	22672
854.72	22683
854.854	22820
854.988	22626
855.122	22744
855.256	22634
855.39	22546
855.524	22786
855.658	22713
855.792	22706
855.926	22736
856.06	22725
856.194	22812
856.327	22656
856.461	22759
856.595	22729
856.729	22683
856.862	22839
856.996	22717
857.13	22664
857.263	22809
857.397	22854
857.53	22683
857.664	22725
857.797	22793
857.931	22820
858.064	22755
858.197	22858
858.331	22694
858.464	22645
858.597	22653
858.731	22797
858.864	22790
858.997	22713
859.13	22790
859.263	22675
859.396	22854
859.529	22675
859.662	22592
859.795	22736
859.928	22782
860.061	22831
860.194	22854
860.327	22668
860.46	22603
860.592	22820
860.725	22771
860.858	22831
860.99	22721
861.123	22607
861.256	22550
861.388	22767
861.521	23227
861.653	22573
861.786	22542
861.918	22440
862.05	22565
862.183	22565
862.315	22733
862.447	22672
862.58	22577
862.712	22375
862.844	22398
862.976	22550
863.108	22424
863.24	22847
863.372	22344
863.504	22405
863.636	22462
863.768	22379
863.9	22371
864.032	22291
864.164	22398
864.296	22386
864.428	22557
864.559	22557
864.691	22421
864.823	22421
864.954	22360
865.086	22504
865.217	22280
865.349	22261
865.48	22394
865.612	22287
865.743	22470
865.875	22310
866.006	22253
866.137	22379
866.269	22394
866.4	22303
866.531	22192
866.662	22257
866.793	22234
866.924	22246
867.055	22223
867.186	22226
867.317	22230
867.448	22124
867.579	22215
867.71	22143
867.841	22097
867.972	22169
868.103	22253
868.233	22234
868.364	22169
868.495	22306
868.625	22489
868.756	22489
868.886	22409
869.017	22493
869.147	22588
869.278	22615
869.408	22531
869.539	22497
869.669	22508
869.799	22531
869.929	22554
870.06	22615
870.19	22820
870.32	22858
870.45	22744
870.58	22850
870.71	23048
870.84	23006
870.97	22873
871.1	22866
871.23	23086
871.36	23151
871.489	22965
871.619	23075
871.749	23094
871.879	23113
872.008	23307
872.138	23121
872.267	23269
872.397	22980
872.526	22923
872.656	22946
872.785	23003
872.915	23037
873.044	23075
873.173	23242
873.303	23128
873.432	23197
873.561	23136
873.69	23094
873.819	23086
873.948	23124
874.077	23147
874.206	22980
874.335	23052
874.464	23193
874.593	23429
874.722	23303
874.851	23288
874.979	23379
875.108	23292
875.237	23292
875.365	23288
875.494	23277
875.623	23337
875.751	23280
875.88	23307
876.008	23459
876.136	23440
876.265	23699
876.393	23817
876.521	23657
876.65	23649
876.778	23752
876.906	23570
877.034	23714
877.162	23748
877.29	23554
877.418	23528
877.546	23604
877.674	23551
877.802	23661
877.93	23627
878.058	23630
878.185	23558
878.313	23554
878.441	23589
878.568	23531
878.696	23524
878.824	23577
878.951	23767
879.079	23756
879.206	23996
879.333	23760
879.461	23623
879.588	23737
879.715	23786
879.842	23847
879.97	23794
880.097	23493
880.224	23444
880.351	23406
880.478	23425
880.605	23379
880.732	23547
880.859	23627
880.986	23493
881.112	23459
881.239	23299
881.366	23170
881.493	23105
881.619	23033
881.746	22987
881.872	22984
881.999	23083
882.125	22980
882.252	23117
882.378	22984
882.505	23178
882.631	22809
882.757	22809
882.883	22812
883.01	22679
883.136	22565
883.262	22733
883.388	22573
883.514	22653
883.64	22869
883.766	22577
883.892	22447
884.018	22493
884.143	22664
884.269	22710
884.395	22329
884.52	22265
884.646	22375
884.772	22314
884.897	22105
885.023	22211
885.148	22462
885.274	22348
885.399	22432
885.524	22284
885.65	22386
885.775	22238
885.9	22211
886.025	22325
886.15	22417
886.275	22382
886.4	22299
886.525	22337
886.65	22272
886.775	22291
886.9	22466
887.025	22523
887.149	22280
887.274	22219
887.399	22101
887.523	22036
887.648	21968
887.773	21979
887.897	22139
888.021	22090
888.146	22063
888.27	22120
888.395	22188
888.519	22139
888.643	22017
888.767	22032
888.891	21907
889.015	21953
889.139	21907
889.263	21876
889.387	21876
889.511	22051
889.635	21972
889.759	21869
889.883	21797
890.006	21816
890.13	21892
890.254	21781
890.377	21880
890.501	21564
890.624	21572
890.748	21671
890.871	21572
890.995	21408
891.118	21325
891.241	21454
891.364	21408
891.488	21511
891.611	21382
891.734	21412
891.857	21511
891.98	21389
892.103	21439
892.226	21412
892.349	21313
892.471	21230
892.594	21199
892.717	21359
892.839	21340
892.962	21306
893.085	21370
893.207	21245
893.33	21222
893.452	21207
893.575	21348
893.697	21249
893.819	21332
893.941	21466
894.064	21405
894.186	21195
894.308	21287
894.43	21302
894.552	21458
894.674	21298
894.796	21241
894.918	21306
895.04	21249
895.161	21291
895.283	21317
895.405	21226
895.526	21252
895.648	21321
895.769	21332
895.891	21245
896.012	21473
896.134	21279
896.255	21344
896.376	21146
896.498	21264
896.619	21275
896.74	21252
896.861	21325
896.982	21557
897.103	21618
897.224	21629
897.345	21401
897.466	21317
897.587	21583
897.708	21660
897.828	21618
897.949	21412
898.07	21397
898.19	21332
898.311	21462
898.431	21401
898.552	21416
898.672	21523
898.792	21557
898.913	21382
899.033	21359
899.153	21260
899.273	21081
899.393	21176
899.513	21127
899.633	21150
899.753	21249
899.873	21112
899.993	21169
900.113	21066
900.232	21013
900.352	21127
900.472	21070
900.591	20963
900.711	20952
900.83	20982
900.95	21093
901.069	21001
901.189	20754
901.308	20648
901.427	20476
901.546	20476
901.665	20541
901.784	20541
901.904	20412
902.023	20191
902.141	20164
902.26	20016
902.379	19974
902.498	20164
902.617	19940
902.735	19970
902.854	19997
902.973	19925
903.091	19693
903.21	19780
903.328	19594
903.446	19582
903.565	19605
903.683	19567
903.801	19270
903.919	19426
904.038	19441
904.156	19358
904.274	19457
904.392	19175
904.51	19133
904.627	19206
904.745	19232
904.863	19198
904.981	19015
905.098	18977
905.216	18916
905.334	18913
905.451	18875
905.569	18829
905.686	18878
905.803	18783
905.921	18631
906.038	18810
906.155	18734
906.272	18551
906.389	18612
906.506	18490
906.623	18437
906.74	18494
906.857	18334
906.974	18418
907.091	18521
907.208	18460
907.324	18464
907.441	18308
907.557	18216
907.674	18155
907.79	18095
907.907	18167
908.023	18197
908.139	18152
908.256	18083
908.372	17992
908.488	17958
908.604	17916
908.72	17832
908.836	17851
908.952	17729
909.068	17859
909.184	18015
909.3	17752
909.415	17745
909.531	17752
909.647	17528
909.762	17532
909.878	17436
909.993	17448
910.108	17497
910.224	17406
910.339	17353
910.454	17368
910.57	17349
910.685	17170
910.8	17524
910.915	17547
911.03	17326
911.145	17124
911.259	17109
911.374	17086
911.489	17079
911.604	16923
911.718	16873
911.833	16790
911.947	16786
912.062	16824
912.176	16869
912.291	16873
912.405	16793
912.519	17159
912.633	16961
912.748	16919
912.862	16824
912.976	16744
913.09	16637
913.204	16675
913.318	16626
913.431	16831
913.545	16664
913.659	16717
913.772	16592
913.886	16356
914	16390
914.113	16386
914.226	16527
914.34	16462
914.453	16318
914.566	16516
914.68	16371
914.793	16284
914.906	16143
915.019	16013
915.132	15941
915.245	15934
915.358	16029
915.47	16021
915.583	15968
915.696	16055
915.809	16074
915.921	16124
916.034	15956
916.146	15873
916.259	15800
916.371	15968
916.483	15941
916.595	15873
916.708	15873
916.82	15781
916.932	15873
917.044	15778
917.156	15907
917.268	15701
917.38	15652
917.491	15732
917.603	15595
917.715	15705
917.826	15667
917.938	15587
918.049	15507
918.161	15542
918.272	15698
918.384	15701
918.495	15492
918.606	15435
918.717	15291
918.828	15401
918.939	15485
919.05	15226
919.161	15397
919.272	15249
919.383	15218
919.494	15405
919.604	15568
919.715	15447
919.826	15169
919.936	15329
920.047	15386
920.157	15329
920.267	15507
920.378	15363
920.488	15249
920.598	15431
920.708	15625
920.818	15447
920.928	15485
921.038	15633
921.148	15561
921.258	15252
921.368	15218
921.477	15112
921.587	15047
921.697	14857
921.806	15036
921.916	14868
922.025	14762
922.134	14659
922.244	14682
922.353	14674
922.462	14507
922.571	14537
922.68	14434
922.789	14278
922.898	14377
923.007	14278
923.116	14259
923.224	14263
923.333	14282
923.442	14164
923.55	14020
923.659	14107
923.767	14183
923.876	14103
923.984	14157
924.092	14027
924.201	14138
924.309	14046
924.417	14031
924.525	13890
924.633	13852
924.741	14720
924.849	13849
924.956	13791
925.064	13685
925.172	13727
925.279	13715
925.387	13674
925.494	13681
925.602	13776
925.709	13700
925.816	13556
925.924	13636
926.031	13696
926.138	13518
926.245	13715
926.352	13597
926.459	13731
926.566	13731
926.673	13559
926.779	13400
926.886	13373
926.993	13335
927.099	13225
927.206	13133
927.312	13244
927.419	13247
927.525	13240
927.631	13263
927.737	13129
927.843	13046
927.95	12932
928.056	13080
928.162	13110
928.267	13061
928.373	13628
928.479	13076
928.585	12787
928.69	12920
928.796	13004
928.901	12924
929.007	12692
929.112	12935
929.218	12806
929.323	12726
929.428	12707
929.533	12859
929.638	12696
929.743	12779
929.848	12783
929.953	12692
930.058	12547
930.163	12342
930.267	12429
930.372	12563
930.477	12353
930.581	12563
930.685	12433
930.79	12330
930.894	12258
930.998	12205
931.103	12418
931.207	12091
931.311	12026
931.415	11794
931.519	11699
931.623	11638
