Data from test_V78500241_1075.txt Node
Date: Fri Mar 25 15:49:14 CST 2022
User: usil
Spectrometer: V785-0024
Trigger mode: 0
Integration Time (sec): 4.000000E-1
Scans to average: 1
Nonlinearity correction enabled: false
Boxcar width: 0
Storing dark spectrum: false
XAxis mode: Wavelengths
Number of Pixels in Spectrum: 1024
>>>>>Begin Spectral Data<<<<<
801.071	28329
801.214	28261
801.356	28093
801.499	27956
801.641	27998
801.783	27979
801.926	27983
802.068	27850
802.211	27835
802.353	27793
802.496	27545
802.638	27538
802.78	27523
802.923	27557
803.065	27401
803.208	27507
803.35	27709
803.492	27698
803.635	27819
803.777	27675
803.919	27816
804.061	28032
804.204	27903
804.346	27698
804.488	27656
804.63	27679
804.773	27500
804.915	27633
805.057	27751
805.199	27705
805.341	27903
805.483	27926
805.626	27934
805.768	27641
805.91	27968
806.052	27892
806.194	27880
806.336	28086
806.478	27846
806.62	27907
806.762	28082
806.904	28147
807.046	28489
807.188	28356
807.33	28249
807.472	28421
807.614	28303
807.756	28367
807.898	28223
808.04	28238
808.182	28166
808.324	28303
808.465	28341
808.607	28428
808.749	28523
808.891	28656
809.033	28679
809.174	28679
809.316	28360
809.458	28481
809.6	28516
809.741	28698
809.883	28721
810.025	28946
810.166	28835
810.308	28934
810.45	28752
810.591	28691
810.733	28615
810.875	28535
811.016	28398
811.158	28405
811.299	28729
811.441	28786
811.582	28816
811.724	28656
811.865	28447
812.007	28645
812.148	28573
812.29	28679
812.431	28824
812.573	28949
812.714	29105
812.855	29094
812.997	29143
813.138	29353
813.279	29197
813.421	29098
813.562	29071
813.703	28938
813.845	28854
813.986	28626
814.127	28401
814.268	28268
814.41	28405
814.551	28306
814.692	28447
814.833	28436
814.974	28268
815.115	28265
815.256	28177
815.397	28238
815.539	28185
815.68	28086
815.821	27968
815.962	28147
816.103	28139
816.244	28032
816.385	27819
816.526	27781
816.666	27698
816.807	27447
816.948	27595
817.089	27774
817.23	27625
817.371	27595
817.512	27682
817.653	27580
817.793	27534
817.934	27542
818.075	27629
818.216	27671
818.356	27587
818.497	27606
818.638	27332
818.778	27325
818.919	27382
819.06	27386
819.2	27538
819.341	27587
819.481	27545
819.622	27759
819.762	27983
819.903	27827
820.043	27934
820.184	27804
820.324	27701
820.465	27705
820.605	27713
820.746	27679
820.886	27572
821.026	27759
821.167	27576
821.307	27728
821.447	27485
821.588	27549
821.728	27389
821.868	27184
822.008	27275
822.149	26960
822.289	27013
822.429	26963
822.569	26689
822.709	26804
822.849	26659
822.99	26678
823.13	26686
823.27	26488
823.41	26408
823.55	26206
823.69	26484
823.83	26480
823.97	26347
824.11	26282
824.25	26107
824.389	26256
824.529	26442
824.669	26294
824.809	26393
824.949	26290
825.089	26244
825.228	26355
825.368	26142
825.508	26202
825.648	26256
825.787	26286
825.927	26298
826.067	26024
826.206	26050
826.346	26263
826.485	26267
826.625	26191
826.765	26259
826.904	26282
827.044	25890
827.183	25951
827.323	25871
827.462	25940
827.601	25925
827.741	25883
827.88	25974
828.02	25826
828.159	25765
828.298	25791
828.437	25928
828.577	25803
828.716	25940
828.855	25727
828.994	25552
829.134	25476
829.273	25670
829.412	25502
829.551	25464
829.69	25597
829.829	25544
829.968	25643
830.107	25715
830.246	25548
830.385	25563
830.524	25438
830.663	25335
830.802	25278
830.941	25126
831.08	25198
831.219	25384
831.357	25339
831.496	25392
831.635	25099
831.774	25027
831.913	24973
832.051	25080
832.19	24916
832.329	24886
832.467	24859
832.606	24833
832.744	24757
832.883	24802
833.022	24779
833.16	24932
833.299	24939
833.437	24829
833.576	24878
833.714	24867
833.852	25080
833.991	24951
834.129	25023
834.267	24992
834.406	24935
834.544	24878
834.682	24867
834.821	24871
834.959	25004
835.097	24810
835.235	24928
835.373	24924
835.511	24920
835.65	24867
835.788	24776
835.926	24532
836.064	24650
836.202	24555
836.34	24760
836.478	24817
836.615	24734
836.753	24692
836.891	24817
837.029	24669
837.167	24574
837.305	24627
837.443	24642
837.58	24566
837.718	24570
837.856	24597
837.993	24490
838.131	24448
838.269	24479
838.406	24418
838.544	24380
838.681	24270
838.819	24216
838.956	24095
839.094	23927
839.231	24114
839.369	24098
839.506	24285
839.643	24209
839.781	24011
839.918	23931
840.055	24026
840.193	24003
840.33	23939
840.467	23855
840.604	24022
840.742	24072
840.879	23878
841.016	23851
841.153	23813
841.29	23999
841.427	23908
841.564	23977
841.701	24007
841.838	23954
841.975	23748
842.112	23961
842.249	23672
842.385	23760
842.522	23935
842.659	23794
842.796	23676
842.933	23684
843.069	23581
843.206	23547
843.343	23733
843.479	23581
843.616	23630
843.752	23436
843.889	23448
844.025	23627
844.162	23227
844.298	23608
844.435	23425
844.571	23372
844.708	23478
844.844	23596
844.98	23531
845.117	23478
845.253	23490
845.389	23315
845.525	23284
845.661	23334
845.798	23159
845.934	23265
846.07	23254
846.206	23151
846.342	23341
846.478	23147
846.614	23022
846.75	22885
846.886	22911
847.022	22934
847.158	22915
847.294	22892
847.429	22957
847.565	22942
847.701	23117
847.837	22630
847.972	22611
848.108	22630
848.244	22702
848.379	22603
848.515	22656
848.65	22550
848.786	22459
848.921	22478
849.057	22584
849.192	22660
849.328	22554
849.463	22432
849.598	22500
849.734	22386
849.869	22375
850.004	22367
850.14	22211
850.275	22360
850.41	22090
850.545	22253
850.68	22249
850.815	22200
850.95	22337
851.085	22481
851.22	22341
851.355	22268
851.49	22154
851.625	22318
851.76	22219
851.895	22261
852.03	22318
852.165	22211
852.299	22329
852.434	22325
852.569	22265
852.703	22333
852.838	22299
852.973	22344
853.107	22394
853.242	22257
853.376	22082
853.511	21991
853.645	22010
853.78	22169
853.914	22109
854.048	22124
854.183	22101
854.317	22192
854.451	22276
854.585	22055
854.72	22040
854.854	22223
854.988	21987
855.122	22169
855.256	22048
855.39	22082
855.524	22150
855.658	22086
855.792	22109
855.926	22177
856.06	22196
856.194	22124
856.327	22013
856.461	21953
856.595	21876
856.729	22101
856.862	22192
856.996	22188
857.13	22139
857.263	22215
857.397	22223
857.53	22173
857.664	22131
857.797	22192
857.931	22234
858.064	22040
858.197	22139
858.331	22154
858.464	22074
858.597	22055
858.731	21972
858.864	22074
858.997	22166
859.13	22070
859.263	22086
859.396	22219
859.529	21987
859.662	22025
859.795	21979
859.928	22124
860.061	22246
860.194	22337
860.327	22131
860.46	22048
860.592	22200
860.725	22070
860.858	22272
860.99	21998
861.123	21998
861.256	21972
861.388	22265
861.521	22733
861.653	21861
861.786	21857
861.918	21888
862.05	22006
862.183	21991
862.315	22002
862.447	22029
862.58	21937
862.712	21846
862.844	21846
862.976	21892
863.108	21846
863.24	22181
863.372	21709
863.504	21880
863.636	21766
863.768	21728
863.9	21816
864.032	21739
864.164	21701
864.296	21774
864.428	21812
864.559	21873
864.691	21903
864.823	21713
864.954	21724
865.086	21682
865.217	21743
865.349	21637
865.48	21770
865.612	21583
865.743	21774
865.875	21675
866.006	21644
866.137	21610
866.269	21762
866.4	21576
866.531	21564
866.662	21511
866.793	21538
866.924	21618
867.055	21545
867.186	21682
867.317	21542
867.448	21549
867.579	21656
867.71	21572
867.841	21603
867.972	21599
868.103	21542
868.233	21564
868.364	21564
868.495	21641
868.625	21770
868.756	21949
868.886	21736
869.017	21857
869.147	21953
869.278	21998
869.408	21857
869.539	21724
869.669	21991
869.799	21785
869.929	21918
870.06	21846
870.19	22166
870.32	22131
870.45	22230
870.58	22192
870.71	22402
870.84	22268
870.97	22177
871.1	22177
871.23	22424
871.36	22337
871.489	22379
871.619	22337
871.749	22443
871.879	22417
872.008	22538
872.138	22447
872.267	22265
872.397	22268
872.526	22207
872.656	22188
872.785	22253
872.915	22478
873.044	22478
873.173	22580
873.303	22478
873.432	22554
873.561	22634
873.69	22519
873.819	22348
873.948	22405
874.077	22394
874.206	22402
874.335	22360
874.464	22580
874.593	22675
874.722	22664
874.851	22702
874.979	22687
875.108	22626
875.237	22603
875.365	22637
875.494	22649
875.623	22744
875.751	22573
875.88	22767
876.008	22660
876.136	22812
876.265	23109
876.393	23162
876.521	23117
876.65	23181
876.778	23064
876.906	22896
877.034	23041
877.162	22953
877.29	22976
877.418	23037
877.546	22938
877.674	22938
877.802	23037
877.93	23117
878.058	22885
878.185	22991
878.313	22911
878.441	22911
878.568	22809
878.696	22930
878.824	23132
878.951	23185
879.079	23200
879.206	23337
879.333	23277
879.461	23079
879.588	23162
879.715	23147
879.842	23220
879.97	23136
880.097	22953
880.224	22923
880.351	22771
880.478	22869
880.605	22790
880.732	22854
880.859	22938
880.986	22877
881.112	22839
881.239	22702
881.366	22542
881.493	22455
881.619	22394
881.746	22474
881.872	22440
881.999	22284
882.125	22226
882.252	22531
882.378	22280
882.505	22409
882.631	22352
882.757	22192
882.883	22093
883.01	22105
883.136	21998
883.262	21854
883.388	21857
883.514	22013
883.64	22063
883.766	22021
883.892	21739
884.018	21892
884.143	22055
884.269	22032
884.395	21766
884.52	21739
884.646	21701
884.772	21701
884.897	21606
885.023	21800
885.148	21861
885.274	21846
885.399	21774
885.524	21603
885.65	21679
885.775	21701
885.9	21660
886.025	21774
886.15	21823
886.275	21686
886.4	21633
886.525	21739
886.65	21732
886.775	21523
886.9	21751
887.025	21838
887.149	21591
887.274	21542
887.399	21523
887.523	21405
887.648	21496
887.773	21386
887.897	21515
888.021	21496
888.146	21374
888.27	21587
888.395	21542
888.519	21504
888.643	21477
888.767	21466
888.891	21435
889.015	21294
889.139	21302
889.263	21249
889.387	21329
889.511	21431
889.635	21496
889.759	21226
889.883	21249
890.006	21302
890.13	21428
890.254	21135
890.377	21032
890.501	21066
890.624	20998
890.748	21093
890.871	20800
890.995	20804
891.118	20686
891.241	20830
891.364	20762
891.488	20982
891.611	20823
891.734	20830
891.857	20941
891.98	20811
892.103	20765
892.226	20861
892.349	20655
892.471	20674
892.594	20785
892.717	20743
892.839	20823
892.962	20754
893.085	20861
893.207	20712
893.33	20819
893.452	20613
893.575	20739
893.697	20674
893.819	20853
893.941	20933
894.064	20724
894.186	20511
894.308	20636
894.43	20689
894.552	20804
894.674	20765
894.796	20598
894.918	20583
895.04	20682
895.161	20887
895.283	20727
895.405	20651
895.526	20667
895.648	20750
895.769	20670
895.891	20720
896.012	20697
896.134	20754
896.255	20686
896.376	20682
896.498	20579
896.619	20609
896.74	20788
896.861	20693
896.982	21142
897.103	21085
897.224	20899
897.345	20914
897.466	20921
897.587	20952
897.708	21009
897.828	20941
897.949	20910
898.07	20781
898.19	20845
898.311	20971
898.431	20815
898.552	20925
898.672	20883
898.792	20994
898.913	20872
899.033	20891
899.153	20807
899.273	20514
899.393	20575
899.513	20670
899.633	20697
899.753	20731
899.873	20621
899.993	20682
900.113	20663
900.232	20552
900.352	20522
900.472	20442
900.591	20355
900.711	20389
900.83	20343
900.95	20454
901.069	20389
901.189	20210
901.308	20062
901.427	19947
901.546	19978
901.665	20005
901.784	20024
901.904	19833
902.023	19791
902.141	19605
902.26	19472
902.379	19582
902.498	19468
902.617	19499
902.735	19510
902.854	19358
902.973	19381
903.091	19088
903.21	19255
903.328	19247
903.446	19061
903.565	18867
903.683	18890
903.801	18886
903.919	18802
904.038	18806
904.156	18745
904.274	18897
904.392	18665
904.51	18665
904.627	18646
904.745	18753
904.863	18726
904.981	18612
905.098	18422
905.216	18388
905.334	18391
905.451	18479
905.569	18403
905.686	18410
905.803	18365
905.921	18239
906.038	18330
906.155	18262
906.272	18053
906.389	18079
906.506	18015
906.623	17969
906.74	17843
906.857	17840
906.974	17756
907.091	17977
907.208	17992
907.324	17916
907.441	17699
907.557	17737
907.674	17627
907.79	17573
907.907	17592
908.023	17570
908.139	17676
908.256	17520
908.372	17436
908.488	17532
908.604	17410
908.72	17360
908.836	17311
908.952	17337
909.068	17356
909.184	17353
909.3	17299
909.415	17379
909.531	17383
909.647	17136
909.762	17018
909.878	17033
909.993	17003
910.108	16987
910.224	17064
910.339	16946
910.454	16809
910.57	16824
910.685	16889
910.8	17136
910.915	17025
911.03	16820
911.145	16683
911.259	16656
911.374	16618
911.489	16641
911.604	16466
911.718	16440
911.833	16352
911.947	16322
912.062	16333
912.176	16398
912.291	16470
912.405	16409
912.519	16561
912.633	16622
912.748	16421
912.862	16329
912.976	16207
913.09	16055
913.204	16185
913.318	16173
913.431	16295
913.545	16177
913.659	16268
913.772	16082
913.886	16010
914	16006
914.113	16055
914.226	16143
914.34	16025
914.453	15770
914.566	15987
914.68	15911
914.793	15808
914.906	15606
915.019	15530
915.132	15511
915.245	15599
915.358	15580
915.47	15587
915.583	15568
915.696	15587
915.809	15622
915.921	15652
916.034	15500
916.146	15496
916.259	15458
916.371	15424
916.483	15500
916.595	15408
916.708	15386
916.82	15420
916.932	15310
917.044	15344
917.156	15294
917.268	15241
917.38	15249
917.491	15161
917.603	15283
917.715	15249
917.826	15291
917.938	15074
918.049	15017
918.161	15131
918.272	15218
918.384	15298
918.495	15165
918.606	15028
918.717	14963
918.828	14994
918.939	14933
919.05	14845
919.161	14963
919.272	14686
919.383	14823
919.494	14948
919.604	15119
919.715	14887
919.826	14815
919.936	14887
920.047	15066
920.157	14910
920.267	15085
920.378	14902
920.488	14914
920.598	15066
920.708	15203
920.818	15085
920.928	14990
921.038	15161
921.148	15142
921.258	14823
921.368	14796
921.477	14644
921.587	14533
921.697	14537
921.806	14663
921.916	14446
922.025	14320
922.134	14328
922.244	14324
922.353	14393
922.462	14142
922.571	14058
922.68	13871
922.789	13864
922.898	13856
923.007	13826
923.116	13959
923.224	13833
923.333	13963
923.442	13871
923.55	13712
923.659	13738
923.767	13814
923.876	13647
923.984	13689
924.092	13628
924.201	13636
924.309	13647
924.417	13681
924.525	13575
924.633	13575
924.741	14404
924.849	13422
924.956	13369
925.064	13381
925.172	13213
925.279	13278
925.387	13282
925.494	13384
925.602	13381
925.709	13316
925.816	13171
925.924	13358
926.031	13415
926.138	13156
926.245	13358
926.352	13206
926.459	13335
926.566	13270
926.673	13126
926.779	13034
926.886	13008
926.993	12985
927.099	12928
927.206	12863
927.312	12753
927.419	12897
927.525	12810
927.631	12825
927.737	12726
927.843	12703
927.95	12620
928.056	12669
928.162	12681
928.267	12692
928.373	13225
928.479	12738
928.585	12494
928.69	12578
928.796	12684
928.901	12525
929.007	12376
929.112	12593
929.218	12456
929.323	12506
929.428	12426
929.533	12528
929.638	12327
929.743	12372
929.848	12372
929.953	12357
930.058	12319
930.163	11992
930.267	12015
930.372	12247
930.477	12045
930.581	12251
930.685	12125
930.79	11992
930.894	11973
930.998	11931
931.103	11992
931.207	11684
931.311	11668
931.415	11482
931.519	11341
931.623	11334
