Data from test_V78500241_1422.txt Node
Date: Fri Mar 25 15:51:39 CST 2022
User: usil
Spectrometer: V785-0024
Trigger mode: 0
Integration Time (sec): 4.000000E-1
Scans to average: 1
Nonlinearity correction enabled: false
Boxcar width: 0
Storing dark spectrum: false
XAxis mode: Wavelengths
Number of Pixels in Spectrum: 1024
>>>>>Begin Spectral Data<<<<<
801.071	28268
801.214	28284
801.356	27789
801.499	27922
801.641	27637
801.783	27720
801.926	27755
802.068	27770
802.211	27751
802.353	27587
802.496	27447
802.638	27435
802.78	27389
802.923	27291
803.065	27378
803.208	27340
803.35	27279
803.492	27553
803.635	27511
803.777	27401
803.919	27538
804.061	27907
804.204	27549
804.346	27576
804.488	27469
804.63	27542
804.773	27485
804.915	27644
805.057	27762
805.199	27599
805.341	27641
805.483	27724
805.626	27857
805.768	27797
805.91	27739
806.052	27842
806.194	27846
806.336	27964
806.478	27903
806.62	27766
806.762	27914
806.904	28013
807.046	28287
807.188	28105
807.33	28074
807.472	28242
807.614	28169
807.756	28154
807.898	28093
808.04	28192
808.182	27937
808.324	28078
808.465	28196
808.607	28382
808.749	28337
808.891	28565
809.033	28508
809.174	28398
809.316	28390
809.458	28417
809.6	28580
809.741	28455
809.883	28630
810.025	28869
810.166	28668
810.308	28687
810.45	28710
810.591	28596
810.733	28493
810.875	28413
811.016	28371
811.158	28424
811.299	28573
811.441	28603
811.582	28626
811.724	28440
811.865	28329
812.007	28504
812.148	28481
812.29	28519
812.431	28599
812.573	28771
812.714	28831
812.855	28915
812.997	29006
813.138	29140
813.279	29212
813.421	29079
813.562	28831
813.703	28786
813.845	28752
813.986	28261
814.127	28223
814.268	28074
814.41	28090
814.551	28002
814.692	28200
814.833	28128
814.974	28177
815.115	28207
815.256	27937
815.397	28006
815.539	28097
815.68	27831
815.821	27831
815.962	28040
816.103	27937
816.244	27823
816.385	27774
816.526	27515
816.666	27595
816.807	27272
816.948	27447
817.089	27515
817.23	27458
817.371	27348
817.512	27492
817.653	27359
817.793	27393
817.934	27557
818.075	27397
818.216	27603
818.356	27332
818.497	27108
818.638	27039
818.778	27241
818.919	27222
819.06	27142
819.2	27332
819.341	27466
819.481	27332
819.622	27500
819.762	27652
819.903	27648
820.043	27736
820.184	27530
820.324	27439
820.465	27614
820.605	27561
820.746	27675
820.886	27420
821.026	27496
821.167	27458
821.307	27595
821.447	27405
821.588	27370
821.728	27268
821.868	27188
822.008	26902
822.149	26914
822.289	26929
822.429	26663
822.569	26518
822.709	26579
822.849	26320
822.99	26351
823.13	26393
823.27	26507
823.41	26252
823.55	26122
823.69	26225
823.83	26153
823.97	25978
824.11	26107
824.25	26100
824.389	26096
824.529	26081
824.669	26092
824.809	26073
824.949	26142
825.089	26008
825.228	26062
825.368	25875
825.508	26016
825.648	25928
825.787	25940
825.927	26077
826.067	25925
826.206	25879
826.346	25928
826.485	25982
826.625	25997
826.765	25986
826.904	26054
827.044	25613
827.183	25814
827.323	25666
827.462	25791
827.601	25567
827.741	25807
827.88	25662
828.02	25514
828.159	25571
828.298	25597
828.437	25769
828.577	25643
828.716	25849
828.855	25601
828.994	25396
829.134	25369
829.273	25339
829.412	25324
829.551	25156
829.69	25460
829.829	25411
829.968	25400
830.107	25464
830.246	25343
830.385	25369
830.524	25126
830.663	25076
830.802	24924
830.941	24954
831.08	24833
831.219	25103
831.357	24916
831.496	25293
831.635	24958
831.774	24814
831.913	24810
832.051	24673
832.19	24795
832.329	24700
832.467	24620
832.606	24475
832.744	24650
832.883	24589
833.022	24574
833.16	24669
833.299	24669
833.437	24563
833.576	24582
833.714	24658
833.852	24711
833.991	24646
834.129	24821
834.267	24722
834.406	24620
834.544	24639
834.682	24646
834.821	24730
834.959	24806
835.097	24627
835.235	24555
835.373	24642
835.511	24726
835.65	24483
835.788	24525
835.926	24361
836.064	24292
836.202	24277
836.34	24475
836.478	24726
836.615	24483
836.753	24445
836.891	24658
837.029	24566
837.167	24452
837.305	24399
837.443	24494
837.58	24300
837.718	24353
837.856	24350
837.993	24289
838.131	24407
838.269	24167
838.406	24304
838.544	24121
838.681	23912
838.819	23992
838.956	23733
839.094	23733
839.231	23836
839.369	24076
839.506	24209
839.643	24079
839.781	23729
839.918	23775
840.055	23805
840.193	23824
840.33	23703
840.467	23863
840.604	23722
840.742	23992
840.879	23543
841.016	23634
841.153	23543
841.29	23646
841.427	23748
841.564	23657
841.701	23722
841.838	23547
841.975	23573
842.112	23608
842.249	23653
842.385	23642
842.522	23737
842.659	23516
842.796	23478
842.933	23577
843.069	23341
843.206	23349
843.343	23615
843.479	23452
843.616	23398
843.752	23307
843.889	23311
844.025	23459
844.162	23181
844.298	23398
844.435	23265
844.571	23292
844.708	23235
844.844	23440
844.98	23486
845.117	23299
845.253	23102
845.389	23204
845.525	23098
845.661	23071
845.798	23022
845.934	23029
846.07	22961
846.206	22991
846.342	23098
846.478	22919
846.614	22782
846.75	22615
846.886	22508
847.022	22824
847.158	22725
847.294	22698
847.429	22816
847.565	22649
847.701	22828
847.837	22455
847.972	22398
848.108	22550
848.244	22443
848.379	22485
848.515	22291
848.65	22322
848.786	22185
848.921	22424
849.057	22375
849.192	22367
849.328	22230
849.463	22169
849.598	22265
849.734	22131
849.869	22010
850.004	22109
850.14	22120
850.275	22093
850.41	22029
850.545	22025
850.68	22055
850.815	22017
850.95	22097
851.085	22215
851.22	22173
851.355	22025
851.49	22021
851.625	22044
851.76	22105
851.895	22010
852.03	21930
852.165	21987
852.299	22223
852.434	22147
852.569	22131
852.703	22131
852.838	22116
852.973	22166
853.107	22287
853.242	21991
853.376	21975
853.511	21736
853.645	21717
853.78	22017
853.914	21850
854.048	21869
854.183	21907
854.317	21876
854.451	22082
854.585	21915
854.72	21827
854.854	21975
854.988	21778
855.122	21823
855.256	21728
855.39	21873
855.524	21911
855.658	21915
855.792	21953
855.926	21911
856.06	22006
856.194	21915
856.327	21979
856.461	21797
856.595	21808
856.729	21778
856.862	21960
856.996	21979
857.13	22010
857.263	21960
857.397	21975
857.53	21850
857.664	22021
857.797	21994
857.931	22044
858.064	21953
858.197	21899
858.331	21865
858.464	21800
858.597	21800
858.731	21751
858.864	21804
858.997	21854
859.13	21873
859.263	21857
859.396	21941
859.529	21808
859.662	21812
859.795	21652
859.928	21884
860.061	21880
860.194	21937
860.327	21918
860.46	21915
860.592	22017
860.725	22025
860.858	22090
860.99	21903
861.123	21846
861.256	21778
861.388	21884
861.521	22634
861.653	21759
861.786	21698
861.918	21667
862.05	21873
862.183	21774
862.315	21934
862.447	21838
862.58	21827
862.712	21629
862.844	21500
862.976	21713
863.108	21701
863.24	22082
863.372	21485
863.504	21580
863.636	21534
863.768	21641
863.9	21485
864.032	21622
864.164	21572
864.296	21561
864.428	21698
864.559	21690
864.691	21648
864.823	21515
864.954	21496
865.086	21534
865.217	21435
865.349	21462
865.48	21355
865.612	21481
865.743	21656
865.875	21500
866.006	21348
866.137	21462
866.269	21462
866.4	21378
866.531	21420
866.662	21306
866.793	21549
866.924	21439
867.055	21420
867.186	21507
867.317	21348
867.448	21435
867.579	21348
867.71	21325
867.841	21298
867.972	21424
868.103	21424
868.233	21325
868.364	21344
868.495	21500
868.625	21587
868.756	21831
868.886	21583
869.017	21553
869.147	21720
869.278	21701
869.408	21564
869.539	21561
869.669	21690
869.799	21713
869.929	21717
870.06	21739
870.19	21975
870.32	21937
870.45	21994
870.58	22093
870.71	22101
870.84	22150
870.97	22013
871.1	22078
871.23	22234
871.36	22223
871.489	22226
871.619	22223
871.749	22143
871.879	22329
872.008	22348
872.138	22348
872.267	22284
872.397	22158
872.526	22044
872.656	22010
872.785	21953
872.915	22284
873.044	22447
873.173	22257
873.303	22333
873.432	22402
873.561	22363
873.69	22207
873.819	22265
873.948	22314
874.077	22249
874.206	22215
874.335	22375
874.464	22493
874.593	22470
874.722	22455
874.851	22599
874.979	22531
875.108	22618
875.237	22432
875.365	22402
875.494	22428
875.623	22481
875.751	22432
875.88	22447
876.008	22698
876.136	22694
876.265	22915
876.393	22968
876.521	22835
876.65	23044
876.778	22885
876.906	22835
877.034	22866
877.162	22843
877.29	22824
877.418	22771
877.546	22877
877.674	22816
877.802	22980
877.93	22831
878.058	22809
878.185	22824
878.313	22774
878.441	22801
878.568	22672
878.696	22752
878.824	22850
878.951	22896
879.079	22927
879.206	23094
879.333	22919
879.461	22881
879.588	22927
879.715	23064
879.842	23178
879.97	22911
880.097	22698
880.224	22725
880.351	22668
880.478	22611
880.605	22675
880.732	22592
880.859	22843
880.986	22729
881.112	22691
881.239	22531
881.366	22337
881.493	22276
881.619	22272
881.746	22276
881.872	22276
881.999	22211
882.125	22124
882.252	22306
882.378	22131
882.505	22280
882.631	22086
882.757	21945
882.883	22059
883.01	22040
883.136	21953
883.262	21781
883.388	21751
883.514	21918
883.64	21907
883.766	21876
883.892	21644
884.018	21660
884.143	21876
884.269	21918
884.395	21652
884.52	21485
884.646	21637
884.772	21420
884.897	21431
885.023	21595
885.148	21568
885.274	21667
885.399	21511
885.524	21519
885.65	21492
885.775	21515
885.9	21367
886.025	21618
886.15	21637
886.275	21511
886.4	21496
886.525	21515
886.65	21447
886.775	21447
886.9	21698
887.025	21720
887.149	21557
887.274	21344
887.399	21272
887.523	21298
887.648	21294
887.773	21237
887.897	21363
888.021	21367
888.146	21169
888.27	21450
888.395	21321
888.519	21241
888.643	21260
888.767	21370
888.891	21302
889.015	21077
889.139	21062
889.263	21131
889.387	21146
889.511	21298
889.635	21218
889.759	21047
889.883	21058
890.006	21112
890.13	21127
890.254	20960
890.377	21043
890.501	20853
890.624	20762
890.748	20800
890.871	20670
890.995	20644
891.118	20556
891.241	20537
891.364	20705
891.488	20918
891.611	20644
891.734	20648
891.857	20594
891.98	20667
892.103	20663
892.226	20651
892.349	20583
892.471	20431
892.594	20632
892.717	20587
892.839	20606
892.962	20617
893.085	20617
893.207	20625
893.33	20522
893.452	20374
893.575	20488
893.697	20495
893.819	20640
893.941	20762
894.064	20598
894.186	20473
894.308	20385
894.43	20651
894.552	20697
894.674	20579
894.796	20537
894.918	20480
895.04	20590
895.161	20609
895.283	20621
895.405	20511
895.526	20568
895.648	20518
895.769	20541
895.891	20480
896.012	20526
896.134	20511
896.255	20514
896.376	20454
896.498	20503
896.619	20625
896.74	20659
896.861	20583
896.982	21039
897.103	20876
897.224	20876
897.345	20788
897.466	20720
897.587	20800
897.708	20937
897.828	20842
897.949	20598
898.07	20613
898.19	20659
898.311	20750
898.431	20773
898.552	20731
898.672	20773
898.792	20838
898.913	20743
899.033	20632
899.153	20552
899.273	20389
899.393	20499
899.513	20560
899.633	20541
899.753	20537
899.873	20442
899.993	20556
900.113	20389
900.232	20343
900.352	20408
900.472	20320
900.591	20393
900.711	20195
900.83	20237
900.95	20480
901.069	20290
901.189	20191
901.308	19947
901.427	19765
901.546	19909
901.665	19879
901.784	19761
901.904	19738
902.023	19651
902.141	19514
902.26	19411
902.379	19392
902.498	19251
902.617	19301
902.735	19453
902.854	19244
902.973	19206
903.091	19091
903.21	19008
903.328	19019
903.446	18859
903.565	18909
903.683	18837
903.801	18711
903.919	18650
904.038	18806
904.156	18589
904.274	18597
904.392	18604
904.51	18509
904.627	18422
904.745	18540
904.863	18684
904.981	18342
905.098	18254
905.216	18361
905.334	18334
905.451	18296
905.569	18254
905.686	18197
905.803	18209
905.921	18114
906.038	18186
906.155	18019
906.272	17977
906.389	18003
906.506	17821
906.623	17824
906.74	17767
906.857	17737
906.974	17752
907.091	17843
907.208	17916
907.324	17764
907.441	17726
907.557	17463
907.674	17505
907.79	17429
907.907	17490
908.023	17539
908.139	17398
908.256	17463
908.372	17455
908.488	17337
908.604	17223
908.72	17178
908.836	17235
908.952	17322
909.068	17124
909.184	17315
909.3	17258
909.415	17254
909.531	17318
909.647	17037
909.762	16877
909.878	16873
909.993	16957
910.108	16949
910.224	16923
910.339	16831
910.454	16782
910.57	16660
910.685	16584
910.8	16873
910.915	16812
911.03	16645
911.145	16535
911.259	16470
911.374	16516
911.489	16493
911.604	16424
911.718	16246
911.833	16223
911.947	16135
912.062	16082
912.176	16268
912.291	16268
912.405	16261
912.519	16489
912.633	16489
912.748	16223
912.862	16226
912.976	16067
913.09	15945
913.204	16055
913.318	15998
913.431	16135
913.545	16154
913.659	16154
913.772	16002
913.886	15838
914	15865
914.113	15972
914.226	15960
914.34	15937
914.453	15739
914.566	15770
914.68	15770
914.793	15728
914.906	15538
915.019	15481
915.132	15420
915.245	15485
915.358	15485
915.47	15420
915.583	15454
915.696	15435
915.809	15523
915.921	15648
916.034	15458
916.146	15401
916.259	15260
916.371	15401
916.483	15351
916.595	15252
916.708	15264
916.82	15256
916.932	15218
917.044	15332
917.156	15241
917.268	15058
917.38	15135
917.491	15100
917.603	15135
917.715	15157
917.826	15188
917.938	14982
918.049	14864
918.161	15009
918.272	15154
918.384	15176
918.495	14956
918.606	14910
918.717	14762
918.828	14811
918.939	14910
919.05	14754
919.161	14830
919.272	14594
919.383	14727
919.494	14960
919.604	14998
919.715	14819
919.826	14613
919.936	14807
920.047	14857
920.157	14872
920.267	14967
920.378	14845
920.488	14777
920.598	14986
920.708	15055
920.818	14921
920.928	14842
921.038	15047
921.148	15119
921.258	14701
921.368	14636
921.477	14571
921.587	14560
921.697	14434
921.806	14514
921.916	14518
922.025	14313
922.134	14206
922.244	14103
922.353	14164
922.462	14065
922.571	13955
922.68	13852
922.789	13833
922.898	13890
923.007	13750
923.116	13807
923.224	13788
923.333	13689
923.442	13639
923.55	13628
923.659	13605
923.767	13655
923.876	13575
923.984	13723
924.092	13559
924.201	13510
924.309	13457
924.417	13540
924.525	13510
924.633	13495
924.741	14282
924.849	13339
924.956	13411
925.064	13206
925.172	13152
925.279	13198
925.387	13221
925.494	13198
925.602	13335
925.709	13183
925.816	13145
925.924	13164
926.031	13198
926.138	13141
926.245	13206
926.352	13095
926.459	13145
926.566	13232
926.673	13110
926.779	12981
926.886	12920
926.993	12810
927.099	12806
927.206	12749
927.312	12677
927.419	12791
927.525	12806
927.631	12814
927.737	12639
927.843	12547
927.95	12475
928.056	12460
928.162	12547
928.267	12570
928.373	13209
928.479	12658
928.585	12422
928.69	12582
928.796	12490
928.901	12437
929.007	12228
929.112	12536
929.218	12395
929.323	12441
929.428	12365
929.533	12410
929.638	12171
929.743	12243
929.848	12251
929.953	12232
930.058	12129
930.163	11923
930.267	11977
930.372	12064
930.477	11870
930.581	12129
930.685	12022
930.79	11935
930.894	11870
930.998	11821
931.103	12007
931.207	11623
931.311	11535
931.415	11471
931.519	11296
931.623	11280
