Data from test_V78500241_63.txt Node
Date: Fri Mar 25 15:42:14 CST 2022
User: usil
Spectrometer: V785-0024
Trigger mode: 0
Integration Time (sec): 4.000000E-1
Scans to average: 1
Nonlinearity correction enabled: false
Boxcar width: 0
Storing dark spectrum: false
XAxis mode: Wavelengths
Number of Pixels in Spectrum: 1024
>>>>>Begin Spectral Data<<<<<
801.071	29901
801.214	29862
801.356	29604
801.499	29528
801.641	29417
801.783	29296
801.926	29463
802.068	29387
802.211	29212
802.353	29166
802.496	29067
802.638	29090
802.78	28908
802.923	28965
803.065	28854
803.208	28873
803.35	28953
803.492	29155
803.635	29155
803.777	29064
803.919	29330
804.061	29482
804.204	29113
804.346	29010
804.488	29010
804.63	29136
804.773	29010
804.915	29010
805.057	29128
805.199	29117
805.341	29223
805.483	29231
805.626	29250
805.768	29102
805.91	29178
806.052	29200
806.194	29128
806.336	29391
806.478	29159
806.62	29204
806.762	29372
806.904	29467
807.046	29707
807.188	29581
807.33	29718
807.472	29600
807.614	29486
807.756	29619
807.898	29501
808.04	29368
808.182	29425
808.324	29375
808.465	29562
808.607	29661
808.749	29767
808.891	29832
809.033	29954
809.174	29764
809.316	29695
809.458	29847
809.6	29714
809.741	29889
809.883	29771
810.025	29984
810.166	30015
810.308	30041
810.45	30053
810.591	29912
810.733	29752
810.875	29691
811.016	29657
811.158	29554
811.299	29665
811.441	29840
811.582	29817
811.724	29764
811.865	29809
812.007	29665
812.148	29554
812.29	29726
812.431	29927
812.573	30026
812.714	30148
812.855	30220
812.997	30216
813.138	30311
813.279	30266
813.421	30209
813.562	30098
813.703	30049
813.845	29855
813.986	29482
814.127	29490
814.268	29280
814.41	29265
814.551	29326
814.692	29326
814.833	29193
814.974	29269
815.115	29197
815.256	29147
815.397	29105
815.539	29079
815.68	28991
815.821	28862
815.962	28938
816.103	28923
816.244	28831
816.385	28748
816.526	28736
816.666	28588
816.807	28348
816.948	28459
817.089	28592
817.23	28371
817.371	28440
817.512	28367
817.653	28337
817.793	28367
817.934	28417
818.075	28382
818.216	28413
818.356	28303
818.497	28238
818.638	28143
818.778	28150
818.919	28002
819.06	28124
819.2	28215
819.341	28246
819.481	28200
819.622	28382
819.762	28698
819.903	28497
820.043	28493
820.184	28329
820.324	28367
820.465	28382
820.605	28341
820.746	28348
820.886	28093
821.026	28325
821.167	28291
821.307	28508
821.447	28181
821.588	28162
821.728	27987
821.868	27880
822.008	27827
822.149	27766
822.289	27663
822.429	27519
822.569	27367
822.709	27249
822.849	27146
822.99	27089
823.13	27039
823.27	27108
823.41	27074
823.55	26868
823.69	26933
823.83	26921
823.97	26906
824.11	26670
824.25	26735
824.389	26727
824.529	26746
824.669	26743
824.809	26819
824.949	26895
825.089	26686
825.228	26682
825.368	26526
825.508	26575
825.648	26549
825.787	26476
825.927	26507
826.067	26419
826.206	26537
826.346	26598
826.485	26655
826.625	26431
826.765	26659
826.904	26465
827.044	26218
827.183	26199
827.323	26157
827.462	26317
827.601	26107
827.741	26195
827.88	26149
828.02	26172
828.159	26054
828.298	26107
828.437	26343
828.577	26073
828.716	26320
828.855	26062
828.994	25852
829.134	25898
829.273	25940
829.412	25700
829.551	25772
829.69	25780
829.829	25898
829.968	25894
830.107	25746
830.246	25887
830.385	25704
830.524	25674
830.663	25689
830.802	25521
830.941	25377
831.08	25419
831.219	25479
831.357	25540
831.496	25430
831.635	25285
831.774	25289
831.913	25236
832.051	25285
832.19	25099
832.329	25148
832.467	25091
832.606	24947
832.744	24989
832.883	24958
833.022	24886
833.16	25069
833.299	25004
833.437	24947
833.576	25171
833.714	24924
833.852	25160
833.991	25008
834.129	25072
834.267	25152
834.406	25027
834.544	24970
834.682	24992
834.821	24894
834.959	25088
835.097	24882
835.235	25027
835.373	25008
835.511	24890
835.65	24932
835.788	24760
835.926	24783
836.064	24486
836.202	24673
836.34	24897
836.478	24844
836.615	24764
836.753	24913
836.891	24772
837.029	24795
837.167	24681
837.305	24620
837.443	24555
837.58	24608
837.718	24692
837.856	24574
837.993	24612
838.131	24525
838.269	24517
838.406	24540
838.544	24490
838.681	24205
838.819	24182
838.956	24022
839.094	24133
839.231	24041
839.369	24262
839.506	24593
839.643	24213
839.781	23859
839.918	23935
840.055	23885
840.193	23863
840.33	23859
840.467	23821
840.604	23931
840.742	24091
840.879	23790
841.016	23824
841.153	23707
841.29	23931
841.427	23783
841.564	23885
841.701	23790
841.838	23790
841.975	23676
842.112	23745
842.249	23653
842.385	23611
842.522	23855
842.659	23547
842.796	23444
842.933	23509
843.069	23398
843.206	23410
843.343	23566
843.479	23436
843.616	23478
843.752	23520
843.889	23273
844.025	23436
844.162	23307
844.298	23406
844.435	23181
844.571	23220
844.708	23250
844.844	23558
844.98	23398
845.117	23379
845.253	23143
845.389	23155
845.525	23117
845.661	23048
845.798	22965
845.934	23136
846.07	22919
846.206	23006
846.342	23044
846.478	22892
846.614	22740
846.75	22580
846.886	22683
847.022	22801
847.158	22603
847.294	22736
847.429	22710
847.565	22611
847.701	22858
847.837	22344
847.972	22386
848.108	22367
848.244	22443
848.379	22390
848.515	22223
848.65	22200
848.786	22158
848.921	22234
849.057	22344
849.192	22276
849.328	22265
849.463	22219
849.598	22040
849.734	22131
849.869	22139
850.004	21949
850.14	22048
850.275	21937
850.41	21808
850.545	21903
850.68	21895
850.815	21960
850.95	21926
851.085	22120
851.22	22006
851.355	21880
851.49	21831
851.625	21854
851.76	21865
851.895	21812
852.03	21755
852.165	21789
852.299	22021
852.434	21876
852.569	22013
852.703	21964
852.838	21979
852.973	22010
853.107	21994
853.242	21888
853.376	21629
853.511	21663
853.645	21633
853.78	21717
853.914	21747
854.048	21679
854.183	21766
854.317	21759
854.451	21831
854.585	21701
854.72	21717
854.854	21785
854.988	21610
855.122	21583
855.256	21564
855.39	21755
855.524	21671
855.658	21797
855.792	21713
855.926	21728
856.06	21827
856.194	21850
856.327	21667
856.461	21610
856.595	21606
856.729	21736
856.862	21766
856.996	21759
857.13	21610
857.263	21781
857.397	21759
857.53	21656
857.664	21701
857.797	21732
857.931	21812
858.064	21507
858.197	21800
858.331	21694
858.464	21648
858.597	21629
858.731	21656
858.864	21545
858.997	21576
859.13	21530
859.263	21724
859.396	21732
859.529	21557
859.662	21564
859.795	21481
859.928	21709
860.061	21736
860.194	21785
860.327	21739
860.46	21553
860.592	21690
860.725	21724
860.858	21686
860.99	21625
861.123	21530
861.256	21511
861.388	21633
861.521	22306
861.653	21420
861.786	21408
861.918	21603
862.05	21595
862.183	21610
862.315	21667
862.447	21603
862.58	21629
862.712	21393
862.844	21348
862.976	21435
863.108	21279
863.24	21751
863.372	21245
863.504	21298
863.636	21332
863.768	21336
863.9	21291
864.032	21192
864.164	21317
864.296	21340
864.428	21458
864.559	21435
864.691	21454
864.823	21287
864.954	21291
865.086	21211
865.217	21252
865.349	21199
865.48	21131
865.612	21203
865.743	21344
865.875	21226
866.006	21104
866.137	21039
866.269	21207
866.4	21108
866.531	21093
866.662	21112
866.793	21146
866.924	21199
867.055	21096
867.186	21127
867.317	21127
867.448	20933
867.579	21100
867.71	20982
867.841	21009
867.972	21017
868.103	21009
868.233	21108
868.364	21039
868.495	21127
868.625	21230
868.756	21386
868.886	21173
869.017	21249
869.147	21435
869.278	21382
869.408	21325
869.539	21237
869.669	21447
869.799	21363
869.929	21485
870.06	21325
870.19	21652
870.32	21523
870.45	21701
870.58	21743
870.71	21781
870.84	21835
870.97	21835
871.1	21770
871.23	21907
871.36	21895
871.489	21770
871.619	21819
871.749	21861
871.879	21838
872.008	22021
872.138	21930
872.267	21934
872.397	21793
872.526	21667
872.656	21732
872.785	21800
872.915	22002
873.044	22082
873.173	21991
873.303	21983
873.432	22013
873.561	21941
873.69	21907
873.819	22051
873.948	22093
874.077	21987
874.206	22002
874.335	21854
874.464	22120
874.593	22139
874.722	22131
874.851	22280
874.979	22265
875.108	22284
875.237	22166
875.365	22169
875.494	22177
875.623	22261
875.751	22200
875.88	22139
876.008	22352
876.136	22265
876.265	22637
876.393	22653
876.521	22580
876.65	22634
876.778	22622
876.906	22459
877.034	22500
877.162	22611
877.29	22424
877.418	22584
877.546	22569
877.674	22538
877.802	22573
877.93	22432
878.058	22481
878.185	22447
878.313	22459
878.441	22451
878.568	22257
878.696	22360
878.824	22615
878.951	22588
879.079	22649
879.206	22782
879.333	22725
879.461	22618
879.588	22645
879.715	22683
879.842	22797
879.97	22569
880.097	22226
880.224	22249
880.351	22287
880.478	22405
880.605	22306
880.732	22363
880.859	22516
880.986	22265
881.112	22371
881.239	22200
881.366	22112
881.493	22029
881.619	21819
881.746	21922
881.872	21941
881.999	21888
882.125	21857
882.252	21888
882.378	21880
882.505	22101
882.631	21876
882.757	21739
882.883	21751
883.01	21530
883.136	21610
883.262	21447
883.388	21428
883.514	21698
883.64	21663
883.766	21549
883.892	21386
884.018	21245
884.143	21557
884.269	21732
884.395	21310
884.52	21237
884.646	21272
884.772	21245
884.897	21150
885.023	21245
885.148	21283
885.274	21412
885.399	21389
885.524	21310
885.65	21195
885.775	21298
885.9	21321
886.025	21408
886.15	21329
886.275	21283
886.4	21131
886.525	21241
886.65	21207
886.775	21203
886.9	21317
887.025	21359
887.149	21264
887.274	21047
887.399	20933
887.523	21089
887.648	21020
887.773	20975
887.897	21093
888.021	21036
888.146	20975
888.27	20948
888.395	21108
888.519	20998
888.643	20929
888.767	21055
888.891	20838
889.015	20693
889.139	20872
889.263	20811
889.387	20826
889.511	20967
889.635	20834
889.759	20792
889.883	20781
890.006	20697
890.13	20807
890.254	20727
890.377	20743
890.501	20613
890.624	20583
890.748	20560
890.871	20537
890.995	20389
891.118	20374
891.241	20442
891.364	20442
891.488	20473
891.611	20377
891.734	20252
891.857	20366
891.98	20370
892.103	20412
892.226	20317
892.349	20381
892.471	20191
892.594	20256
892.717	20191
892.839	20187
892.962	20240
893.085	20256
893.207	20221
893.33	20164
893.452	20202
893.575	20259
893.697	20164
893.819	20518
893.941	20419
894.064	20419
894.186	20088
894.308	20119
894.43	20396
894.552	20358
894.674	20233
894.796	20149
894.918	20240
895.04	20237
895.161	20336
895.283	20244
895.405	20199
895.526	20191
895.648	20309
895.769	20347
895.891	20221
896.012	20317
896.134	20317
896.255	20294
896.376	20290
896.498	20343
896.619	20282
896.74	20248
896.861	20339
896.982	20632
897.103	20849
897.224	20526
897.345	20579
897.466	20450
897.587	20522
897.708	20583
897.828	20590
897.949	20339
898.07	20248
898.19	20377
898.311	20587
898.431	20408
898.552	20446
898.672	20473
898.792	20480
898.913	20476
899.033	20221
899.153	20244
899.273	20031
899.393	20134
899.513	20210
899.633	20183
899.753	20157
899.873	20103
899.993	20237
900.113	20054
900.232	20084
900.352	20096
900.472	19917
900.591	19928
900.711	19940
900.83	19894
900.95	20020
901.069	20043
901.189	19830
901.308	19712
901.427	19578
901.546	19540
901.665	19518
901.784	19502
901.904	19354
902.023	19346
902.141	19152
902.26	18981
902.379	18958
902.498	19038
902.617	19015
902.735	19088
902.854	18977
902.973	18844
903.091	18665
903.21	18734
903.328	18673
903.446	18540
903.565	18399
903.683	18426
903.801	18452
903.919	18498
904.038	18460
904.156	18304
904.274	18292
904.392	18251
904.51	18235
904.627	18243
904.745	18167
904.863	18213
904.981	18038
905.098	17859
905.216	17843
905.334	17870
905.451	17870
905.569	17920
905.686	17851
905.803	17817
905.921	17741
906.038	17786
906.155	17745
906.272	17554
906.389	17577
906.506	17436
906.623	17410
906.74	17497
906.857	17277
906.974	17277
907.091	17455
907.208	17562
907.324	17239
907.441	17307
907.557	17277
907.674	17193
907.79	17056
907.907	16984
908.023	17090
908.139	17102
908.256	17003
908.372	16858
908.488	17045
908.604	16877
908.72	16873
908.836	16801
908.952	16824
909.068	16733
909.184	16831
909.3	16630
909.415	16793
909.531	16729
909.647	16569
909.762	16523
909.878	16436
909.993	16440
910.108	16459
910.224	16413
910.339	16455
910.454	16280
910.57	16310
910.685	16211
910.8	16386
910.915	16459
911.03	16303
911.145	16105
911.259	16048
911.374	16082
911.489	15979
911.604	15934
911.718	15835
911.833	15793
911.947	15781
912.062	15751
912.176	15857
912.291	15880
912.405	15838
912.519	15987
912.633	16048
912.748	15819
912.862	15660
912.976	15591
913.09	15557
913.204	15534
913.318	15663
913.431	15682
913.545	15637
913.659	15762
913.772	15599
913.886	15382
914	15359
914.113	15515
914.226	15603
914.34	15469
914.453	15401
914.566	15408
914.68	15336
914.793	15298
914.906	15066
915.019	14979
915.132	14933
915.245	15097
915.358	15070
915.47	15039
915.583	14990
915.696	15039
915.809	15195
915.921	15256
916.034	14948
916.146	14826
916.259	14918
916.371	15001
916.483	14933
916.595	14845
916.708	14845
916.82	14906
916.932	14811
917.044	14689
917.156	14765
917.268	14648
917.38	14659
917.491	14648
917.603	14655
917.715	14731
917.826	14819
917.938	14587
918.049	14549
918.161	14564
918.272	14659
918.384	14743
918.495	14495
918.606	14518
918.717	14461
918.828	14450
918.939	14465
919.05	14271
919.161	14332
919.272	14191
919.383	14377
919.494	14336
919.604	14571
919.715	14454
919.826	14256
919.936	14275
920.047	14374
920.157	14294
920.267	14541
920.378	14355
920.488	14248
920.598	14442
920.708	14621
920.818	14492
920.928	14476
921.038	14682
921.148	14556
921.258	14267
921.368	14161
921.477	14100
921.587	14195
921.697	13906
921.806	14107
921.916	13970
922.025	13788
922.134	13677
922.244	13715
922.353	13761
922.462	13601
922.571	13544
922.68	13350
922.789	13293
922.898	13304
923.007	13274
923.116	13320
923.224	13312
923.333	13278
923.442	13129
923.55	13114
923.659	13084
923.767	13327
923.876	13080
923.984	13194
924.092	13088
924.201	13129
924.309	13126
924.417	13080
924.525	13015
924.633	13012
924.741	13875
924.849	12795
924.956	13019
925.064	12802
925.172	12696
925.279	12738
925.387	12711
925.494	12772
925.602	12935
925.709	12730
925.816	12627
925.924	12684
926.031	12753
926.138	12696
926.245	12703
926.352	12585
926.459	12749
926.566	12726
926.673	12669
926.779	12494
926.886	12601
926.993	12357
927.099	12334
927.206	12251
927.312	12247
927.419	12315
927.525	12323
927.631	12361
927.737	12171
927.843	12213
927.95	12125
928.056	12201
928.162	12148
928.267	12129
928.373	12810
928.479	12209
928.585	11927
928.69	12053
928.796	12060
928.901	12068
929.007	11794
929.112	11996
929.218	11984
929.323	11817
929.428	11756
929.533	11939
929.638	11832
929.743	11805
929.848	11870
929.953	11840
930.058	11680
930.163	11596
930.267	11528
930.372	11699
930.477	11551
930.581	11733
930.685	11554
930.79	11417
930.894	11467
930.998	11459
931.103	11611
931.207	11155
931.311	11071
931.415	11041
931.519	10816
931.623	10805
