Data from test_V78500241_3319.txt Node
Date: Fri Mar 25 16:04:47 CST 2022
User: usil
Spectrometer: V785-0024
Trigger mode: 0
Integration Time (sec): 4.000000E-1
Scans to average: 1
Nonlinearity correction enabled: false
Boxcar width: 0
Storing dark spectrum: false
XAxis mode: Wavelengths
Number of Pixels in Spectrum: 1024
>>>>>Begin Spectral Data<<<<<
801.071	28706
801.214	28519
801.356	28432
801.499	28367
801.641	28143
801.783	28234
801.926	28287
802.068	28128
802.211	28131
802.353	28131
802.496	27945
802.638	28021
802.78	27888
802.923	27766
803.065	27827
803.208	27739
803.35	27918
803.492	28055
803.635	28181
803.777	27987
803.919	28059
804.061	28409
804.204	28067
804.346	28112
804.488	28048
804.63	28116
804.773	28078
804.915	28242
805.057	28249
805.199	28128
805.341	28219
805.483	28185
805.626	28196
805.768	28093
805.91	28261
806.052	28310
806.194	28295
806.336	28516
806.478	28299
806.62	28181
806.762	28432
806.904	28656
807.046	28816
807.188	28736
807.33	28755
807.472	28679
807.614	28516
807.756	28759
807.898	28675
808.04	28390
808.182	28580
808.324	28687
808.465	28698
808.607	28888
808.749	28930
808.891	29155
809.033	29140
809.174	29151
809.316	28866
809.458	28980
809.6	28828
809.741	29014
809.883	29060
810.025	29223
810.166	29265
810.308	29406
810.45	29334
810.591	29250
810.733	29105
810.875	28972
811.016	28850
811.158	28725
811.299	29048
811.441	29098
811.582	29170
811.724	29014
811.865	29056
812.007	28976
812.148	29075
812.29	28953
812.431	29166
812.573	29387
812.714	29402
812.855	29395
812.997	29558
813.138	29737
813.279	29638
813.421	29410
813.562	29486
813.703	29235
813.845	29212
813.986	28896
814.127	28778
814.268	28797
814.41	28721
814.551	28668
814.692	28839
814.833	28592
814.974	28615
815.115	28858
815.256	28512
815.397	28588
815.539	28478
815.68	28352
815.821	28303
815.962	28478
816.103	28375
816.244	28466
816.385	28238
816.526	28356
816.666	28048
816.807	27964
816.948	28120
817.089	28044
817.23	28055
817.371	28082
817.512	27953
817.653	27991
817.793	27979
817.934	27983
818.075	28040
818.216	28086
818.356	27850
818.497	27850
818.638	27827
818.778	27846
818.919	27793
819.06	27934
819.2	27903
819.341	27899
819.481	27914
819.622	28135
819.762	28318
819.903	28356
820.043	28196
820.184	28131
820.324	28192
820.465	28185
820.605	28078
820.746	28086
820.886	27964
821.026	28010
821.167	27998
821.307	28128
821.447	28044
821.588	28006
821.728	27736
821.868	27774
822.008	27496
822.149	27454
822.289	27511
822.429	27161
822.569	27131
822.709	27104
822.849	27138
822.99	27089
823.13	27062
823.27	26872
823.41	26826
823.55	26800
823.69	26899
823.83	26815
823.97	26788
824.11	26545
824.25	26606
824.389	26689
824.529	26739
824.669	26606
824.809	26845
824.949	26686
825.089	26705
825.228	26667
825.368	26537
825.508	26587
825.648	26602
825.787	26511
825.927	26556
826.067	26526
826.206	26469
826.346	26682
826.485	26575
826.625	26541
826.765	26712
826.904	26530
827.044	26404
827.183	26221
827.323	26218
827.462	26259
827.601	26305
827.741	26240
827.88	26347
828.02	26107
828.159	26286
828.298	26324
828.437	26225
828.577	26195
828.716	26351
828.855	26149
828.994	25951
829.134	25871
829.273	25906
829.412	25887
829.551	25761
829.69	25936
829.829	25974
829.968	25940
830.107	25993
830.246	26065
830.385	25913
830.524	25818
830.663	25845
830.802	25772
830.941	25575
831.08	25533
831.219	25613
831.357	25537
831.496	25856
831.635	25586
831.774	25392
831.913	25343
832.051	25346
832.19	25441
832.329	25460
832.467	25327
832.606	25331
832.744	25050
832.883	25137
833.022	25228
833.16	25137
833.299	25183
833.437	25171
833.576	25373
833.714	25304
833.852	25381
833.991	25365
834.129	25160
834.267	25350
834.406	25411
834.544	25316
834.682	25202
834.821	25301
834.959	25331
835.097	25228
835.235	25293
835.373	25263
835.511	25221
835.65	25213
835.788	25187
835.926	24947
836.064	24848
836.202	25122
836.34	25179
836.478	25137
836.615	25061
836.753	25065
836.891	25118
837.029	25221
837.167	25156
837.305	24913
837.443	24920
837.58	24958
837.718	25019
837.856	25065
837.993	24802
838.131	24909
838.269	24848
838.406	24897
838.544	24658
838.681	24646
838.819	24665
838.956	24471
839.094	24410
839.231	24479
839.369	24445
839.506	24654
839.643	24650
839.781	24452
839.918	24251
840.055	24346
840.193	24456
840.33	24334
840.467	24414
840.604	24308
840.742	24589
840.879	24220
841.016	24194
841.153	24171
841.29	24426
841.427	24342
841.564	24422
841.701	24277
841.838	24201
841.975	24152
842.112	24254
842.249	24190
842.385	24007
842.522	24152
842.659	24129
842.796	24136
842.933	24053
843.069	24091
843.206	24072
843.343	24144
843.479	24053
843.616	24015
843.752	23901
843.889	23920
844.025	23824
844.162	23691
844.298	23843
844.435	23794
844.571	23817
844.708	23908
844.844	23969
844.98	24072
845.117	23969
845.253	23859
845.389	23623
845.525	23790
845.661	23794
845.798	23589
845.934	23684
846.07	23604
846.206	23638
846.342	23741
846.478	23444
846.614	23398
846.75	23216
846.886	23341
847.022	23353
847.158	23395
847.294	23269
847.429	23398
847.565	23326
847.701	23547
847.837	22999
847.972	23094
848.108	23121
848.244	23090
848.379	22850
848.515	22885
848.65	22786
848.786	22858
848.921	22927
849.057	23014
849.192	22877
849.328	22904
849.463	22911
849.598	22911
849.734	22869
849.869	22683
850.004	22634
850.14	22824
850.275	22698
850.41	22569
850.545	22664
850.68	22672
850.815	22550
850.95	22637
851.085	22763
851.22	22675
851.355	22683
851.49	22554
851.625	22474
851.76	22710
851.895	22569
852.03	22466
852.165	22725
852.299	22603
852.434	22744
852.569	22672
852.703	22717
852.838	22698
852.973	22725
853.107	22797
853.242	22592
853.376	22508
853.511	22344
853.645	22470
853.78	22550
853.914	22569
854.048	22367
854.183	22436
854.317	22561
854.451	22706
854.585	22443
854.72	22557
854.854	22569
854.988	22421
855.122	22538
855.256	22344
855.39	22440
855.524	22550
855.658	22531
855.792	22523
855.926	22417
856.06	22500
856.194	22675
856.327	22371
856.461	22527
856.595	22481
856.729	22527
856.862	22516
856.996	22478
857.13	22596
857.263	22577
857.397	22653
857.53	22478
857.664	22497
857.797	22542
857.931	22565
858.064	22455
858.197	22634
858.331	22470
858.464	22409
858.597	22489
858.731	22261
858.864	22455
858.997	22363
859.13	22516
859.263	22565
859.396	22577
859.529	22371
859.662	22455
859.795	22375
859.928	22607
860.061	22710
860.194	22713
860.327	22577
860.46	22527
860.592	22588
860.725	22573
860.858	22580
860.99	22504
861.123	22424
861.256	22481
861.388	22523
861.521	23284
861.653	22344
861.786	22249
861.918	22257
862.05	22230
862.183	22356
862.315	22462
862.447	22577
862.58	22440
862.712	22181
862.844	22207
862.976	22261
863.108	22333
863.24	22622
863.372	22246
863.504	22128
863.636	22082
863.768	22215
863.9	22200
864.032	22154
864.164	22215
864.296	22318
864.428	22325
864.559	22200
864.691	22261
864.823	22200
864.954	22120
865.086	22265
865.217	22044
865.349	21979
865.48	22116
865.612	22063
865.743	22112
865.875	21975
866.006	21949
866.137	22101
866.269	21972
866.4	22010
866.531	21964
866.662	22006
866.793	21960
866.924	21937
867.055	22025
867.186	22032
867.317	21964
867.448	21911
867.579	22078
867.71	21800
867.841	21762
867.972	22105
868.103	21937
868.233	21915
868.364	22013
868.495	22090
868.625	22200
868.756	22428
868.886	22287
869.017	22246
869.147	22356
869.278	22341
869.408	22204
869.539	22268
869.669	22280
869.799	22230
869.929	22341
870.06	22363
870.19	22478
870.32	22523
870.45	22607
870.58	22592
870.71	22691
870.84	22691
870.97	22668
871.1	22580
871.23	22740
871.36	22927
871.489	22793
871.619	22675
871.749	22869
871.879	22805
872.008	22976
872.138	22892
872.267	22892
872.397	22717
872.526	22694
872.656	22580
872.785	22656
872.915	22919
873.044	23121
873.173	22957
873.303	22885
873.432	22923
873.561	23014
873.69	22786
873.819	22721
873.948	22946
874.077	22900
874.206	22759
874.335	22980
874.464	22991
874.593	23075
874.722	23041
874.851	22995
874.979	23018
875.108	23170
875.237	22942
875.365	23006
875.494	22987
875.623	23220
875.751	23010
875.88	23010
876.008	23140
876.136	23216
876.265	23551
876.393	23619
876.521	23474
876.65	23615
876.778	23539
876.906	23429
877.034	23318
877.162	23463
877.29	23360
877.418	23448
877.546	23349
877.674	23444
877.802	23440
877.93	23421
878.058	23379
878.185	23345
878.313	23364
878.441	23387
878.568	23239
878.696	23258
878.824	23372
878.951	23497
879.079	23672
879.206	23733
879.333	23467
879.461	23452
879.588	23528
879.715	23516
879.842	23623
879.97	23486
880.097	23185
880.224	23208
880.351	23242
880.478	23151
880.605	23128
880.732	23239
880.859	23509
880.986	23280
881.112	23174
881.239	23117
881.366	22873
881.493	22774
881.619	22930
881.746	22824
881.872	22786
881.999	22679
882.125	22797
882.252	22759
882.378	22721
882.505	22949
882.631	22634
882.757	22550
882.883	22599
883.01	22527
883.136	22417
883.262	22333
883.388	22333
883.514	22428
883.64	22447
883.766	22478
883.892	22147
884.018	22150
884.143	22379
884.269	22565
884.395	22200
884.52	22139
884.646	22017
884.772	22074
884.897	21922
885.023	22154
885.148	22105
885.274	22230
885.399	22238
885.524	22124
885.65	22105
885.775	22150
885.9	22067
886.025	22150
886.15	22097
886.275	22139
886.4	21953
886.525	21975
886.65	22055
886.775	21922
886.9	22158
887.025	22177
887.149	22116
887.274	21895
887.399	21934
887.523	21827
887.648	21994
887.773	21705
887.897	21911
888.021	21911
888.146	21888
888.27	21926
888.395	21903
888.519	21846
888.643	21922
888.767	21930
888.891	21854
889.015	21591
889.139	21629
889.263	21652
889.387	21804
889.511	21759
889.635	21808
889.759	21724
889.883	21682
890.006	21633
890.13	21732
890.254	21568
890.377	21690
890.501	21504
890.624	21226
890.748	21534
890.871	21275
890.995	21237
891.118	21138
891.241	21241
891.364	21085
891.488	21359
891.611	21252
891.734	21169
891.857	21108
891.98	21184
892.103	21351
892.226	21245
892.349	21279
892.471	21017
892.594	21150
892.717	21275
892.839	20982
892.962	21169
893.085	21245
893.207	21154
893.33	20910
893.452	20937
893.575	21207
893.697	21009
893.819	21313
893.941	21252
894.064	21150
894.186	21017
894.308	21142
894.43	21169
894.552	21252
894.674	21226
894.796	20895
894.918	21089
895.04	20998
895.161	21184
895.283	21100
895.405	21051
895.526	21043
895.648	21066
895.769	21043
895.891	21055
896.012	21112
896.134	21051
896.255	21081
896.376	21112
896.498	21020
896.619	21074
896.74	21085
896.861	21062
896.982	21344
897.103	21439
897.224	21325
897.345	21332
897.466	21283
897.587	21207
897.708	21321
897.828	21393
897.949	21260
898.07	21123
898.19	21176
898.311	21218
898.431	21291
898.552	21207
898.672	21420
898.792	21275
898.913	21302
899.033	21207
899.153	21127
899.273	20868
899.393	21154
899.513	21036
899.633	20982
899.753	21009
899.873	20960
899.993	21036
900.113	21001
900.232	20967
900.352	20925
900.472	20823
900.591	20773
900.711	20796
900.83	20735
900.95	20861
901.069	20925
901.189	20552
901.308	20377
901.427	20275
901.546	20442
901.665	20377
901.784	20461
901.904	20172
902.023	20069
902.141	19944
902.26	19902
902.379	19894
902.498	19791
902.617	19826
902.735	19868
902.854	19822
902.973	19856
903.091	19529
903.21	19400
903.328	19487
903.446	19350
903.565	19297
903.683	19304
903.801	19240
903.919	19278
904.038	19221
904.156	19053
904.274	19221
904.392	19034
904.51	19190
904.627	18970
904.745	19042
904.863	19053
904.981	18753
905.098	18715
905.216	18837
905.334	18791
905.451	18726
905.569	18597
905.686	18692
905.803	18673
905.921	18551
906.038	18593
906.155	18498
906.272	18532
906.389	18452
906.506	18194
906.623	18266
906.74	18262
906.857	18098
906.974	18163
907.091	18281
907.208	18334
907.324	18296
907.441	18079
907.557	17939
907.674	17923
907.79	17866
907.907	18045
908.023	17931
908.139	18011
908.256	17931
908.372	17897
908.488	17794
908.604	17741
908.72	17642
908.836	17657
908.952	17668
909.068	17737
909.184	17813
909.3	17653
909.415	17714
909.531	17608
909.647	17421
909.762	17376
909.878	17372
909.993	17269
910.108	17258
910.224	17368
910.339	17406
910.454	17315
910.57	17136
910.685	17128
910.8	17311
910.915	17315
911.03	17178
911.145	16968
911.259	16843
911.374	16946
911.489	16873
911.604	16778
911.718	16668
911.833	16672
911.947	16637
912.062	16447
912.176	16767
912.291	16698
912.405	16615
912.519	16930
912.633	16908
912.748	16713
912.862	16618
912.976	16470
913.09	16409
913.204	16402
913.318	16481
913.431	16577
913.545	16584
913.659	16588
913.772	16386
913.886	16253
914	16295
914.113	16390
914.226	16436
914.34	16322
914.453	16147
914.566	16348
914.68	16166
914.793	16029
914.906	16029
915.019	15793
915.132	15709
915.245	15907
915.358	15850
915.47	15747
915.583	15869
915.696	15907
915.809	15979
915.921	16002
916.034	15819
916.146	15812
916.259	15701
916.371	15816
916.483	15720
916.595	15701
916.708	15717
916.82	15694
916.932	15641
917.044	15641
917.156	15557
917.268	15447
917.38	15473
917.491	15462
917.603	15542
917.715	15553
917.826	15644
917.938	15454
918.049	15329
918.161	15435
918.272	15538
918.384	15523
918.495	15382
918.606	15169
918.717	15176
918.828	15230
918.939	15230
919.05	15154
919.161	15165
919.272	15058
919.383	15070
919.494	15283
919.604	15458
919.715	15176
919.826	15058
919.936	15154
920.047	15237
920.157	15218
920.267	15310
920.378	15264
920.488	15142
920.598	15317
920.708	15477
920.818	15237
920.928	15241
921.038	15458
921.148	15393
921.258	15127
921.368	14982
921.477	14861
921.587	14937
921.697	14792
921.806	14876
921.916	14754
922.025	14590
922.134	14568
922.244	14522
922.353	14590
922.462	14355
922.571	14313
922.68	14248
922.789	14237
922.898	14115
923.007	14157
923.116	14286
923.224	14107
923.333	14195
923.442	14054
923.55	13982
923.659	14050
923.767	14123
923.876	13864
923.984	14107
924.092	13837
924.201	13818
924.309	13925
924.417	13890
924.525	13788
924.633	13833
924.741	14739
924.849	13658
924.956	13700
925.064	13556
925.172	13499
925.279	13533
925.387	13597
925.494	13601
925.602	13655
925.709	13605
925.816	13468
925.924	13578
926.031	13506
926.138	13403
926.245	13552
926.352	13350
926.459	13487
926.566	13636
926.673	13438
926.779	13331
926.886	13369
926.993	13183
927.099	13027
927.206	13107
927.312	13072
927.419	13110
927.525	12993
927.631	13156
927.737	12939
927.843	13000
927.95	12738
928.056	12890
928.162	12989
928.267	12985
928.373	13514
928.479	12977
928.585	12745
928.69	12806
928.796	12856
928.901	12810
929.007	12597
929.112	12791
929.218	12719
929.323	12696
929.428	12684
929.533	12776
929.638	12494
929.743	12471
929.848	12585
929.953	12532
930.058	12452
930.163	12342
930.267	12243
930.372	12433
930.477	12251
930.581	12506
930.685	12224
930.79	12205
930.894	12235
930.998	12117
931.103	12163
931.207	11882
931.311	11805
931.415	11741
931.519	11581
931.623	11501
