Data from test_V78500241_3556.txt Node
Date: Fri Mar 25 16:06:26 CST 2022
User: usil
Spectrometer: V785-0024
Trigger mode: 0
Integration Time (sec): 4.000000E-1
Scans to average: 1
Nonlinearity correction enabled: false
Boxcar width: 0
Storing dark spectrum: false
XAxis mode: Wavelengths
Number of Pixels in Spectrum: 1024
>>>>>Begin Spectral Data<<<<<
801.071	29090
801.214	28976
801.356	28729
801.499	28573
801.641	28691
801.783	28611
801.926	28599
802.068	28599
802.211	28516
802.353	28447
802.496	28318
802.638	28314
802.78	28314
802.923	28139
803.065	28112
803.208	28246
803.35	28382
803.492	28421
803.635	28478
803.777	28413
803.919	28478
804.061	28847
804.204	28557
804.346	28451
804.488	28474
804.63	28451
804.773	28451
804.915	28561
805.057	28641
805.199	28599
805.341	28641
805.483	28637
805.626	28778
805.768	28691
805.91	28721
806.052	28782
806.194	28592
806.336	28809
806.478	28702
806.62	28634
806.762	28782
806.904	28999
807.046	29212
807.188	29223
807.33	29151
807.472	29071
807.614	29223
807.756	29117
807.898	29083
808.04	29033
808.182	28915
808.324	28862
808.465	29010
808.607	29353
808.749	29398
808.891	29455
809.033	29501
809.174	29452
809.316	29337
809.458	29383
809.6	29303
809.741	29531
809.883	29528
810.025	29596
810.166	29752
810.308	29786
810.45	29665
810.591	29573
810.733	29410
810.875	29455
811.016	29410
811.158	29421
811.299	29372
811.441	29566
811.582	29737
811.724	29440
811.865	29406
812.007	29463
812.148	29383
812.29	29467
812.431	29554
812.573	29802
812.714	29802
812.855	29882
812.997	29958
813.138	30155
813.279	30087
813.421	29901
813.562	29961
813.703	29760
813.845	29554
813.986	29490
814.127	29151
814.268	29052
814.41	29117
814.551	29044
814.692	29235
814.833	29033
814.974	29109
815.115	29071
815.256	29033
815.397	28911
815.539	28976
815.68	28885
815.821	28858
815.962	28984
816.103	28976
816.244	28717
816.385	28744
816.526	28599
816.666	28527
816.807	28379
816.948	28527
817.089	28527
817.23	28440
817.371	28371
817.512	28371
817.653	28379
817.793	28344
817.934	28459
818.075	28451
818.216	28375
818.356	28367
818.497	28154
818.638	28272
818.778	28371
818.919	28268
819.06	28333
819.2	28405
819.341	28489
819.481	28489
819.622	28535
819.762	28812
819.903	28706
820.043	28729
820.184	28557
820.324	28615
820.465	28706
820.605	28523
820.746	28599
820.886	28504
821.026	28500
821.167	28611
821.307	28504
821.447	28455
821.588	28462
821.728	28287
821.868	28211
822.008	27960
822.149	27941
822.289	27991
822.429	27728
822.569	27599
822.709	27637
822.849	27496
822.99	27401
823.13	27599
823.27	27378
823.41	27237
823.55	27203
823.69	27370
823.83	27291
823.97	27199
824.11	27081
824.25	27039
824.389	27123
824.529	27161
824.669	27161
824.809	27291
824.949	27135
825.089	27279
825.228	27100
825.368	27066
825.508	26967
825.648	27001
825.787	27020
825.927	26895
826.067	26842
826.206	26891
826.346	27180
826.485	26998
826.625	27062
826.765	27093
826.904	26990
827.044	26785
827.183	26758
827.323	26655
827.462	26758
827.601	26670
827.741	26598
827.88	26804
828.02	26495
828.159	26754
828.298	26617
828.437	26731
828.577	26670
828.716	26777
828.855	26511
828.994	26488
829.134	26362
829.273	26503
829.412	26423
829.551	26275
829.69	26351
829.829	26393
829.968	26511
830.107	26362
830.246	26412
830.385	26248
830.524	26278
830.663	26115
830.802	26210
830.941	26126
831.08	25989
831.219	26084
831.357	26145
831.496	26290
831.635	26062
831.774	25955
831.913	25944
832.051	25791
832.19	25780
832.329	25818
832.467	25689
832.606	25693
832.744	25559
832.883	25590
833.022	25651
833.16	25597
833.299	25685
833.437	25788
833.576	25795
833.714	25757
833.852	25742
833.991	25746
834.129	25909
834.267	25639
834.406	25731
834.544	25765
834.682	25849
834.821	25624
834.959	25738
835.097	25670
835.235	25666
835.373	25742
835.511	25655
835.65	25651
835.788	25559
835.926	25430
836.064	25301
836.202	25449
836.34	25544
836.478	25674
836.615	25479
836.753	25552
836.891	25590
837.029	25571
837.167	25324
837.305	25346
837.443	25415
837.58	25407
837.718	25365
837.856	25445
837.993	25301
838.131	25358
838.269	25183
838.406	25316
838.544	25198
838.681	25057
838.819	24958
838.956	24817
839.094	24882
839.231	24840
839.369	25057
839.506	25122
839.643	25084
839.781	24844
839.918	24658
840.055	24829
840.193	24802
840.33	24806
840.467	24601
840.604	24848
840.742	25023
840.879	24642
841.016	24646
841.153	24585
841.29	24840
841.427	24665
841.564	24715
841.701	24814
841.838	24650
841.975	24696
842.112	24711
842.249	24532
842.385	24464
842.522	24722
842.659	24608
842.796	24490
842.933	24505
843.069	24471
843.206	24292
843.343	24540
843.479	24403
843.616	24509
843.752	24361
843.889	24315
844.025	24391
844.162	24224
844.298	24403
844.435	24243
844.571	24384
844.708	24281
844.844	24513
844.98	24456
845.117	24395
845.253	24262
845.389	24072
845.525	24220
845.661	24030
845.798	23999
845.934	23931
846.07	23958
846.206	24007
846.342	24038
846.478	24022
846.614	23866
846.75	23752
846.886	23600
847.022	23828
847.158	23851
847.294	23642
847.429	23813
847.565	23611
847.701	23961
847.837	23493
847.972	23433
848.108	23589
848.244	23509
848.379	23421
848.515	23337
848.65	23246
848.786	23277
848.921	23376
849.057	23395
849.192	23410
849.328	23414
849.463	23307
849.598	23299
849.734	23117
849.869	23208
850.004	23048
850.14	22953
850.275	23193
850.41	22946
850.545	23006
850.68	23079
850.815	23200
850.95	23071
851.085	23280
851.22	23235
851.355	23044
851.49	23052
851.625	23044
851.76	22984
851.895	22999
852.03	23025
852.165	23006
852.299	23170
852.434	23075
852.569	23162
852.703	23140
852.838	23151
852.973	23151
853.107	23189
853.242	23094
853.376	22984
853.511	22809
853.645	22881
853.78	22999
853.914	22847
854.048	22869
854.183	22915
854.317	22847
854.451	23143
854.585	22778
854.72	22911
854.854	22900
854.988	22774
855.122	22778
855.256	22744
855.39	22831
855.524	22949
855.658	23006
855.792	22869
855.926	22854
856.06	22889
856.194	23033
856.327	22801
856.461	22698
856.595	22771
856.729	22786
856.862	22980
856.996	23010
857.13	22942
857.263	23029
857.397	22869
857.53	22774
857.664	22850
857.797	23044
857.931	22949
858.064	22995
858.197	22984
858.331	22904
858.464	22767
858.597	22805
858.731	22759
858.864	22858
858.997	22858
859.13	22965
859.263	22816
859.396	22938
859.529	22877
859.662	22866
859.795	22793
859.928	22835
860.061	23105
860.194	23109
860.327	23079
860.46	22858
860.592	22987
860.725	23083
860.858	22999
860.99	22938
861.123	22809
861.256	22797
861.388	22908
861.521	23577
861.653	22843
861.786	22660
861.918	22599
862.05	22748
862.183	22820
862.315	22946
862.447	22927
862.58	22828
862.712	22599
862.844	22611
862.976	22694
863.108	22634
863.24	23056
863.372	22455
863.504	22660
863.636	22637
863.768	22626
863.9	22672
864.032	22554
864.164	22542
864.296	22519
864.428	22740
864.559	22706
864.691	22630
864.823	22702
864.954	22527
865.086	22504
865.217	22527
865.349	22394
865.48	22569
865.612	22645
865.743	22542
865.875	22462
866.006	22417
866.137	22550
866.269	22337
866.4	22405
866.531	22394
866.662	22284
866.793	22333
866.924	22455
867.055	22451
867.186	22440
867.317	22325
867.448	22398
867.579	22348
867.71	22337
867.841	22306
867.972	22348
868.103	22310
868.233	22409
868.364	22413
868.495	22447
868.625	22615
868.756	22744
868.886	22519
869.017	22569
869.147	22645
869.278	22729
869.408	22668
869.539	22535
869.669	22580
869.799	22675
869.929	22771
870.06	22607
870.19	22877
870.32	22812
870.45	22854
870.58	23006
870.71	23014
870.84	23124
870.97	22908
871.1	23064
871.23	23159
871.36	23178
871.489	23143
871.619	23117
871.749	23181
871.879	23284
872.008	23303
872.138	23178
872.267	23212
872.397	23033
872.526	23185
872.656	22968
872.785	23022
872.915	23261
873.044	23353
873.173	23246
873.303	23364
873.432	23307
873.561	23322
873.69	23239
873.819	23299
873.948	23311
874.077	23231
874.206	23239
874.335	23185
874.464	23292
874.593	23478
874.722	23402
874.851	23429
874.979	23535
875.108	23566
875.237	23345
875.365	23516
875.494	23398
875.623	23471
875.751	23455
875.88	23581
876.008	23676
876.136	23452
876.265	23882
876.393	23863
876.521	23809
876.65	24038
876.778	23927
876.906	23885
877.034	23783
877.162	23779
877.29	23733
877.418	23718
877.546	23775
877.674	23752
877.802	23745
877.93	23790
878.058	23836
878.185	23589
878.313	23649
878.441	23866
878.568	23608
878.696	23630
878.824	23802
878.951	23790
879.079	23889
879.206	23965
879.333	23950
879.461	23741
879.588	23836
879.715	23897
879.842	24079
879.97	23859
880.097	23592
880.224	23467
880.351	23680
880.478	23630
880.605	23570
880.732	23604
880.859	23821
880.986	23585
881.112	23623
881.239	23395
881.366	23265
881.493	23208
881.619	23162
881.746	23136
881.872	23124
881.999	23067
882.125	23159
882.252	23242
882.378	23056
882.505	23250
882.631	22900
882.757	22911
882.883	22957
883.01	22869
883.136	22805
883.262	22733
883.388	22702
883.514	22835
883.64	22805
883.766	22702
883.892	22645
884.018	22622
884.143	22679
884.269	22915
884.395	22569
884.52	22481
884.646	22565
884.772	22497
884.897	22322
885.023	22440
885.148	22702
885.274	22580
885.399	22649
885.524	22470
885.65	22402
885.775	22485
885.9	22379
886.025	22512
886.15	22489
886.275	22394
886.4	22371
886.525	22447
886.65	22455
886.775	22375
886.9	22497
887.025	22588
887.149	22325
887.274	22169
887.399	22238
887.523	22166
887.648	22154
887.773	22120
887.897	22284
888.021	22196
888.146	22154
888.27	22322
888.395	22344
888.519	22276
888.643	22230
888.767	22215
888.891	22143
889.015	22021
889.139	22131
889.263	21987
889.387	22120
889.511	22265
889.635	22177
889.759	21987
889.883	21998
890.006	21983
890.13	22090
890.254	21998
890.377	21876
890.501	21774
890.624	21739
890.748	21747
890.871	21690
890.995	21492
891.118	21462
891.241	21534
891.364	21393
891.488	21534
891.611	21644
891.734	21553
891.857	21572
891.98	21439
892.103	21663
892.226	21622
892.349	21439
892.471	21313
892.594	21447
892.717	21447
892.839	21382
892.962	21439
893.085	21466
893.207	21439
893.33	21405
893.452	21382
893.575	21424
893.697	21412
893.819	21545
893.941	21671
894.064	21523
894.186	21336
894.308	21325
894.43	21408
894.552	21629
894.674	21420
894.796	21287
894.918	21359
895.04	21222
895.161	21500
895.283	21268
895.405	21359
895.526	21363
895.648	21359
895.769	21389
895.891	21534
896.012	21473
896.134	21405
896.255	21355
896.376	21424
896.498	21302
896.619	21428
896.74	21370
896.861	21458
896.982	21816
897.103	21766
897.224	21717
897.345	21515
897.466	21294
897.587	21595
897.708	21762
897.828	21549
897.949	21583
898.07	21424
898.19	21561
898.311	21637
898.431	21549
898.552	21561
898.672	21568
898.792	21583
898.913	21542
899.033	21469
899.153	21389
899.273	21340
899.393	21298
899.513	21332
899.633	21230
899.753	21192
899.873	21279
899.993	21291
900.113	21218
900.232	21226
900.352	21176
900.472	21055
900.591	21028
900.711	21165
900.83	21024
900.95	21096
901.069	21104
901.189	20979
901.308	20792
901.427	20575
901.546	20549
901.665	20602
901.784	20705
901.904	20419
902.023	20404
902.141	20092
902.26	20092
902.379	20183
902.498	20100
902.617	20088
902.735	20096
902.854	20126
902.973	20012
903.091	19868
903.21	19871
903.328	19746
903.446	19693
903.565	19693
903.683	19540
903.801	19537
903.919	19624
904.038	19594
904.156	19453
904.274	19362
904.392	19339
904.51	19339
904.627	19270
904.745	19331
904.863	19343
904.981	19148
905.098	18989
905.216	18989
905.334	19042
905.451	19072
905.569	19084
905.686	19042
905.803	18932
905.921	18890
906.038	18856
906.155	18817
906.272	18661
906.389	18658
906.506	18635
906.623	18559
906.74	18612
906.857	18376
906.974	18369
907.091	18650
907.208	18608
907.324	18502
907.441	18486
907.557	18281
907.674	18247
907.79	18159
907.907	18205
908.023	18201
908.139	18182
908.256	18205
908.372	18102
908.488	18125
908.604	17965
908.72	17939
908.836	17980
908.952	17889
909.068	18022
909.184	17996
909.3	17946
909.415	18049
909.531	17961
909.647	17680
909.762	17680
909.878	17573
909.993	17672
910.108	17653
910.224	17710
910.339	17623
910.454	17478
910.57	17368
910.685	17398
910.8	17653
910.915	17554
911.03	17455
911.145	17269
911.259	17170
911.374	17159
911.489	17045
911.604	17109
911.718	17045
911.833	16957
911.947	16843
912.062	16782
912.176	16968
912.291	16923
912.405	16915
912.519	17136
912.633	17109
912.748	16961
912.862	16908
912.976	16797
913.09	16554
913.204	16740
913.318	16820
913.431	16877
913.545	16744
913.659	16824
913.772	16763
913.886	16569
914	16527
914.113	16634
914.226	16683
914.34	16569
914.453	16417
914.566	16577
914.68	16462
914.793	16440
914.906	16219
915.019	16185
915.132	16048
915.245	16086
915.358	16223
915.47	16120
915.583	16116
915.696	16158
915.809	16249
915.921	16306
916.034	16044
916.146	16059
916.259	16032
916.371	16105
916.483	16101
916.595	15998
916.708	16044
916.82	15903
916.932	15903
917.044	15873
917.156	15838
917.268	15835
917.38	15709
917.491	15713
917.603	15736
917.715	15915
917.826	15766
917.938	15701
918.049	15629
918.161	15709
918.272	15747
918.384	15663
918.495	15644
918.606	15454
918.717	15496
918.828	15523
918.939	15504
919.05	15378
919.161	15504
919.272	15310
919.383	15359
919.494	15473
919.604	15637
919.715	15397
919.826	15340
919.936	15393
920.047	15450
920.157	15462
920.267	15637
920.378	15496
920.488	15420
920.598	15580
920.708	15728
920.818	15690
920.928	15481
921.038	15747
921.148	15717
921.258	15401
921.368	15291
921.477	15218
921.587	15188
921.697	15005
921.806	15108
921.916	14937
922.025	14788
922.134	14765
922.244	14678
922.353	14773
922.462	14579
922.571	14659
922.68	14492
922.789	14518
922.898	14404
923.007	14320
923.116	14374
923.224	14511
923.333	14324
923.442	14225
923.55	14290
923.659	14248
923.767	14374
923.876	14218
923.984	14252
924.092	14119
924.201	14180
924.309	14161
924.417	14142
924.525	14024
924.633	14024
924.741	15013
924.849	13818
924.956	13967
925.064	13772
925.172	13734
925.279	13753
925.387	13734
925.494	13780
925.602	13963
925.709	13791
925.816	13624
925.924	13674
926.031	13841
926.138	13788
926.245	13795
926.352	13601
926.459	13723
926.566	13830
926.673	13670
926.779	13480
926.886	13559
926.993	13464
927.099	13285
927.206	13316
927.312	13225
927.419	13392
927.525	13335
927.631	13331
927.737	13255
927.843	13160
927.95	13065
928.056	13091
928.162	13110
928.267	13190
928.373	13769
928.479	13107
928.585	12920
928.69	13019
928.796	13050
928.901	12993
929.007	12871
929.112	12954
929.218	12859
929.323	12894
929.428	12814
929.533	12901
929.638	12779
929.743	12875
929.848	12722
929.953	12764
930.058	12612
930.163	12532
930.267	12448
930.372	12662
930.477	12486
930.581	12669
930.685	12502
930.79	12395
930.894	12327
930.998	12327
931.103	12509
931.207	12129
931.311	11973
931.415	11939
931.519	11779
931.623	11767
