Data from test_V78500241_1899.txt Node
Date: Fri Mar 25 15:54:57 CST 2022
User: usil
Spectrometer: V785-0024
Trigger mode: 0
Integration Time (sec): 4.000000E-1
Scans to average: 1
Nonlinearity correction enabled: false
Boxcar width: 0
Storing dark spectrum: false
XAxis mode: Wavelengths
Number of Pixels in Spectrum: 1024
>>>>>Begin Spectral Data<<<<<
801.071	28527
801.214	28443
801.356	28287
801.499	28204
801.641	28124
801.783	28059
801.926	28040
802.068	28070
802.211	28044
802.353	27987
802.496	27873
802.638	27759
802.78	27717
802.923	27656
803.065	27580
803.208	27781
803.35	27789
803.492	28002
803.635	27914
803.777	27876
803.919	27930
804.061	28219
804.204	28032
804.346	27888
804.488	27816
804.63	27994
804.773	27835
804.915	28044
805.057	28105
805.199	27987
805.341	28048
805.483	28135
805.626	28105
805.768	27975
805.91	28090
806.052	28200
806.194	28013
806.336	28379
806.478	28120
806.62	28093
806.762	28272
806.904	28428
807.046	28694
807.188	28436
807.33	28599
807.472	28626
807.614	28519
807.756	28519
807.898	28367
808.04	28417
808.182	28325
808.324	28382
808.465	28432
808.607	28542
808.749	28885
808.891	28847
809.033	28831
809.174	28919
809.316	28828
809.458	28687
809.6	28888
809.741	28885
809.883	28984
810.025	29075
810.166	29056
810.308	29121
810.45	28908
810.591	28999
810.733	28752
810.875	28877
811.016	28637
811.158	28679
811.299	28927
811.441	28934
811.582	28892
811.724	28828
811.865	28778
812.007	28778
812.148	28854
812.29	28892
812.431	28965
812.573	29033
812.714	29246
812.855	29410
812.997	29433
813.138	29547
813.279	29436
813.421	29315
813.562	29269
813.703	29121
813.845	29079
813.986	28767
814.127	28596
814.268	28577
814.41	28500
814.551	28390
814.692	28664
814.833	28546
814.974	28504
815.115	28694
815.256	28322
815.397	28325
815.539	28325
815.68	28268
815.821	28226
815.962	28379
816.103	28185
816.244	28204
816.385	28169
816.526	28162
816.666	27937
816.807	27854
816.948	27930
817.089	27884
817.23	27808
817.371	27899
817.512	27724
817.653	27762
817.793	27637
817.934	27827
818.075	27660
818.216	27831
818.356	27701
818.497	27728
818.638	27427
818.778	27500
818.919	27599
819.06	27622
819.2	27770
819.341	27709
819.481	27854
819.622	27922
819.762	28147
819.903	27930
820.043	27934
820.184	27884
820.324	27953
820.465	27994
820.605	27930
820.746	28002
820.886	27827
821.026	27911
821.167	27747
821.307	27789
821.447	27854
821.588	27827
821.728	27644
821.868	27538
822.008	27374
822.149	27237
822.289	27135
822.429	27058
822.569	27036
822.709	26925
822.849	26853
822.99	26785
823.13	26788
823.27	26720
823.41	26545
823.55	26594
823.69	26473
823.83	26693
823.97	26617
824.11	26374
824.25	26305
824.389	26393
824.529	26651
824.669	26434
824.809	26549
824.949	26552
825.089	26549
825.228	26393
825.368	26385
825.508	26301
825.648	26237
825.787	26389
825.927	26343
826.067	26298
826.206	26389
826.346	26309
826.485	26263
826.625	26252
826.765	26309
826.904	26355
827.044	26046
827.183	26168
827.323	25940
827.462	26130
827.601	26122
827.741	26035
827.88	26100
828.02	26008
828.159	25966
828.298	25993
828.437	26012
828.577	25928
828.716	25951
828.855	25928
828.994	25746
829.134	25719
829.273	25594
829.412	25571
829.551	25597
829.69	25670
829.829	25533
829.968	25704
830.107	25700
830.246	25715
830.385	25639
830.524	25506
830.663	25468
830.802	25289
830.941	25240
831.08	25244
831.219	25396
831.357	25381
831.496	25586
831.635	25320
831.774	25358
831.913	25152
832.051	25137
832.19	25168
832.329	25209
832.467	24985
832.606	25000
832.744	24996
832.883	24981
833.022	24806
833.16	25004
833.299	25179
833.437	25095
833.576	25000
833.714	24973
833.852	25053
833.991	25034
834.129	25133
834.267	25209
834.406	25137
834.544	25217
834.682	24996
834.821	25012
834.959	25244
835.097	24943
835.235	25099
835.373	24928
835.511	25114
835.65	24863
835.788	25008
835.926	24795
836.064	24665
836.202	24684
836.34	24962
836.478	24871
836.615	24806
836.753	24935
836.891	24905
837.029	24882
837.167	24734
837.305	24821
837.443	24646
837.58	24661
837.718	24745
837.856	24684
837.993	24661
838.131	24692
838.269	24505
838.406	24513
838.544	24604
838.681	24327
838.819	24315
838.956	24155
839.094	24117
839.231	24167
839.369	24270
839.506	24521
839.643	24311
839.781	24140
839.918	24087
840.055	24117
840.193	24159
840.33	24022
840.467	24117
840.604	24076
840.742	24319
840.879	23904
841.016	23950
841.153	23836
841.29	24129
841.427	23999
841.564	24163
841.701	24228
841.838	23859
841.975	23988
842.112	23882
842.249	23908
842.385	23798
842.522	23958
842.659	23836
842.796	23802
842.933	23794
843.069	23790
843.206	23726
843.343	24015
843.479	23790
843.616	23665
843.752	23547
843.889	23547
844.025	23722
844.162	23455
844.298	23623
844.435	23581
844.571	23505
844.708	23581
844.844	23619
844.98	23718
845.117	23684
845.253	23535
845.389	23478
845.525	23440
845.661	23398
845.798	23474
845.934	23417
846.07	23288
846.206	23318
846.342	23452
846.478	23261
846.614	23090
846.75	22957
846.886	23018
847.022	23132
847.158	23140
847.294	23048
847.429	23071
847.565	22991
847.701	23242
847.837	22831
847.972	22877
848.108	22904
848.244	22847
848.379	22523
848.515	22634
848.65	22577
848.786	22577
848.921	22664
849.057	22717
849.192	22790
849.328	22649
849.463	22706
849.598	22550
849.734	22489
849.869	22542
850.004	22504
850.14	22402
850.275	22497
850.41	22371
850.545	22337
850.68	22291
850.815	22455
850.95	22371
851.085	22516
851.22	22554
851.355	22447
851.49	22371
851.625	22436
851.76	22405
851.895	22386
852.03	22375
852.165	22440
852.299	22470
852.434	22512
852.569	22272
852.703	22424
852.838	22504
852.973	22531
853.107	22466
853.242	22432
853.376	22280
853.511	22215
853.645	22246
853.78	22352
853.914	22219
854.048	22173
854.183	22261
854.317	22314
854.451	22417
854.585	22188
854.72	22211
854.854	22352
854.988	22131
855.122	22135
855.256	22188
855.39	22280
855.524	22341
855.658	22299
855.792	22219
855.926	22303
856.06	22276
856.194	22242
856.327	22207
856.461	22280
856.595	22265
856.729	22272
856.862	22299
856.996	22299
857.13	22291
857.263	22421
857.397	22352
857.53	22116
857.664	22299
857.797	22287
857.931	22333
858.064	22272
858.197	22360
858.331	22265
858.464	22078
858.597	22150
858.731	22192
858.864	22215
858.997	22154
859.13	22226
859.263	22188
859.396	22344
859.529	22238
859.662	22284
859.795	22226
859.928	22261
860.061	22413
860.194	22432
860.327	22322
860.46	22291
860.592	22291
860.725	22409
860.858	22375
860.99	22318
861.123	22059
861.256	22128
861.388	22367
861.521	23132
861.653	22112
861.786	21911
861.918	22086
862.05	22158
862.183	22215
862.315	22238
862.447	22291
862.58	22055
862.712	21880
862.844	21842
862.976	21979
863.108	22002
863.24	22306
863.372	21926
863.504	22036
863.636	21884
863.768	22029
863.9	22025
864.032	21876
864.164	21907
864.296	21941
864.428	22078
864.559	21994
864.691	22059
864.823	21937
864.954	21941
865.086	21956
865.217	21854
865.349	21713
865.48	21884
865.612	21865
865.743	21873
865.875	21941
866.006	21945
866.137	21972
866.269	21854
866.4	21838
866.531	21804
866.662	21622
866.793	21732
866.924	21781
867.055	21793
867.186	21785
867.317	21713
867.448	21743
867.579	21743
867.71	21705
867.841	21660
867.972	21899
868.103	21641
868.233	21743
868.364	21861
868.495	21751
868.625	21968
868.756	22120
868.886	21907
869.017	22048
869.147	22078
869.278	22223
869.408	22021
869.539	21979
869.669	22116
869.799	22078
869.929	22135
870.06	22086
870.19	22375
870.32	22322
870.45	22333
870.58	22272
870.71	22531
870.84	22531
870.97	22428
871.1	22394
871.23	22493
871.36	22599
871.489	22421
871.619	22455
871.749	22569
871.879	22535
872.008	22721
872.138	22691
872.267	22569
872.397	22569
872.526	22478
872.656	22447
872.785	22443
872.915	22634
873.044	22717
873.173	22637
873.303	22622
873.432	22599
873.561	22748
873.69	22656
873.819	22622
873.948	22721
874.077	22656
874.206	22683
874.335	22626
874.464	22721
874.593	22866
874.722	22717
874.851	22980
874.979	22911
875.108	22835
875.237	22755
875.365	22691
875.494	22885
875.623	22835
875.751	22691
875.88	22793
876.008	22885
876.136	23006
876.265	23223
876.393	23303
876.521	23299
876.65	23368
876.778	23189
876.906	23178
877.034	23140
877.162	23250
877.29	23048
877.418	23147
877.546	23250
877.674	23162
877.802	23136
877.93	23067
878.058	23166
878.185	22961
878.313	23067
878.441	23143
878.568	22953
878.696	23064
878.824	23185
878.951	23216
879.079	23269
879.206	23463
879.333	23315
879.461	23220
879.588	23170
879.715	23227
879.842	23406
879.97	23235
880.097	22999
880.224	22908
880.351	22889
880.478	23128
880.605	22927
880.732	22972
880.859	23022
880.986	23041
881.112	23014
881.239	22911
881.366	22733
881.493	22656
881.619	22440
881.746	22596
881.872	22641
881.999	22459
882.125	22394
882.252	22565
882.378	22489
882.505	22618
882.631	22409
882.757	22238
882.883	22291
883.01	22303
883.136	22196
883.262	22036
883.388	21934
883.514	22276
883.64	22322
883.766	22090
883.892	22162
884.018	22150
884.143	22150
884.269	22299
884.395	21937
884.52	21789
884.646	21888
884.772	21789
884.897	21743
885.023	21835
885.148	21949
885.274	22074
885.399	21968
885.524	21854
885.65	21945
885.775	21911
885.9	21793
886.025	22013
886.15	21876
886.275	21705
886.4	21785
886.525	21899
886.65	21717
886.775	21869
886.9	21892
887.025	22090
887.149	21808
887.274	21751
887.399	21580
887.523	21694
887.648	21538
887.773	21466
887.897	21618
888.021	21587
888.146	21576
888.27	21694
888.395	21785
888.519	21739
888.643	21774
888.767	21625
888.891	21557
889.015	21405
889.139	21443
889.263	21241
889.387	21488
889.511	21515
889.635	21462
889.759	21302
889.883	21473
890.006	21496
890.13	21462
890.254	21367
890.377	21325
890.501	21131
890.624	21142
890.748	21237
890.871	21005
890.995	21043
891.118	20876
891.241	21024
891.364	20853
891.488	21081
891.611	21112
891.734	21081
891.857	20990
891.98	20975
892.103	21020
892.226	20902
892.349	20975
892.471	20739
892.594	20861
892.717	20853
892.839	20929
892.962	20830
893.085	20994
893.207	20804
893.33	20705
893.452	20800
893.575	20910
893.697	20819
893.819	21093
893.941	21119
894.064	20967
894.186	20895
894.308	20754
894.43	20925
894.552	20914
894.674	20948
894.796	20773
894.918	20792
895.04	20796
895.161	20982
895.283	21028
895.405	20838
895.526	20937
895.648	20804
895.769	20845
895.891	20815
896.012	20910
896.134	21062
896.255	20857
896.376	20823
896.498	20819
896.619	20899
896.74	20849
896.861	21013
896.982	21306
897.103	21336
897.224	21165
897.345	21070
897.466	21089
897.587	21047
897.708	21104
897.828	21066
897.949	21017
898.07	20963
898.19	21142
898.311	21116
898.431	21066
898.552	21058
898.672	21066
898.792	21146
898.913	21062
899.033	20994
899.153	20899
899.273	20781
899.393	20811
899.513	20845
899.633	20842
899.753	20724
899.873	20777
899.993	20826
900.113	20765
900.232	20727
900.352	20667
900.472	20636
900.591	20522
900.711	20644
900.83	20442
900.95	20720
901.069	20636
901.189	20446
901.308	20126
901.427	20092
901.546	20134
901.665	20218
901.784	20092
901.904	20020
902.023	19974
902.141	19723
902.26	19613
902.379	19746
902.498	19696
902.617	19487
902.735	19765
902.854	19727
902.973	19582
903.091	19320
903.21	19270
903.328	19358
903.446	19145
903.565	19122
903.683	19160
903.801	18890
903.919	19019
904.038	18935
904.156	18829
904.274	18856
904.392	18863
904.51	18901
904.627	18817
904.745	18867
904.863	18779
904.981	18646
905.098	18498
905.216	18528
905.334	18574
905.451	18563
905.569	18551
905.686	18437
905.803	18544
905.921	18251
906.038	18365
906.155	18361
906.272	18140
906.389	18334
906.506	17996
906.623	18110
906.74	18087
906.857	17935
906.974	17946
907.091	18064
907.208	18095
907.324	18095
907.441	17950
907.557	17851
907.674	17851
907.79	17718
907.907	17676
908.023	17794
908.139	17695
908.256	17752
908.372	17680
908.488	17611
908.604	17452
908.72	17505
908.836	17490
908.952	17406
909.068	17509
909.184	17512
909.3	17478
909.415	17516
909.531	17528
909.647	17269
909.762	17223
909.878	17117
909.993	17261
910.108	17045
910.224	17083
910.339	17181
910.454	17067
910.57	16942
910.685	16957
910.8	17075
910.915	17162
911.03	16965
911.145	16854
911.259	16755
911.374	16763
911.489	16805
911.604	16611
911.718	16497
911.833	16523
911.947	16470
912.062	16402
912.176	16512
912.291	16409
912.405	16523
912.519	16683
912.633	16653
912.748	16558
912.862	16481
912.976	16287
913.09	16181
913.204	16211
913.318	16333
913.431	16531
913.545	16329
913.659	16462
913.772	16276
913.886	16029
914	16044
914.113	16116
914.226	16177
914.34	16139
914.453	16013
914.566	16150
914.68	16006
914.793	15953
914.906	15774
915.019	15766
915.132	15637
915.245	15656
915.358	15812
915.47	15690
915.583	15755
915.696	15557
915.809	15774
915.921	15762
916.034	15610
916.146	15606
916.259	15530
916.371	15660
916.483	15644
916.595	15568
916.708	15519
916.82	15500
916.932	15405
917.044	15405
917.156	15420
917.268	15382
917.38	15408
917.491	15207
917.603	15332
917.715	15450
917.826	15412
917.938	15291
918.049	15195
918.161	15306
918.272	15408
918.384	15310
918.495	15329
918.606	15112
918.717	14967
918.828	15093
918.939	15093
919.05	14975
919.161	15028
919.272	14826
919.383	14921
919.494	15047
919.604	15264
919.715	14990
919.826	14902
919.936	15024
920.047	15104
920.157	15077
920.267	15165
920.378	14941
920.488	15020
920.598	15192
920.708	15291
920.818	15214
920.928	15214
921.038	15279
921.148	15226
921.258	15001
921.368	14910
921.477	14792
921.587	14815
921.697	14606
921.806	14720
921.916	14716
922.025	14419
922.134	14339
922.244	14362
922.353	14484
922.462	14328
922.571	14305
922.68	14084
922.789	14008
922.898	14073
923.007	13989
923.116	14005
923.224	14092
923.333	14039
923.442	14001
923.55	13932
923.659	13963
923.767	13947
923.876	13807
923.984	13921
924.092	13795
924.201	13906
924.309	13811
924.417	13811
924.525	13704
924.633	13712
924.741	14431
924.849	13567
924.956	13651
925.064	13514
925.172	13438
925.279	13441
925.387	13419
925.494	13422
925.602	13518
925.709	13453
925.816	13324
925.924	13297
926.031	13422
926.138	13422
926.245	13373
926.352	13236
926.459	13445
926.566	13464
926.673	13304
926.779	13198
926.886	13236
926.993	12993
927.099	13053
927.206	12970
927.312	12954
927.419	13084
927.525	12962
927.631	12996
927.737	12882
927.843	12859
927.95	12779
928.056	12817
928.162	12749
928.267	12928
928.373	13506
928.479	12779
928.585	12635
928.69	12688
928.796	12745
928.901	12669
929.007	12574
929.112	12627
929.218	12570
929.323	12502
929.428	12509
929.533	12582
929.638	12429
929.743	12506
929.848	12555
929.953	12460
930.058	12391
930.163	12159
930.267	12167
930.372	12365
930.477	12144
930.581	12391
930.685	12152
930.79	12068
930.894	12114
930.998	12083
931.103	12194
931.207	11809
931.311	11783
931.415	11589
931.519	11463
931.623	11444
