Data from test_V78500241_3266.txt Node
Date: Fri Mar 25 16:04:25 CST 2022
User: usil
Spectrometer: V785-0024
Trigger mode: 0
Integration Time (sec): 4.000000E-1
Scans to average: 1
Nonlinearity correction enabled: false
Boxcar width: 0
Storing dark spectrum: false
XAxis mode: Wavelengths
Number of Pixels in Spectrum: 1024
>>>>>Begin Spectral Data<<<<<
801.071	28835
801.214	28672
801.356	28512
801.499	28432
801.641	28363
801.783	28413
801.926	28512
802.068	28325
802.211	28158
802.353	28226
802.496	28101
802.638	28128
802.78	28055
802.923	27979
803.065	27983
803.208	28082
803.35	28059
803.492	28246
803.635	28287
803.777	28177
803.919	28394
804.061	28683
804.204	28443
804.346	28257
804.488	28204
804.63	28352
804.773	28162
804.915	28401
805.057	28348
805.199	28424
805.341	28394
805.483	28550
805.626	28497
805.768	28352
805.91	28554
806.052	28485
806.194	28352
806.336	28565
806.478	28417
806.62	28466
806.762	28706
806.904	28782
807.046	28961
807.188	28900
807.33	29025
807.472	28961
807.614	28869
807.756	28968
807.898	28862
808.04	28637
808.182	28618
808.324	28793
808.465	28847
808.607	29010
808.749	29185
808.891	29261
809.033	29292
809.174	29288
809.316	29181
809.458	29151
809.6	29083
809.741	29261
809.883	29216
810.025	29421
810.166	29497
810.308	29490
810.45	29334
810.591	29360
810.733	29235
810.875	29132
811.016	29037
811.158	29143
811.299	29239
811.441	29353
811.582	29326
811.724	29216
811.865	29151
812.007	29170
812.148	29200
812.29	29178
812.431	29433
812.573	29562
812.714	29566
812.855	29786
812.997	29885
813.138	29961
813.279	29939
813.421	29707
813.562	29566
813.703	29497
813.845	29375
813.986	29185
814.127	29086
814.268	28877
814.41	28911
814.551	28824
814.692	28927
814.833	28729
814.974	28755
815.115	28927
815.256	28755
815.397	28752
815.539	28839
815.68	28744
815.821	28565
815.962	28835
816.103	28797
816.244	28481
816.385	28428
816.526	28382
816.666	28192
816.807	28211
816.948	28230
817.089	28306
817.23	28207
817.371	28196
817.512	28177
817.653	28261
817.793	27998
817.934	28249
818.075	28188
818.216	28154
818.356	28032
818.497	28162
818.638	28029
818.778	28010
818.919	28120
819.06	28002
819.2	28082
819.341	28280
819.481	28207
819.622	28386
819.762	28615
819.903	28451
820.043	28379
820.184	28371
820.324	28238
820.465	28291
820.605	28344
820.746	28303
820.886	28185
821.026	28398
821.167	28299
821.307	28360
821.447	28219
821.588	28143
821.728	28029
821.868	27892
822.008	27682
822.149	27728
822.289	27686
822.429	27378
822.569	27359
822.709	27405
822.849	27230
822.99	27378
823.13	27051
823.27	27203
823.41	27001
823.55	26845
823.69	26925
823.83	27036
823.97	26925
824.11	26777
824.25	26792
824.389	26872
824.529	26891
824.669	26788
824.809	26948
824.949	27055
825.089	26940
825.228	26914
825.368	26773
825.508	26655
825.648	26678
825.787	26857
825.927	26686
826.067	26754
826.206	26746
826.346	26823
826.485	26807
826.625	26724
826.765	26914
826.904	26762
827.044	26545
827.183	26533
827.323	26351
827.462	26495
827.601	26434
827.741	26469
827.88	26541
828.02	26271
828.159	26347
828.298	26412
828.437	26488
828.577	26396
828.716	26533
828.855	26362
828.994	26278
829.134	26134
829.273	26062
829.412	26111
829.551	26073
829.69	26096
829.829	26149
829.968	26229
830.107	26161
830.246	26221
830.385	26050
830.524	26039
830.663	25955
830.802	25845
830.941	25609
831.08	25704
831.219	25731
831.357	25750
831.496	25921
831.635	25917
831.774	25685
831.913	25791
832.051	25571
832.19	25628
832.329	25506
832.467	25396
832.606	25343
832.744	25419
832.883	25354
833.022	25464
833.16	25419
833.299	25327
833.437	25384
833.576	25483
833.714	25388
833.852	25674
833.991	25556
834.129	25651
834.267	25479
834.406	25487
834.544	25430
834.682	25567
834.821	25350
834.959	25647
835.097	25301
835.235	25518
835.373	25362
835.511	25468
835.65	25202
835.788	25331
835.926	25206
836.064	24996
836.202	25038
836.34	25304
836.478	25339
836.615	25232
836.753	25198
836.891	25487
837.029	25251
837.167	25118
837.305	25247
837.443	25285
837.58	25175
837.718	25350
837.856	25168
837.993	24970
838.131	25065
838.269	25031
838.406	25023
838.544	24973
838.681	24901
838.819	24806
838.956	24547
839.094	24574
839.231	24661
839.369	24654
839.506	24928
839.643	24859
839.781	24604
839.918	24536
840.055	24521
840.193	24654
840.33	24498
840.467	24490
840.604	24608
840.742	24707
840.879	24342
841.016	24452
841.153	24479
841.29	24646
841.427	24441
841.564	24517
841.701	24437
841.838	24502
841.975	24399
842.112	24353
842.249	24346
842.385	24155
842.522	24388
842.659	24155
842.796	24129
842.933	24243
843.069	24163
843.206	24327
843.343	24311
843.479	24277
843.616	24289
843.752	24015
843.889	24003
844.025	24045
844.162	23996
844.298	24026
844.435	24022
844.571	24018
844.708	24178
844.844	24224
844.98	24155
845.117	23950
845.253	23996
845.389	23866
845.525	23931
845.661	23904
845.798	23748
845.934	23756
846.07	23760
846.206	23741
846.342	23855
846.478	23729
846.614	23543
846.75	23421
846.886	23543
847.022	23581
847.158	23509
847.294	23524
847.429	23509
847.565	23440
847.701	23752
847.837	23117
847.972	23117
848.108	23299
848.244	23261
848.379	23113
848.515	22949
848.65	23155
848.786	23124
848.921	23094
849.057	23277
849.192	23048
849.328	23071
849.463	22953
849.598	23003
849.734	22965
849.869	22869
850.004	22831
850.14	22797
850.275	22824
850.41	22828
850.545	22615
850.68	22805
850.815	22869
850.95	22740
851.085	22965
851.22	22892
851.355	22908
851.49	22809
851.625	22824
851.76	22835
851.895	22668
852.03	22683
852.165	22824
852.299	22854
852.434	22885
852.569	22790
852.703	22816
852.838	22919
852.973	22968
853.107	23025
853.242	22778
853.376	22679
853.511	22504
853.645	22554
853.78	22801
853.914	22611
854.048	22596
854.183	22664
854.317	22569
854.451	22847
854.585	22634
854.72	22664
854.854	22702
854.988	22664
855.122	22664
855.256	22622
855.39	22664
855.524	22782
855.658	22626
855.792	22645
855.926	22599
856.06	22649
856.194	22759
856.327	22702
856.461	22596
856.595	22573
856.729	22660
856.862	22797
856.996	22645
857.13	22759
857.263	22679
857.397	22740
857.53	22615
857.664	22717
857.797	22736
857.931	22634
858.064	22592
858.197	22725
858.331	22641
858.464	22596
858.597	22538
858.731	22626
858.864	22615
858.997	22622
859.13	22664
859.263	22713
859.396	22618
859.529	22615
859.662	22679
859.795	22596
859.928	22713
860.061	22763
860.194	22835
860.327	22736
860.46	22694
860.592	22713
860.725	22790
860.858	22744
860.99	22649
861.123	22508
861.256	22626
861.388	22660
861.521	23307
861.653	22706
861.786	22443
861.918	22523
862.05	22656
862.183	22603
862.315	22630
862.447	22637
862.58	22622
862.712	22367
862.844	22306
862.976	22390
863.108	22421
863.24	22626
863.372	22310
863.504	22386
863.636	22371
863.768	22367
863.9	22325
864.032	22219
864.164	22382
864.296	22299
864.428	22440
864.559	22421
864.691	22352
864.823	22337
864.954	22341
865.086	22310
865.217	22196
865.349	22139
865.48	22226
865.612	22253
865.743	22329
865.875	22207
866.006	22185
866.137	22314
866.269	22280
866.4	22196
866.531	22162
866.662	22135
866.793	22242
866.924	22090
867.055	22158
867.186	22166
867.317	22067
867.448	22040
867.579	22135
867.71	22051
867.841	22109
867.972	22204
868.103	22090
868.233	22139
868.364	22150
868.495	22211
868.625	22375
868.756	22523
868.886	22352
869.017	22485
869.147	22356
869.278	22382
869.408	22329
869.539	22272
869.669	22348
869.799	22459
869.929	22527
870.06	22478
870.19	22744
870.32	22713
870.45	22740
870.58	22782
870.71	22850
870.84	22976
870.97	22725
871.1	22831
871.23	22961
871.36	23018
871.489	22976
871.619	22991
871.749	22953
871.879	23083
872.008	23010
872.138	23064
872.267	23022
872.397	22835
872.526	23006
872.656	22763
872.785	22778
872.915	23143
873.044	23090
873.173	23094
873.303	23105
873.432	23018
873.561	23181
873.69	22972
873.819	23102
873.948	23098
874.077	23083
874.206	23033
874.335	22869
874.464	23018
874.593	23064
874.722	23159
874.851	23197
874.979	23318
875.108	23299
875.237	23223
875.365	23113
875.494	23254
875.623	23159
875.751	23174
875.88	23242
876.008	23345
876.136	23417
876.265	23611
876.393	23604
876.521	23707
876.65	23760
876.778	23649
876.906	23562
877.034	23547
877.162	23551
877.29	23554
877.418	23554
877.546	23573
877.674	23573
877.802	23551
877.93	23543
878.058	23490
878.185	23474
878.313	23520
878.441	23429
878.568	23356
878.696	23482
878.824	23558
878.951	23714
879.079	23714
879.206	23836
879.333	23764
879.461	23653
879.588	23729
879.715	23775
879.842	23878
879.97	23646
880.097	23261
880.224	23372
880.351	23322
880.478	23482
880.605	23368
880.732	23417
880.859	23665
880.986	23421
881.112	23376
881.239	23277
881.366	23060
881.493	23014
881.619	23102
881.746	22930
881.872	23090
881.999	22934
882.125	22850
882.252	22968
882.378	22862
882.505	23033
882.631	22771
882.757	22702
882.883	22793
883.01	22630
883.136	22557
883.262	22542
883.388	22474
883.514	22618
883.64	22679
883.766	22675
883.892	22348
884.018	22405
884.143	22527
884.269	22694
884.395	22413
884.52	22280
884.646	22173
884.772	22230
884.897	22078
885.023	22276
885.148	22280
885.274	22322
885.399	22360
885.524	22303
885.65	22196
885.775	22303
885.9	22226
886.025	22382
886.15	22402
886.275	22188
886.4	22128
886.525	22306
886.65	22025
886.775	22230
886.9	22436
887.025	22440
887.149	22287
887.274	21994
887.399	22131
887.523	21918
887.648	21934
887.773	22002
887.897	22105
888.021	22040
888.146	22010
888.27	22051
888.395	22059
888.519	21987
888.643	22048
888.767	22055
888.891	21888
889.015	21739
889.139	21854
889.263	21857
889.387	21994
889.511	21964
889.635	21945
889.759	21739
889.883	21808
890.006	21770
890.13	21850
890.254	21778
890.377	21747
890.501	21542
890.624	21542
890.748	21561
890.871	21397
890.995	21351
891.118	21317
891.241	21348
891.364	21359
891.488	21549
891.611	21382
891.734	21340
891.857	21443
891.98	21359
892.103	21370
892.226	21260
892.349	21397
892.471	21154
892.594	21260
892.717	21298
892.839	21165
892.962	21123
893.085	21313
893.207	21146
893.33	21001
893.452	21116
893.575	21272
893.697	21226
893.819	21302
893.941	21363
894.064	21363
894.186	21154
894.308	21245
894.43	21230
894.552	21363
894.674	21287
894.796	21119
894.918	21093
895.04	21123
895.161	21378
895.283	21230
895.405	21176
895.526	21150
895.648	21245
895.769	21211
895.891	21142
896.012	21203
896.134	21214
896.255	21180
896.376	21199
896.498	21138
896.619	21195
896.74	21260
896.861	21230
896.982	21496
897.103	21660
897.224	21477
897.345	21492
897.466	21332
897.587	21458
897.708	21526
897.828	21374
897.949	21340
898.07	21245
898.19	21256
898.311	21431
898.431	21298
898.552	21374
898.672	21416
898.792	21401
898.913	21268
899.033	21378
899.153	21291
899.273	21074
899.393	21237
899.513	21108
899.633	21096
899.753	21157
899.873	20948
899.993	21131
900.113	21017
900.232	21039
900.352	20963
900.472	20967
900.591	20906
900.711	20956
900.83	20921
900.95	21058
901.069	20982
901.189	20853
901.308	20556
901.427	20511
901.546	20404
901.665	20598
901.784	20415
901.904	20358
902.023	20176
902.141	20065
902.26	19921
902.379	20115
902.498	19978
902.617	19875
902.735	19959
902.854	20008
902.973	19856
903.091	19571
903.21	19609
903.328	19605
903.446	19472
903.565	19521
903.683	19487
903.801	19297
903.919	19354
904.038	19400
904.156	19270
904.274	19308
904.392	19095
904.51	19187
904.627	19050
904.745	19217
904.863	19297
904.981	19076
905.098	18966
905.216	18905
905.334	18875
905.451	18844
905.569	18810
905.686	18840
905.803	18749
905.921	18601
906.038	18772
906.155	18620
906.272	18540
906.389	18532
906.506	18323
906.623	18353
906.74	18361
906.857	18342
906.974	18163
907.091	18509
907.208	18483
907.324	18300
907.441	18311
907.557	18068
907.674	18125
907.79	18068
907.907	18068
908.023	18038
908.139	18038
908.256	17973
908.372	17988
908.488	17923
908.604	17813
908.72	17794
908.836	17783
908.952	17817
909.068	17775
909.184	17824
909.3	17764
909.415	17790
909.531	17824
909.647	17486
909.762	17493
909.878	17463
909.993	17467
910.108	17509
910.224	17398
910.339	17440
910.454	17334
910.57	17292
910.685	17166
910.8	17471
910.915	17471
911.03	17254
911.145	17273
911.259	17022
911.374	17064
911.489	16999
911.604	16930
911.718	16824
911.833	16778
911.947	16824
912.062	16675
912.176	16820
912.291	16763
912.405	16786
912.519	17022
912.633	17003
912.748	16809
912.862	16778
912.976	16626
913.09	16497
913.204	16542
913.318	16649
913.431	16656
913.545	16687
913.659	16752
913.772	16622
913.886	16348
914	16443
914.113	16451
914.226	16531
914.34	16466
914.453	16246
914.566	16348
914.68	16303
914.793	16276
914.906	16059
915.019	16017
915.132	15854
915.245	16036
915.358	16013
915.47	16048
915.583	15911
915.696	16025
915.809	16032
915.921	16109
916.034	15972
916.146	15781
916.259	15854
916.371	15854
916.483	15899
916.595	15846
916.708	15793
916.82	15770
916.932	15705
917.044	15728
917.156	15705
917.268	15549
917.38	15622
917.491	15557
917.603	15618
917.715	15671
917.826	15732
917.938	15580
918.049	15382
918.161	15610
918.272	15686
918.384	15637
918.495	15549
918.606	15386
918.717	15348
918.828	15325
918.939	15325
919.05	15184
919.161	15287
919.272	15127
919.383	15116
919.494	15336
919.604	15492
919.715	15321
919.826	15195
919.936	15241
920.047	15401
920.157	15336
920.267	15469
920.378	15374
920.488	15184
920.598	15431
920.708	15568
920.818	15332
920.928	15313
921.038	15553
921.148	15462
921.258	15188
921.368	15146
921.477	15066
921.587	14948
921.697	14830
921.806	15097
921.916	14872
922.025	14697
922.134	14537
922.244	14571
922.353	14693
922.462	14530
922.571	14476
922.68	14298
922.789	14191
922.898	14278
923.007	14191
923.116	14282
923.224	14290
923.333	14218
923.442	14134
923.55	14153
923.659	14202
923.767	14062
923.876	13997
923.984	14126
924.092	13925
924.201	14065
924.309	13944
924.417	13997
924.525	13902
924.633	13852
924.741	14636
924.849	13753
924.956	13906
925.064	13670
925.172	13597
925.279	13597
925.387	13693
925.494	13689
925.602	13772
925.709	13651
925.816	13491
925.924	13639
926.031	13685
926.138	13719
926.245	13700
926.352	13472
926.459	13662
926.566	13658
926.673	13464
926.779	13293
926.886	13381
926.993	13266
927.099	13145
927.206	13129
927.312	13145
927.419	13164
927.525	13152
927.631	13217
927.737	13084
927.843	13046
927.95	12932
928.056	12897
928.162	13027
928.267	13072
928.373	13510
928.479	13004
928.585	12882
928.69	12924
928.796	13008
928.901	12821
929.007	12772
929.112	12863
929.218	12779
929.323	12776
929.428	12642
929.533	12825
929.638	12593
929.743	12620
929.848	12677
929.953	12692
930.058	12502
930.163	12410
930.267	12391
930.372	12502
930.477	12300
930.581	12555
930.685	12353
930.79	12232
930.894	12292
930.998	12247
931.103	12426
931.207	12038
931.311	11923
931.415	11817
931.519	11596
931.623	11642
