Data from test_V78500241_2749.txt Node
Date: Fri Mar 25 16:00:50 CST 2022
User: usil
Spectrometer: V785-0024
Trigger mode: 0
Integration Time (sec): 4.000000E-1
Scans to average: 1
Nonlinearity correction enabled: false
Boxcar width: 0
Storing dark spectrum: false
XAxis mode: Wavelengths
Number of Pixels in Spectrum: 1024
>>>>>Begin Spectral Data<<<<<
801.071	28706
801.214	28451
801.356	28242
801.499	28466
801.641	28284
801.783	28070
801.926	28177
802.068	28192
802.211	28219
802.353	28036
802.496	27857
802.638	27930
802.78	27873
802.923	27770
803.065	27930
803.208	27857
803.35	27907
803.492	28070
803.635	28017
803.777	27930
803.919	28116
804.061	28356
804.204	28306
804.346	28032
804.488	28112
804.63	28090
804.773	28048
804.915	28226
805.057	28242
805.199	28044
805.341	28082
805.483	28249
805.626	28177
805.768	28090
805.91	28348
806.052	28276
806.194	28162
806.336	28314
806.478	28284
806.62	28204
806.762	28394
806.904	28729
807.046	28831
807.188	28835
807.33	28774
807.472	28740
807.614	28679
807.756	28656
807.898	28687
808.04	28497
808.182	28569
808.324	28626
808.465	28474
808.607	28881
808.749	28797
808.891	29048
809.033	29128
809.174	29003
809.316	28896
809.458	28831
809.6	28805
809.741	28904
809.883	29235
810.025	29174
810.166	29117
810.308	29143
810.45	29083
810.591	29067
810.733	28987
810.875	28892
811.016	28816
811.158	28911
811.299	29102
811.441	29083
811.582	29162
811.724	29083
811.865	28881
812.007	29018
812.148	29052
812.29	29086
812.431	29033
812.573	29368
812.714	29353
812.855	29467
812.997	29657
813.138	29684
813.279	29570
813.421	29505
813.562	29345
813.703	29436
813.845	29044
813.986	28862
814.127	28752
814.268	28706
814.41	28733
814.551	28519
814.692	28835
814.833	28729
814.974	28645
815.115	28679
815.256	28504
815.397	28432
815.539	28653
815.68	28485
815.821	28390
815.962	28626
816.103	28504
816.244	28314
816.385	28215
816.526	28356
816.666	28120
816.807	27998
816.948	28116
817.089	28120
817.23	27880
817.371	27941
817.512	27899
817.653	27926
817.793	27949
817.934	27914
818.075	28021
818.216	28040
818.356	27869
818.497	27671
818.638	27709
818.778	27789
818.919	27770
819.06	27766
819.2	27884
819.341	27895
819.481	27884
819.622	28211
819.762	28352
819.903	28295
820.043	28032
820.184	27975
820.324	28101
820.465	28196
820.605	27972
820.746	27937
820.886	27918
821.026	28074
821.167	28048
821.307	28086
821.447	27968
821.588	27884
821.728	27816
821.868	27755
822.008	27298
822.149	27401
822.289	27458
822.429	27283
822.569	27119
822.709	27138
822.849	26940
822.99	26971
823.13	26842
823.27	26872
823.41	26785
823.55	26564
823.69	26826
823.83	26796
823.97	26735
824.11	26537
824.25	26495
824.389	26594
824.529	26598
824.669	26632
824.809	26697
824.949	26762
825.089	26693
825.228	26674
825.368	26659
825.508	26495
825.648	26492
825.787	26594
825.927	26617
826.067	26480
826.206	26503
826.346	26522
826.485	26549
826.625	26381
826.765	26625
826.904	26583
827.044	26214
827.183	26115
827.323	26157
827.462	26271
827.601	26256
827.741	26199
827.88	26195
828.02	26081
828.159	26122
828.298	26248
828.437	26259
828.577	26187
828.716	26218
828.855	26024
828.994	25906
829.134	25864
829.273	25814
829.412	25864
829.551	25830
829.69	25833
829.829	25921
829.968	25932
830.107	25868
830.246	25936
830.385	25635
830.524	25696
830.663	25635
830.802	25514
830.941	25548
831.08	25377
831.219	25624
831.357	25525
831.496	25807
831.635	25571
831.774	25460
831.913	25346
832.051	25270
832.19	25164
832.329	25236
832.467	25213
832.606	25122
832.744	25171
832.883	25080
833.022	24996
833.16	25122
833.299	25183
833.437	25164
833.576	25293
833.714	25232
833.852	25232
833.991	25240
834.129	25289
834.267	25346
834.406	25145
834.544	25297
834.682	25289
834.821	25301
834.959	25407
835.097	25179
835.235	25194
835.373	25145
835.511	25148
835.65	25202
835.788	25168
835.926	24977
836.064	24909
836.202	24867
836.34	25019
836.478	25168
836.615	24992
836.753	24989
836.891	25198
837.029	24962
837.167	25057
837.305	24981
837.443	24840
837.58	24825
837.718	24985
837.856	24806
837.993	24859
838.131	24859
838.269	24684
838.406	24772
838.544	24707
838.681	24445
838.819	24380
838.956	24323
839.094	24365
839.231	24418
839.369	24414
839.506	24821
839.643	24669
839.781	24247
839.918	24357
840.055	24247
840.193	24159
840.33	24315
840.467	24384
840.604	24323
840.742	24486
840.879	24102
841.016	24205
841.153	24022
841.29	24365
841.427	24270
841.564	24190
841.701	24152
841.838	24152
841.975	24182
842.112	24140
842.249	24041
842.385	23927
842.522	24224
842.659	24102
842.796	23942
842.933	24068
843.069	23942
843.206	24003
843.343	24098
843.479	23958
843.616	23961
843.752	23726
843.889	23619
844.025	23984
844.162	23691
844.298	23802
844.435	23798
844.571	23767
844.708	23737
844.844	23878
844.98	23767
845.117	23874
845.253	23581
845.389	23611
845.525	23661
845.661	23726
845.798	23524
845.934	23497
846.07	23566
846.206	23436
846.342	23661
846.478	23417
846.614	23364
846.75	23239
846.886	23216
847.022	23288
847.158	23288
847.294	23315
847.429	23303
847.565	23212
847.701	23345
847.837	23022
847.972	22987
848.108	22999
848.244	23109
848.379	22915
848.515	22797
848.65	22774
848.786	22831
848.921	22824
849.057	22934
849.192	22850
849.328	22801
849.463	22812
849.598	22752
849.734	22771
849.869	22596
850.004	22634
850.14	22542
850.275	22538
850.41	22497
850.545	22485
850.68	22508
850.815	22493
850.95	22668
851.085	22702
851.22	22588
851.355	22527
851.49	22668
851.625	22577
851.76	22599
851.895	22493
852.03	22417
852.165	22493
852.299	22672
852.434	22694
852.569	22561
852.703	22508
852.838	22508
852.973	22637
853.107	22603
853.242	22481
853.376	22405
853.511	22329
853.645	22417
853.78	22497
853.914	22455
854.048	22497
854.183	22485
854.317	22542
854.451	22630
854.585	22428
854.72	22493
854.854	22557
854.988	22466
855.122	22428
855.256	22238
855.39	22295
855.524	22455
855.658	22367
855.792	22382
855.926	22428
856.06	22363
856.194	22538
856.327	22371
856.461	22432
856.595	22363
856.729	22341
856.862	22432
856.996	22379
857.13	22459
857.263	22531
857.397	22474
857.53	22390
857.664	22474
857.797	22348
857.931	22531
858.064	22440
858.197	22580
858.331	22325
858.464	22348
858.597	22246
858.731	22390
858.864	22352
858.997	22303
859.13	22276
859.263	22405
859.396	22455
859.529	22352
859.662	22462
859.795	22295
859.928	22367
860.061	22580
860.194	22649
860.327	22436
860.46	22455
860.592	22561
860.725	22504
860.858	22409
860.99	22527
861.123	22344
861.256	22459
861.388	22333
861.521	23014
861.653	22246
861.786	22173
861.918	22230
862.05	22215
862.183	22299
862.315	22337
862.447	22306
862.58	22207
862.712	22219
862.844	22086
862.976	22185
863.108	22147
863.24	22565
863.372	22090
863.504	22116
863.636	22086
863.768	22150
863.9	22200
864.032	22097
864.164	22093
864.296	22215
864.428	22257
864.559	22044
864.691	22226
864.823	22162
864.954	22154
865.086	22021
865.217	22040
865.349	22013
865.48	21956
865.612	21998
865.743	22006
865.875	22093
866.006	22017
866.137	21907
866.269	21983
866.4	21964
866.531	21983
866.662	21835
866.793	21903
866.924	22082
867.055	21956
867.186	21941
867.317	21930
867.448	21846
867.579	21861
867.71	21778
867.841	21869
867.972	21975
868.103	21899
868.233	21968
868.364	21930
868.495	21968
868.625	22166
868.756	22219
868.886	22078
869.017	22150
869.147	22166
869.278	22329
869.408	22192
869.539	22131
869.669	22131
869.799	22295
869.929	22166
870.06	22356
870.19	22500
870.32	22462
870.45	22379
870.58	22440
870.71	22660
870.84	22554
870.97	22554
871.1	22538
871.23	22713
871.36	22672
871.489	22691
871.619	22740
871.749	22710
871.879	22649
872.008	22908
872.138	22755
872.267	22809
872.397	22580
872.526	22603
872.656	22607
872.785	22516
872.915	22915
873.044	22831
873.173	22797
873.303	22744
873.432	22790
873.561	22831
873.69	22828
873.819	22835
873.948	22729
874.077	22828
874.206	22740
874.335	22637
874.464	22904
874.593	22915
874.722	22862
874.851	22843
874.979	23033
875.108	23010
875.237	23010
875.365	22953
875.494	22957
875.623	22987
875.751	22965
875.88	23048
876.008	23132
876.136	23178
876.265	23337
876.393	23566
876.521	23402
876.65	23452
876.778	23436
876.906	23406
877.034	23181
877.162	23292
877.29	23223
877.418	23414
877.546	23376
877.674	23341
877.802	23128
877.93	23277
878.058	23307
878.185	23162
878.313	23200
878.441	23220
878.568	23185
878.696	23265
878.824	23440
878.951	23455
879.079	23528
879.206	23611
879.333	23505
879.461	23490
879.588	23303
879.715	23619
879.842	23547
879.97	23330
880.097	23109
880.224	23090
880.351	23166
880.478	23109
880.605	23014
880.732	23056
880.859	23402
880.986	23083
881.112	23083
881.239	23105
881.366	22968
881.493	22828
881.619	22763
881.746	22797
881.872	22839
881.999	22771
882.125	22725
882.252	22596
882.378	22683
882.505	22744
882.631	22550
882.757	22447
882.883	22375
883.01	22322
883.136	22337
883.262	22310
883.388	22268
883.514	22314
883.64	22280
883.766	22185
883.892	22162
884.018	22158
884.143	22249
884.269	22462
884.395	22051
884.52	22029
884.646	22044
884.772	22109
884.897	21747
885.023	22063
885.148	22097
885.274	22101
885.399	21994
885.524	21994
885.65	21975
885.775	22070
885.9	21953
886.025	22090
886.15	22078
886.275	22055
886.4	21926
886.525	21911
886.65	21846
886.775	21945
886.9	22051
887.025	22196
887.149	21934
887.274	21785
887.399	21743
887.523	21793
887.648	21667
887.773	21819
887.897	21781
888.021	21781
888.146	21717
888.27	21922
888.395	21850
888.519	21861
888.643	21941
888.767	22010
888.891	21656
889.015	21515
889.139	21614
889.263	21568
889.387	21641
889.511	21686
889.635	21625
889.759	21618
889.883	21488
890.006	21561
890.13	21759
890.254	21511
890.377	21443
890.501	21275
890.624	21355
890.748	21329
890.871	21226
890.995	21199
891.118	21119
891.241	21131
891.364	21108
891.488	21275
891.611	21135
891.734	21150
891.857	21138
891.98	21226
892.103	21138
892.226	21192
892.349	21077
892.471	20853
892.594	21146
892.717	21028
892.839	21062
892.962	21104
893.085	21020
893.207	21020
893.33	20937
893.452	20941
893.575	21119
893.697	20963
893.819	21142
893.941	21157
894.064	21142
894.186	21051
894.308	20857
894.43	21203
894.552	21096
894.674	21039
894.796	21024
894.918	20952
895.04	20891
895.161	20975
895.283	21032
895.405	20975
895.526	21081
895.648	21036
895.769	21180
895.891	21032
896.012	21138
896.134	21005
896.255	20998
896.376	21020
896.498	20937
896.619	21188
896.74	21036
896.861	21062
896.982	21279
897.103	21561
897.224	21279
897.345	21165
897.466	21161
897.587	21260
897.708	21294
897.828	21283
897.949	21199
898.07	21051
898.19	21055
898.311	21291
898.431	21279
898.552	21116
898.672	21176
898.792	21272
898.913	21207
899.033	21165
899.153	21089
899.273	20933
899.393	20876
899.513	20967
899.633	21119
899.753	20967
899.873	20906
899.993	21043
900.113	20883
900.232	20830
900.352	20796
900.472	20861
900.591	20674
900.711	20670
900.83	20617
900.95	20739
901.069	20830
901.189	20629
901.308	20427
901.427	20229
901.546	20351
901.665	20301
901.784	20183
901.904	20218
902.023	20126
902.141	19906
902.26	19803
902.379	19841
902.498	19685
902.617	19753
902.735	19883
902.854	19772
902.973	19677
903.091	19559
903.21	19502
903.328	19354
903.446	19270
903.565	19285
903.683	19365
903.801	19190
903.919	19228
904.038	19091
904.156	19046
904.274	19065
904.392	18958
904.51	18916
904.627	19065
904.745	18928
904.863	19065
904.981	18760
905.098	18802
905.216	18700
905.334	18608
905.451	18616
905.569	18642
905.686	18715
905.803	18696
905.921	18570
906.038	18658
906.155	18445
906.272	18380
906.389	18521
906.506	18076
906.623	18254
906.74	18201
906.857	18072
906.974	18091
907.091	18232
907.208	18342
907.324	18258
907.441	18072
907.557	17965
907.674	17840
907.79	17901
907.907	17840
908.023	17897
908.139	17885
908.256	17813
908.372	17756
908.488	17832
908.604	17733
908.72	17532
908.836	17642
908.952	17623
909.068	17589
909.184	17828
909.3	17611
909.415	17627
909.531	17501
909.647	17376
909.762	17303
909.878	17337
909.993	17368
910.108	17277
910.224	17212
910.339	17227
910.454	17185
910.57	17025
910.685	17083
910.8	17376
910.915	17216
911.03	17094
911.145	17006
911.259	16850
911.374	16934
911.489	16809
911.604	16763
911.718	16565
911.833	16588
911.947	16599
912.062	16508
912.176	16584
912.291	16603
912.405	16603
912.519	16984
912.633	16927
912.748	16611
912.862	16618
912.976	16459
913.09	16344
913.204	16470
913.318	16436
913.431	16561
913.545	16558
913.659	16577
913.772	16405
913.886	16253
914	16310
914.113	16352
914.226	16371
914.34	16318
914.453	16116
914.566	16181
914.68	16032
914.793	16112
914.906	15903
915.019	15793
915.132	15781
915.245	15785
915.358	15781
915.47	15884
915.583	15895
915.696	15873
915.809	15934
915.921	15873
916.034	15800
916.146	15694
916.259	15671
916.371	15732
916.483	15713
916.595	15610
916.708	15675
916.82	15625
916.932	15511
917.044	15637
917.156	15584
917.268	15374
917.38	15374
917.491	15477
917.603	15363
917.715	15450
917.826	15500
917.938	15382
918.049	15237
918.161	15291
918.272	15462
918.384	15424
918.495	15291
918.606	15207
918.717	15009
918.828	15340
918.939	15233
919.05	15074
919.161	15184
919.272	14937
919.383	14937
919.494	15214
919.604	15348
919.715	15119
919.826	15058
919.936	15062
920.047	15135
920.157	15123
920.267	15272
920.378	15138
920.488	15097
920.598	15329
920.708	15523
920.818	15367
920.928	15230
921.038	15431
921.148	15378
921.258	15104
921.368	15032
921.477	14807
921.587	14845
921.697	14705
921.806	14857
921.916	14670
922.025	14625
922.134	14461
922.244	14427
922.353	14492
922.462	14313
922.571	14282
922.68	14202
922.789	14168
922.898	14180
923.007	14039
923.116	14123
923.224	14153
923.333	14096
923.442	13967
923.55	13936
923.659	13913
923.767	14005
923.876	13982
923.984	14008
924.092	13814
924.201	13898
924.309	13890
924.417	13826
924.525	13814
924.633	13807
924.741	14617
924.849	13594
924.956	13769
925.064	13594
925.172	13483
925.279	13487
925.387	13544
925.494	13540
925.602	13613
925.709	13506
925.816	13483
925.924	13426
926.031	13590
926.138	13430
926.245	13575
926.352	13381
926.459	13464
926.566	13556
926.673	13426
926.779	13187
926.886	13263
926.993	13137
927.099	13175
927.206	12989
927.312	13027
927.419	13046
927.525	13027
927.631	13046
927.737	12985
927.843	12844
927.95	12821
928.056	12844
928.162	12825
928.267	12913
928.373	13506
928.479	12897
928.585	12749
928.69	12783
928.796	12859
928.901	12768
929.007	12597
929.112	12719
929.218	12681
929.323	12566
929.428	12585
929.533	12776
929.638	12551
929.743	12540
929.848	12551
929.953	12517
930.058	12460
930.163	12213
930.267	12311
930.372	12350
930.477	12136
930.581	12578
930.685	12365
930.79	12117
930.894	12136
930.998	12079
931.103	12228
931.207	11809
931.311	11805
931.415	11756
931.519	11558
931.623	11417
