Data from test_V78500241_1391.txt Node
Date: Fri Mar 25 15:51:26 CST 2022
User: usil
Spectrometer: V785-0024
Trigger mode: 0
Integration Time (sec): 4.000000E-1
Scans to average: 1
Nonlinearity correction enabled: false
Boxcar width: 0
Storing dark spectrum: false
XAxis mode: Wavelengths
Number of Pixels in Spectrum: 1024
>>>>>Begin Spectral Data<<<<<
801.071	28040
801.214	27994
801.356	27838
801.499	27713
801.641	27603
801.783	27709
801.926	27698
802.068	27614
802.211	27660
802.353	27534
802.496	27439
802.638	27340
802.78	27199
802.923	27214
803.065	27256
803.208	27211
803.35	27237
803.492	27511
803.635	27481
803.777	27389
803.919	27416
804.061	27835
804.204	27504
804.346	27500
804.488	27363
804.63	27466
804.773	27416
804.915	27488
805.057	27629
805.199	27568
805.341	27622
805.483	27641
805.626	27614
805.768	27523
805.91	27656
806.052	27675
806.194	27488
806.336	27793
806.478	27660
806.62	27599
806.762	27751
806.904	27759
807.046	28128
807.188	28032
807.33	28036
807.472	28067
807.614	28090
807.756	28082
807.898	27991
808.04	27838
808.182	27937
808.324	27975
808.465	27926
808.607	28128
808.749	28257
808.891	28333
809.033	28390
809.174	28246
809.316	28246
809.458	28242
809.6	28223
809.741	28310
809.883	28489
810.025	28565
810.166	28679
810.308	28554
810.45	28493
810.591	28504
810.733	28413
810.875	28246
811.016	28143
811.158	28230
811.299	28181
811.441	28466
811.582	28424
811.724	28249
811.865	28303
812.007	28249
812.148	28333
812.29	28394
812.431	28428
812.573	28577
812.714	28698
812.855	28717
812.997	28946
813.138	29083
813.279	28866
813.421	28839
813.562	28653
813.703	28577
813.845	28405
813.986	28371
814.127	28109
814.268	27998
814.41	28010
814.551	28059
814.692	27884
814.833	27892
814.974	28074
815.115	27850
815.256	27778
815.397	27713
815.539	27842
815.68	27686
815.821	27770
815.962	27838
816.103	27690
816.244	27618
816.385	27534
816.526	27454
816.666	27355
816.807	27108
816.948	27313
817.089	27443
817.23	27325
817.371	27405
817.512	27431
817.653	27233
817.793	27116
817.934	27325
818.075	27218
818.216	27405
818.356	27214
818.497	27077
818.638	26967
818.778	27013
818.919	27123
819.06	27089
819.2	27184
819.341	27260
819.481	27154
819.622	27496
819.762	27564
819.903	27523
820.043	27447
820.184	27447
820.324	27336
820.465	27477
820.605	27443
820.746	27378
820.886	27169
821.026	27477
821.167	27268
821.307	27466
821.447	27363
821.588	27214
821.728	27051
821.868	26906
822.008	26693
822.149	26785
822.289	26826
822.429	26400
822.569	26461
822.709	26575
822.849	26313
822.99	26263
823.13	26362
823.27	26221
823.41	26073
823.55	25917
823.69	26081
823.83	26130
823.97	26031
824.11	25875
824.25	25860
824.389	25879
824.529	26031
824.669	25925
824.809	26111
824.949	25982
825.089	26008
825.228	25921
825.368	25883
825.508	25723
825.648	25712
825.787	25807
825.927	25951
826.067	25909
826.206	25765
826.346	25890
826.485	25898
826.625	25757
826.765	25925
826.904	25814
827.044	25548
827.183	25613
827.323	25411
827.462	25438
827.601	25415
827.741	25381
827.88	25609
828.02	25388
828.159	25601
828.298	25491
828.437	25639
828.577	25510
828.716	25529
828.855	25445
828.994	25206
829.134	25129
829.273	25099
829.412	25118
829.551	25217
829.69	25175
829.829	25217
829.968	25308
830.107	25282
830.246	25217
830.385	25137
830.524	25145
830.663	24894
830.802	24837
830.941	24741
831.08	24635
831.219	24844
831.357	24894
831.496	24939
831.635	24787
831.774	24669
831.913	24642
832.051	24616
832.19	24585
832.329	24604
832.467	24532
832.606	24414
832.744	24403
832.883	24426
833.022	24464
833.16	24289
833.299	24441
833.437	24471
833.576	24559
833.714	24669
833.852	24608
833.991	24684
834.129	24658
834.267	24593
834.406	24532
834.544	24536
834.682	24540
834.821	24407
834.959	24654
835.097	24342
835.235	24502
835.373	24414
835.511	24414
835.65	24342
835.788	24384
835.926	24243
836.064	24197
836.202	24098
836.34	24281
836.478	24422
836.615	24224
836.753	24467
836.891	24429
837.029	24414
837.167	24262
837.305	24277
837.443	24247
837.58	24235
837.718	24235
837.856	24220
837.993	24235
838.131	24247
838.269	24129
838.406	24026
838.544	24167
838.681	23805
838.819	23821
838.956	23661
839.094	23501
839.231	23649
839.369	23847
839.506	24057
839.643	23946
839.781	23535
839.918	23558
840.055	23573
840.193	23566
840.33	23459
840.467	23684
840.604	23558
840.742	23813
840.879	23299
841.016	23592
841.153	23471
841.29	23672
841.427	23615
841.564	23672
841.701	23600
841.838	23509
841.975	23326
842.112	23391
842.249	23364
842.385	23383
842.522	23573
842.659	23440
842.796	23265
842.933	23425
843.069	23254
843.206	23280
843.343	23436
843.479	23242
843.616	23185
843.752	23166
843.889	23140
844.025	23208
844.162	23067
844.298	23269
844.435	23147
844.571	23033
844.708	23086
844.844	23223
844.98	23265
845.117	23193
845.253	23052
845.389	23010
845.525	23064
845.661	22831
845.798	22816
845.934	22812
846.07	22831
846.206	22847
846.342	23025
846.478	22809
846.614	22660
846.75	22497
846.886	22618
847.022	22607
847.158	22523
847.294	22584
847.429	22523
847.565	22440
847.701	22691
847.837	22238
847.972	22272
848.108	22390
848.244	22284
848.379	22097
848.515	22158
848.65	22044
848.786	22185
848.921	22135
849.057	22223
849.192	22173
849.328	22257
849.463	22124
849.598	21994
849.734	22109
849.869	22025
850.004	21937
850.14	22032
850.275	22032
850.41	21880
850.545	21846
850.68	21865
850.815	21941
850.95	21972
851.085	22150
851.22	21941
851.355	21972
851.49	21846
851.625	21960
851.76	21899
851.895	21762
852.03	21823
852.165	21861
852.299	21964
852.434	22040
852.569	21956
852.703	21922
852.838	21941
852.973	21987
853.107	21987
853.242	21895
853.376	21690
853.511	21622
853.645	21739
853.78	21831
853.914	21705
854.048	21690
854.183	21736
854.317	21709
854.451	21972
854.585	21759
854.72	21690
854.854	21835
854.988	21751
855.122	21701
855.256	21629
855.39	21751
855.524	21838
855.658	21736
855.792	21675
855.926	21698
856.06	21610
856.194	21762
856.327	21644
856.461	21679
856.595	21648
856.729	21854
856.862	21838
856.996	21732
857.13	21888
857.263	21816
857.397	21663
857.53	21793
857.664	21819
857.797	21823
857.931	21827
858.064	21800
858.197	21895
858.331	21690
858.464	21644
858.597	21667
858.731	21561
858.864	21747
858.997	21599
859.13	21698
859.263	21770
859.396	21812
859.529	21751
859.662	21736
859.795	21827
859.928	21793
860.061	21983
860.194	21922
860.327	21831
860.46	21800
860.592	21797
860.725	21861
860.858	21873
860.99	21629
861.123	21595
861.256	21652
861.388	21766
861.521	22402
861.653	21618
861.786	21534
861.918	21530
862.05	21736
862.183	21652
862.315	21728
862.447	21637
862.58	21663
862.712	21583
862.844	21443
862.976	21500
863.108	21424
863.24	21907
863.372	21458
863.504	21428
863.636	21382
863.768	21564
863.9	21500
864.032	21469
864.164	21473
864.296	21408
864.428	21576
864.559	21504
864.691	21428
864.823	21530
864.954	21450
865.086	21386
865.217	21355
865.349	21230
865.48	21344
865.612	21294
865.743	21500
865.875	21389
866.006	21302
866.137	21310
866.269	21382
866.4	21207
866.531	21272
866.662	21165
866.793	21233
866.924	21313
867.055	21287
867.186	21351
867.317	21321
867.448	21214
867.579	21317
867.71	21222
867.841	21051
867.972	21469
868.103	21294
868.233	21279
868.364	21249
868.495	21363
868.625	21488
868.756	21637
868.886	21386
869.017	21439
869.147	21679
869.278	21614
869.408	21511
869.539	21580
869.669	21606
869.799	21644
869.929	21580
870.06	21648
870.19	21873
870.32	21903
870.45	21972
870.58	21998
870.71	21949
870.84	22040
870.97	21968
871.1	21819
871.23	22150
871.36	22109
871.489	21876
871.619	21972
871.749	22002
871.879	22158
872.008	22067
872.138	22082
872.267	22135
872.397	21949
872.526	21949
872.656	22013
872.785	22044
872.915	22147
873.044	22257
873.173	22128
873.303	22177
873.432	22147
873.561	22207
873.69	22150
873.819	22032
873.948	22192
874.077	22276
874.206	22074
874.335	22044
874.464	22276
874.593	22242
874.722	22318
874.851	22329
874.979	22375
875.108	22489
875.237	22303
875.365	22169
875.494	22329
875.623	22322
875.751	22192
875.88	22382
876.008	22603
876.136	22607
876.265	22755
876.393	22805
876.521	22763
876.65	22820
876.778	22725
876.906	22729
877.034	22615
877.162	22713
877.29	22767
877.418	22660
877.546	22687
877.674	22683
877.802	22649
877.93	22706
878.058	22626
878.185	22512
878.313	22580
878.441	22630
878.568	22447
878.696	22664
878.824	22748
878.951	22797
879.079	22881
879.206	22911
879.333	22790
879.461	22740
879.588	22767
879.715	22793
879.842	22953
879.97	22820
880.097	22641
880.224	22557
880.351	22493
880.478	22668
880.605	22367
880.732	22489
880.859	22740
880.986	22436
881.112	22466
881.239	22375
881.366	22181
881.493	22204
881.619	22082
881.746	22101
881.872	22101
881.999	22059
882.125	22010
882.252	22249
882.378	22025
882.505	22276
882.631	21930
882.757	21686
882.883	21956
883.01	21720
883.136	21774
883.262	21663
883.388	21728
883.514	21778
883.64	21743
883.766	21641
883.892	21629
884.018	21618
884.143	21755
884.269	21705
884.395	21504
884.52	21279
884.646	21420
884.772	21370
884.897	21344
885.023	21393
885.148	21496
885.274	21561
885.399	21568
885.524	21348
885.65	21412
885.775	21374
885.9	21435
886.025	21496
886.15	21526
886.275	21428
886.4	21283
886.525	21481
886.65	21329
886.775	21283
886.9	21408
887.025	21599
887.149	21424
887.274	21184
887.399	21165
887.523	21245
887.648	21081
887.773	21093
887.897	21211
888.021	21207
888.146	21104
888.27	21351
888.395	21245
888.519	21192
888.643	21268
888.767	21173
888.891	21062
889.015	21024
889.139	21017
889.263	20963
889.387	21100
889.511	21367
889.635	21005
889.759	21074
889.883	21093
890.006	21013
890.13	21093
890.254	20853
890.377	20960
890.501	20739
890.624	20674
890.748	20804
890.871	20495
890.995	20545
891.118	20473
891.241	20541
891.364	20518
891.488	20625
891.611	20655
891.734	20442
891.857	20697
891.98	20629
892.103	20640
892.226	20667
892.349	20480
892.471	20446
892.594	20408
892.717	20571
892.839	20594
892.962	20404
893.085	20583
893.207	20457
893.33	20317
893.452	20370
893.575	20511
893.697	20454
893.819	20571
893.941	20701
894.064	20571
894.186	20473
894.308	20461
894.43	20495
894.552	20613
894.674	20583
894.796	20438
894.918	20328
895.04	20358
895.161	20507
895.283	20587
895.405	20336
895.526	20530
895.648	20408
895.769	20575
895.891	20556
896.012	20473
896.134	20499
896.255	20423
896.376	20533
896.498	20518
896.619	20461
896.74	20457
896.861	20530
896.982	20857
897.103	20925
897.224	20727
897.345	20765
897.466	20655
897.587	20644
897.708	20708
897.828	20651
897.949	20689
898.07	20545
898.19	20773
898.311	20750
898.431	20598
898.552	20765
898.672	20716
898.792	20872
898.913	20762
899.033	20530
899.153	20377
899.273	20454
899.393	20526
899.513	20484
899.633	20526
899.753	20385
899.873	20355
899.993	20537
900.113	20313
900.232	20438
900.352	20286
900.472	20252
900.591	20180
900.711	20164
900.83	20157
900.95	20343
901.069	20343
901.189	20084
901.308	19913
901.427	19757
901.546	19761
901.665	19746
901.784	19734
901.904	19632
902.023	19400
902.141	19377
902.26	19346
902.379	19411
902.498	19316
902.617	19301
902.735	19301
902.854	19255
902.973	19152
903.091	18947
903.21	18951
903.328	18920
903.446	18772
903.565	18719
903.683	18821
903.801	18703
903.919	18753
904.038	18772
904.156	18540
904.274	18757
904.392	18521
904.51	18467
904.627	18479
904.745	18604
904.863	18502
904.981	18304
905.098	18235
905.216	18205
905.334	18285
905.451	18281
905.569	18148
905.686	18178
905.803	18235
905.921	17908
906.038	18087
906.155	17961
906.272	17863
906.389	17878
906.506	17714
906.623	17821
906.74	17691
906.857	17619
906.974	17657
907.091	17710
907.208	17866
907.324	17695
907.441	17501
907.557	17596
907.674	17509
907.79	17296
907.907	17383
908.023	17349
908.139	17330
908.256	17242
908.372	17315
908.488	17246
908.604	17239
908.72	17174
908.836	17166
908.952	17132
909.068	17162
909.184	17216
909.3	17132
909.415	17147
909.531	17258
909.647	16877
909.762	16873
909.878	16980
909.993	16858
910.108	16824
910.224	16831
910.339	16790
910.454	16744
910.57	16725
910.685	16550
910.8	16908
910.915	16790
911.03	16653
911.145	16637
911.259	16497
911.374	16481
911.489	16402
911.604	16325
911.718	16215
911.833	16249
911.947	16105
912.062	16055
912.176	16253
912.291	16257
912.405	16154
912.519	16382
912.633	16276
912.748	16249
912.862	16234
912.976	16032
913.09	15869
913.204	15922
913.318	16074
913.431	16154
913.545	15998
913.659	16036
913.772	15903
913.886	15804
914	15778
914.113	15911
914.226	15911
914.34	15850
914.453	15694
914.566	15793
914.68	15755
914.793	15652
914.906	15466
915.019	15431
915.132	15245
915.245	15447
915.358	15408
915.47	15408
915.583	15348
915.696	15488
915.809	15504
915.921	15526
916.034	15298
916.146	15192
916.259	15252
916.371	15313
916.483	15393
916.595	15260
916.708	15188
916.82	15127
916.932	15165
917.044	15203
917.156	15218
917.268	14986
917.38	15119
917.491	15020
917.603	15036
917.715	15116
917.826	15108
917.938	14929
918.049	14834
918.161	15032
918.272	15085
918.384	14986
918.495	15009
918.606	14895
918.717	14792
918.828	14830
918.939	14967
919.05	14716
919.161	14762
919.272	14579
919.383	14613
919.494	14773
919.604	15093
919.715	14861
919.826	14594
919.936	14610
920.047	14758
920.157	14705
920.267	14986
920.378	14788
920.488	14689
920.598	14845
920.708	15036
920.818	14933
920.928	14868
921.038	14971
921.148	14864
921.258	14765
921.368	14590
921.477	14552
921.587	14488
921.697	14301
921.806	14427
921.916	14320
922.025	14221
922.134	14172
922.244	14107
922.353	14256
922.462	13951
922.571	13947
922.68	13757
922.789	13856
922.898	13761
923.007	13795
923.116	13795
923.224	13723
923.333	13753
923.442	13651
923.55	13571
923.659	13609
923.767	13616
923.876	13495
923.984	13563
924.092	13460
924.201	13624
924.309	13480
924.417	13575
924.525	13426
924.633	13362
924.741	14233
924.849	13202
924.956	13293
925.064	13187
925.172	13122
925.279	13133
925.387	13198
925.494	13209
925.602	13209
925.709	13187
925.816	13168
925.924	13072
926.031	13255
926.138	13091
926.245	13103
926.352	12989
926.459	13141
926.566	13168
926.673	13023
926.779	12867
926.886	12890
926.993	12719
927.099	12711
927.206	12642
927.312	12616
927.419	12760
927.525	12757
927.631	12757
927.737	12612
927.843	12544
927.95	12498
928.056	12486
928.162	12631
928.267	12665
928.373	13156
928.479	12521
928.585	12361
928.69	12490
928.796	12498
928.901	12388
929.007	12330
929.112	12338
929.218	12330
929.323	12277
929.428	12262
929.533	12350
929.638	12235
929.743	12205
929.848	12228
929.953	12197
930.058	12091
930.163	11855
930.267	11977
930.372	12019
930.477	11939
930.581	12175
930.685	12015
930.79	11794
930.894	11882
930.998	11836
931.103	11916
931.207	11589
931.311	11512
931.415	11433
931.519	11201
931.623	11132
