Data from test_V78500241_3120.txt Node
Date: Fri Mar 25 16:03:24 CST 2022
User: usil
Spectrometer: V785-0024
Trigger mode: 0
Integration Time (sec): 4.000000E-1
Scans to average: 1
Nonlinearity correction enabled: false
Boxcar width: 0
Storing dark spectrum: false
XAxis mode: Wavelengths
Number of Pixels in Spectrum: 1024
>>>>>Begin Spectral Data<<<<<
801.071	28820
801.214	28858
801.356	28611
801.499	28485
801.641	28409
801.783	28398
801.926	28443
802.068	28474
802.211	28489
802.353	28474
802.496	28162
802.638	28109
802.78	28261
802.923	28109
803.065	28177
803.208	27983
803.35	28169
803.492	28325
803.635	28322
803.777	28284
803.919	28333
804.061	28755
804.204	28417
804.346	28265
804.488	28348
804.63	28436
804.773	28322
804.915	28398
805.057	28542
805.199	28554
805.341	28672
805.483	28398
805.626	28550
805.768	28542
805.91	28577
806.052	28531
806.194	28531
806.336	28786
806.478	28596
806.62	28481
806.762	28698
806.904	28820
807.046	29056
807.188	28957
807.33	28908
807.472	29060
807.614	28961
807.756	28957
807.898	28725
808.04	28793
808.182	28831
808.324	28923
808.465	28991
808.607	29075
808.749	29318
808.891	29299
809.033	29391
809.174	29349
809.316	29299
809.458	29181
809.6	29216
809.741	29433
809.883	29459
810.025	29619
810.166	29433
810.308	29535
810.45	29524
810.591	29474
810.733	29353
810.875	29227
811.016	29284
811.158	29174
811.299	29375
811.441	29505
811.582	29417
811.724	29189
811.865	29151
812.007	29368
812.148	29341
812.29	29261
812.431	29421
812.573	29798
812.714	29767
812.855	29779
812.997	29885
813.138	30117
813.279	29965
813.421	29912
813.562	29657
813.703	29638
813.845	29410
813.986	29345
814.127	29124
814.268	29064
814.41	28987
814.551	28873
814.692	29174
814.833	28904
814.974	28923
815.115	29037
815.256	28938
815.397	28927
815.539	28858
815.68	28915
815.821	28809
815.962	28908
816.103	28744
816.244	28634
816.385	28599
816.526	28561
816.666	28367
816.807	28287
816.948	28451
817.089	28352
817.23	28363
817.371	28310
817.512	28265
817.653	28230
817.793	28352
817.934	28390
818.075	28246
818.216	28265
818.356	28276
818.497	28196
818.638	28097
818.778	28048
818.919	28196
819.06	28074
819.2	28246
819.341	28219
819.481	28386
819.622	28546
819.762	28706
819.903	28531
820.043	28447
820.184	28447
820.324	28489
820.465	28580
820.605	28424
820.746	28428
820.886	28268
821.026	28257
821.167	28436
821.307	28527
821.447	28230
821.588	28139
821.728	28226
821.868	27918
822.008	27846
822.149	27812
822.289	27816
822.429	27447
822.569	27469
822.709	27424
822.849	27279
822.99	27412
823.13	27294
823.27	27298
823.41	27249
823.55	27024
823.69	27119
823.83	27199
823.97	27180
824.11	27032
824.25	26891
824.389	26876
824.529	27051
824.669	27043
824.809	27036
824.949	27100
825.089	27055
825.228	27039
825.368	26902
825.508	26834
825.648	26857
825.787	26982
825.927	26883
826.067	26899
826.206	26857
826.346	26906
826.485	26868
826.625	26940
826.765	27157
826.904	26986
827.044	26545
827.183	26606
827.323	26583
827.462	26674
827.601	26708
827.741	26518
827.88	26648
828.02	26556
828.159	26427
828.298	26598
828.437	26720
828.577	26518
828.716	26450
828.855	26434
828.994	26286
829.134	26377
829.273	26305
829.412	26301
829.551	26233
829.69	26267
829.829	26294
829.968	26351
830.107	26336
830.246	26206
830.385	26119
830.524	26168
830.663	26126
830.802	26024
830.941	25871
831.08	26012
831.219	25921
831.357	25902
831.496	26054
831.635	25856
831.774	25715
831.913	25670
832.051	25811
832.19	25708
832.329	25662
832.467	25521
832.606	25609
832.744	25537
832.883	25525
833.022	25483
833.16	25540
833.299	25609
833.437	25537
833.576	25639
833.714	25605
833.852	25658
833.991	25712
834.129	25666
834.267	25582
834.406	25533
834.544	25643
834.682	25521
834.821	25571
834.959	25788
835.097	25734
835.235	25712
835.373	25628
835.511	25537
835.65	25506
835.788	25460
835.926	25251
836.064	25213
836.202	25304
836.34	25544
836.478	25609
836.615	25415
836.753	25510
836.891	25537
837.029	25525
837.167	25289
837.305	25339
837.443	25263
837.58	25381
837.718	25419
837.856	25327
837.993	25152
838.131	25148
838.269	25061
838.406	25194
838.544	25034
838.681	24821
838.819	24848
838.956	24783
839.094	24833
839.231	24707
839.369	24985
839.506	25217
839.643	25050
839.781	24745
839.918	24616
840.055	24798
840.193	24726
840.33	24563
840.467	24525
840.604	24658
840.742	24867
840.879	24464
841.016	24464
841.153	24452
841.29	24650
841.427	24559
841.564	24673
841.701	24681
841.838	24669
841.975	24464
842.112	24582
842.249	24486
842.385	24464
842.522	24604
842.659	24426
842.796	24403
842.933	24422
843.069	24452
843.206	24338
843.343	24513
843.479	24448
843.616	24353
843.752	24140
843.889	24148
844.025	24281
844.162	24136
844.298	24114
844.435	24232
844.571	24133
844.708	24228
844.844	24232
844.98	24315
845.117	24228
845.253	24182
845.389	24003
845.525	23996
845.661	24060
845.798	23912
845.934	23942
846.07	23866
846.206	23764
846.342	23893
846.478	23836
846.614	23539
846.75	23589
846.886	23695
847.022	23627
847.158	23608
847.294	23630
847.429	23604
847.565	23687
847.701	23809
847.837	23433
847.972	23429
848.108	23353
848.244	23402
848.379	23200
848.515	23155
848.65	23162
848.786	23132
848.921	23170
849.057	23345
849.192	23261
849.328	23265
849.463	23204
849.598	23189
849.734	23143
849.869	23064
850.004	22866
850.14	22953
850.275	22919
850.41	22854
850.545	23018
850.68	22843
850.815	23113
850.95	22946
851.085	23113
851.22	23037
851.355	22965
851.49	22984
851.625	22904
851.76	22820
851.895	22965
852.03	22793
852.165	22911
852.299	23117
852.434	22980
852.569	23109
852.703	22961
852.838	23083
852.973	23220
853.107	23033
853.242	22938
853.376	22824
853.511	22740
853.645	22778
853.78	22778
853.914	22858
854.048	22778
854.183	22774
854.317	22877
854.451	22980
854.585	22835
854.72	22835
854.854	22858
854.988	22710
855.122	22812
855.256	22660
855.39	22763
855.524	22930
855.658	22771
855.792	22816
855.926	22793
856.06	22847
856.194	22858
856.327	22771
856.461	22679
856.595	22725
856.729	22767
856.862	22877
856.996	22847
857.13	22778
857.263	22908
857.397	22805
857.53	22866
857.664	22892
857.797	22786
857.931	22889
858.064	22812
858.197	22869
858.331	22744
858.464	22706
858.597	22637
858.731	22687
858.864	22839
858.997	22816
859.13	22755
859.263	22664
859.396	22915
859.529	22702
859.662	22691
859.795	22607
859.928	22717
860.061	22934
860.194	22919
860.327	22919
860.46	22786
860.592	22850
860.725	22938
860.858	22995
860.99	22679
861.123	22797
861.256	22653
861.388	22740
861.521	23307
861.653	22668
861.786	22504
861.918	22531
862.05	22755
862.183	22713
862.315	22717
862.447	22908
862.58	22618
862.712	22618
862.844	22333
862.976	22577
863.108	22451
863.24	22904
863.372	22405
863.504	22447
863.636	22421
863.768	22580
863.9	22443
864.032	22538
864.164	22382
864.296	22565
864.428	22489
864.559	22565
864.691	22580
864.823	22478
864.954	22386
865.086	22459
865.217	22341
865.349	22306
865.48	22402
865.612	22413
865.743	22413
865.875	22367
866.006	22242
866.137	22344
866.269	22447
866.4	22356
866.531	22257
866.662	22230
866.793	22344
866.924	22246
867.055	22485
867.186	22504
867.317	22344
867.448	22200
867.579	22356
867.71	22162
867.841	22246
867.972	22215
868.103	22356
868.233	22314
868.364	22230
868.495	22352
868.625	22508
868.756	22660
868.886	22504
869.017	22432
869.147	22641
869.278	22500
869.408	22565
869.539	22500
869.669	22565
869.799	22584
869.929	22588
870.06	22554
870.19	22816
870.32	22919
870.45	23003
870.58	23018
870.71	23056
870.84	23105
870.97	22930
871.1	22911
871.23	23227
871.36	23064
871.489	23014
871.619	23044
871.749	23090
871.879	23166
872.008	23265
872.138	23147
872.267	23242
872.397	23071
872.526	22968
872.656	22991
872.785	22942
872.915	23098
873.044	23166
873.173	23166
873.303	23200
873.432	23147
873.561	23155
873.69	23147
873.819	23067
873.948	23197
874.077	23090
874.206	23056
874.335	23178
874.464	23231
874.593	23280
874.722	23296
874.851	23417
874.979	23444
875.108	23387
875.237	23368
875.365	23356
875.494	23284
875.623	23471
875.751	23353
875.88	23303
876.008	23478
876.136	23589
876.265	23767
876.393	24038
876.521	23824
876.65	23794
876.778	23745
876.906	23623
877.034	23786
877.162	23611
877.29	23638
877.418	23714
877.546	23653
877.674	23703
877.802	23745
877.93	23600
878.058	23729
878.185	23661
878.313	23775
878.441	23665
878.568	23543
878.696	23684
878.824	23855
878.951	23741
879.079	23946
879.206	23984
879.333	23813
879.461	23699
879.588	23923
879.715	23764
879.842	23961
879.97	23863
880.097	23657
880.224	23486
880.351	23589
880.478	23562
880.605	23455
880.732	23490
880.859	23733
880.986	23452
881.112	23372
881.239	23345
881.366	23349
881.493	23124
881.619	23220
881.746	23117
881.872	23014
881.999	22999
882.125	22949
882.252	23193
882.378	23006
882.505	23105
882.631	22835
882.757	22858
882.883	22843
883.01	22877
883.136	22782
883.262	22596
883.388	22577
883.514	22611
883.64	22805
883.766	22634
883.892	22660
884.018	22577
884.143	22626
884.269	22805
884.395	22546
884.52	22428
884.646	22470
884.772	22284
884.897	22173
885.023	22421
885.148	22394
885.274	22573
885.399	22489
885.524	22333
885.65	22299
885.775	22504
885.9	22363
886.025	22557
886.15	22466
886.275	22303
886.4	22295
886.525	22314
886.65	22173
886.775	22318
886.9	22474
887.025	22535
887.149	22405
887.274	22131
887.399	22185
887.523	22150
887.648	22090
887.773	22036
887.897	22154
888.021	22036
888.146	22044
888.27	22188
888.395	22162
888.519	22135
888.643	22063
888.767	22131
888.891	22048
889.015	21937
889.139	21998
889.263	21800
889.387	22059
889.511	22192
889.635	22013
889.759	21850
889.883	21846
890.006	21934
890.13	22029
890.254	21838
890.377	21857
890.501	21530
890.624	21610
890.748	21625
890.871	21462
890.995	21515
891.118	21408
891.241	21458
891.364	21500
891.488	21717
891.611	21492
891.734	21526
891.857	21591
891.98	21542
892.103	21549
892.226	21393
892.349	21507
892.471	21302
892.594	21382
892.717	21462
892.839	21466
892.962	21367
893.085	21405
893.207	21336
893.33	21233
893.452	21374
893.575	21405
893.697	21252
893.819	21450
893.941	21515
894.064	21504
894.186	21351
894.308	21279
894.43	21393
894.552	21473
894.674	21325
894.796	21325
894.918	21294
895.04	21420
895.161	21443
895.283	21389
895.405	21363
895.526	21405
895.648	21355
895.769	21447
895.891	21458
896.012	21488
896.134	21386
896.255	21397
896.376	21302
896.498	21317
896.619	21431
896.74	21435
896.861	21462
896.982	21618
897.103	21770
897.224	21538
897.345	21610
897.466	21583
897.587	21599
897.708	21625
897.828	21587
897.949	21435
898.07	21511
898.19	21625
898.311	21603
898.431	21431
898.552	21583
898.672	21709
898.792	21549
898.913	21462
899.033	21386
899.153	21332
899.273	21237
899.393	21272
899.513	21329
899.633	21211
899.753	21355
899.873	21237
899.993	21226
900.113	21233
900.232	21336
900.352	21252
900.472	21058
900.591	21001
900.711	21112
900.83	20963
900.95	21188
901.069	21230
901.189	20933
901.308	20682
901.427	20564
901.546	20663
901.665	20716
901.784	20537
901.904	20522
902.023	20332
902.141	20176
902.26	20202
902.379	20206
902.498	20271
902.617	20058
902.735	20164
902.854	20065
902.973	20084
903.091	19807
903.21	19913
903.328	19719
903.446	19715
903.565	19594
903.683	19601
903.801	19552
903.919	19525
904.038	19476
904.156	19362
904.274	19358
904.392	19324
904.51	19362
904.627	19324
904.745	19331
904.863	19457
904.981	19209
905.098	18958
905.216	18932
905.334	19042
905.451	19148
905.569	18890
905.686	18993
905.803	18882
905.921	18745
906.038	18825
906.155	18757
906.272	18650
906.389	18707
906.506	18509
906.623	18608
906.74	18616
906.857	18475
906.974	18338
907.091	18582
907.208	18593
907.324	18551
907.441	18357
907.557	18273
907.674	18342
907.79	18110
907.907	18216
908.023	18133
908.139	18243
908.256	18140
908.372	18121
908.488	18102
908.604	17935
908.72	18019
908.836	17923
908.952	17859
909.068	17863
909.184	18076
909.3	17882
909.415	17942
909.531	17908
909.647	17684
909.762	17687
909.878	17604
909.993	17592
910.108	17535
910.224	17501
910.339	17497
910.454	17421
910.57	17387
910.685	17436
910.8	17573
910.915	17695
911.03	17410
911.145	17151
911.259	17155
911.374	17105
911.489	17117
911.604	17060
911.718	16946
911.833	17006
911.947	16805
912.062	16763
912.176	17006
912.291	16923
912.405	16873
912.519	17159
912.633	17143
912.748	17052
912.862	16889
912.976	16824
913.09	16672
913.204	16702
913.318	16774
913.431	16771
913.545	16805
913.659	16839
913.772	16729
913.886	16603
914	16599
914.113	16672
914.226	16653
914.34	16592
914.453	16413
914.566	16637
914.68	16386
914.793	16394
914.906	16169
915.019	16169
915.132	16059
915.245	16051
915.358	16223
915.47	16139
915.583	16215
915.696	16074
915.809	16204
915.921	16200
916.034	15964
916.146	16059
916.259	16093
916.371	15979
916.483	15949
916.595	15918
916.708	15975
916.82	15888
916.932	15903
917.044	15888
917.156	15804
917.268	15698
917.38	15648
917.491	15606
917.603	15755
917.715	15713
917.826	15808
917.938	15717
918.049	15515
918.161	15595
918.272	15823
918.384	15789
918.495	15648
918.606	15568
918.717	15374
918.828	15431
918.939	15485
919.05	15306
919.161	15405
919.272	15302
919.383	15325
919.494	15469
919.604	15625
919.715	15435
919.826	15382
919.936	15374
920.047	15511
920.157	15477
920.267	15576
920.378	15405
920.488	15378
920.598	15641
920.708	15698
920.818	15542
920.928	15481
921.038	15755
921.148	15682
921.258	15294
921.368	15298
921.477	15123
921.587	15138
921.697	14971
921.806	15127
921.916	14937
922.025	14842
922.134	14750
922.244	14727
922.353	14762
922.462	14720
922.571	14598
922.68	14385
922.789	14419
922.898	14320
923.007	14396
923.116	14446
923.224	14396
923.333	14301
923.442	14305
923.55	14138
923.659	14195
923.767	14271
923.876	14309
923.984	14229
924.092	14126
924.201	14172
924.309	14039
924.417	14027
924.525	14092
924.633	14039
924.741	14849
924.849	13887
924.956	13913
925.064	13799
925.172	13700
925.279	13742
925.387	13681
925.494	13780
925.602	13795
925.709	13807
925.816	13601
925.924	13693
926.031	13822
926.138	13704
926.245	13761
926.352	13552
926.459	13704
926.566	13765
926.673	13647
926.779	13441
926.886	13502
926.993	13335
927.099	13247
927.206	13244
927.312	13251
927.419	13228
927.525	13247
927.631	13266
927.737	13156
927.843	13149
927.95	13023
928.056	13057
928.162	13206
928.267	13050
928.373	13765
928.479	13190
928.585	12989
928.69	13019
928.796	13110
928.901	12871
929.007	12913
929.112	12951
929.218	12932
929.323	12734
929.428	12840
929.533	12935
929.638	12684
929.743	12734
929.848	12692
929.953	12749
930.058	12616
930.163	12479
930.267	12555
930.372	12582
930.477	12365
930.581	12677
930.685	12509
930.79	12384
930.894	12372
930.998	12258
931.103	12418
931.207	12110
931.311	12015
931.415	12045
931.519	11714
931.623	11691
