Data from test_V78500241_1656.txt Node
Date: Fri Mar 25 15:53:16 CST 2022
User: usil
Spectrometer: V785-0024
Trigger mode: 0
Integration Time (sec): 4.000000E-1
Scans to average: 1
Nonlinearity correction enabled: false
Boxcar width: 0
Storing dark spectrum: false
XAxis mode: Wavelengths
Number of Pixels in Spectrum: 1024
>>>>>Begin Spectral Data<<<<<
801.071	28036
801.214	27876
801.356	27808
801.499	27781
801.641	27622
801.783	27519
801.926	27686
802.068	27610
802.211	27564
802.353	27564
802.496	27367
802.638	27127
802.78	27173
802.923	27176
803.065	27131
803.208	27127
803.35	27184
803.492	27298
803.635	27408
803.777	27382
803.919	27374
804.061	27789
804.204	27542
804.346	27306
804.488	27367
804.63	27583
804.773	27340
804.915	27458
805.057	27656
805.199	27473
805.341	27629
805.483	27622
805.626	27564
805.768	27389
805.91	27580
806.052	27633
806.194	27610
806.336	27770
806.478	27599
806.62	27500
806.762	27739
806.904	27873
807.046	28188
807.188	28055
807.33	27960
807.472	27991
807.614	27949
807.756	27953
807.898	27899
808.04	27717
808.182	27846
808.324	27857
808.465	27907
808.607	28158
808.749	28230
808.891	28230
809.033	28538
809.174	28337
809.316	28276
809.458	28196
809.6	28120
809.741	28249
809.883	28318
810.025	28542
810.166	28523
810.308	28531
810.45	28519
810.591	28478
810.733	28276
810.875	28185
811.016	28268
811.158	28173
811.299	28462
811.441	28337
811.582	28185
811.724	28325
811.865	28188
812.007	28181
812.148	28196
812.29	28169
812.431	28474
812.573	28561
812.714	28725
812.855	28706
812.997	28691
813.138	28987
813.279	28881
813.421	28710
813.562	28702
813.703	28531
813.845	28409
813.986	28204
814.127	28086
814.268	27895
814.41	27991
814.551	27941
814.692	27911
814.833	27827
814.974	27816
815.115	27987
815.256	27778
815.397	27819
815.539	27774
815.68	27542
815.821	27542
815.962	27671
816.103	27606
816.244	27652
816.385	27496
816.526	27504
816.666	27329
816.807	27070
816.948	27256
817.089	27252
817.23	27249
817.371	27279
817.512	27161
817.653	27310
817.793	27161
817.934	27218
818.075	27207
818.216	27116
818.356	27176
818.497	27112
818.638	26990
818.778	26982
818.919	26944
819.06	27070
819.2	27036
819.341	27161
819.481	27123
819.622	27291
819.762	27515
819.903	27374
820.043	27405
820.184	27302
820.324	27192
820.465	27336
820.605	27367
820.746	27329
820.886	27157
821.026	27302
821.167	27222
821.307	27348
821.447	27192
821.588	27249
821.728	27020
821.868	26727
822.008	26613
822.149	26743
822.289	26678
822.429	26294
822.569	26355
822.709	26343
822.849	26278
822.99	26248
823.13	26202
823.27	26195
823.41	26096
823.55	26069
823.69	25986
823.83	26065
823.97	26024
824.11	25822
824.25	25696
824.389	25757
824.529	25974
824.669	25875
824.809	25986
824.949	25875
825.089	25864
825.228	25826
825.368	25731
825.508	25662
825.648	25567
825.787	25639
825.927	25708
826.067	25719
826.206	25590
826.346	25620
826.485	25613
826.625	25738
826.765	25738
826.904	25788
827.044	25453
827.183	25343
827.323	25350
827.462	25449
827.601	25419
827.741	25301
827.88	25438
828.02	25160
828.159	25343
828.298	25430
828.437	25381
828.577	25365
828.716	25510
828.855	25365
828.994	25091
829.134	25069
829.273	25156
829.412	25050
829.551	25008
829.69	25160
829.829	25126
829.968	25251
830.107	25088
830.246	25069
830.385	24840
830.524	24943
830.663	24924
830.802	24795
830.941	24661
831.08	24707
831.219	24764
831.357	24722
831.496	25012
831.635	24776
831.774	24578
831.913	24623
832.051	24505
832.19	24437
832.329	24578
832.467	24315
832.606	24342
832.744	24319
832.883	24346
833.022	24254
833.16	24380
833.299	24357
833.437	24460
833.576	24433
833.714	24372
833.852	24566
833.991	24372
834.129	24566
834.267	24563
834.406	24448
834.544	24509
834.682	24559
834.821	24418
834.959	24445
835.097	24319
835.235	24528
835.373	24353
835.511	24395
835.65	24270
835.788	24311
835.926	24258
836.064	24114
836.202	24167
836.34	24258
836.478	24228
836.615	24136
836.753	24159
836.891	24315
837.029	24391
837.167	24167
837.305	24232
837.443	24152
837.58	24072
837.718	24197
837.856	24114
837.993	24003
838.131	24022
838.269	23916
838.406	23988
838.544	23809
838.681	23790
838.819	23676
838.956	23551
839.094	23516
839.231	23646
839.369	23710
839.506	24076
839.643	23786
839.781	23543
839.918	23520
840.055	23714
840.193	23558
840.33	23478
840.467	23421
840.604	23573
840.742	23779
840.879	23296
841.016	23391
841.153	23376
841.29	23577
841.427	23360
841.564	23364
841.701	23372
841.838	23436
841.975	23334
842.112	23330
842.249	23239
842.385	23174
842.522	23337
842.659	23322
842.796	23151
842.933	23185
843.069	23117
843.206	23235
843.343	23204
843.479	23227
843.616	23223
843.752	22987
843.889	22938
844.025	23044
844.162	22953
844.298	22995
844.435	22949
844.571	23006
844.708	23022
844.844	23204
844.98	23121
845.117	23064
845.253	22904
845.389	22831
845.525	22961
845.661	22824
845.798	22778
845.934	22771
846.07	22645
846.206	22694
846.342	22862
846.478	22687
846.614	22390
846.75	22424
846.886	22371
847.022	22447
847.158	22440
847.294	22394
847.429	22580
847.565	22459
847.701	22641
847.837	22242
847.972	22093
848.108	22261
848.244	22280
848.379	22067
848.515	22150
848.65	22051
848.786	22021
848.921	22223
849.057	22257
849.192	22082
849.328	22048
849.463	22002
849.598	22063
849.734	21979
849.869	21945
850.004	21846
850.14	21850
850.275	21869
850.41	21743
850.545	21660
850.68	21873
850.815	21838
850.95	21701
851.085	21972
851.22	21865
851.355	21762
851.49	21892
851.625	21808
851.76	21778
851.895	21819
852.03	21698
852.165	21781
852.299	21808
852.434	21884
852.569	21751
852.703	21899
852.838	21850
852.973	21945
853.107	21911
853.242	21770
853.376	21690
853.511	21568
853.645	21519
853.78	21675
853.914	21663
854.048	21644
854.183	21675
854.317	21633
854.451	21907
854.585	21679
854.72	21667
854.854	21808
854.988	21618
855.122	21591
855.256	21515
855.39	21614
855.524	21736
855.658	21808
855.792	21561
855.926	21667
856.06	21686
856.194	21618
856.327	21682
856.461	21549
856.595	21591
856.729	21641
856.862	21739
856.996	21682
857.13	21595
857.263	21667
857.397	21766
857.53	21690
857.664	21667
857.797	21679
857.931	21739
858.064	21603
858.197	21564
858.331	21625
858.464	21564
858.597	21549
858.731	21614
858.864	21526
858.997	21614
859.13	21641
859.263	21660
859.396	21641
859.529	21557
859.662	21568
859.795	21660
859.928	21583
860.061	21762
860.194	21884
860.327	21774
860.46	21682
860.592	21781
860.725	21816
860.858	21717
860.99	21671
861.123	21580
861.256	21538
861.388	21698
861.521	22204
861.653	21431
861.786	21367
861.918	21466
862.05	21542
862.183	21496
862.315	21641
862.447	21583
862.58	21492
862.712	21279
862.844	21306
862.976	21370
863.108	21462
863.24	21907
863.372	21135
863.504	21321
863.636	21294
863.768	21416
863.9	21405
864.032	21325
864.164	21260
864.296	21306
864.428	21447
864.559	21439
864.691	21450
864.823	21321
864.954	21317
865.086	21340
865.217	21241
865.349	21104
865.48	21214
865.612	21214
865.743	21340
865.875	21222
866.006	21211
866.137	21310
866.269	21241
866.4	21192
866.531	21245
866.662	21184
866.793	21199
866.924	21211
867.055	21207
867.186	21165
867.317	21116
867.448	21119
867.579	21150
867.71	21096
867.841	21066
867.972	21127
868.103	21062
868.233	21100
868.364	21222
868.495	21264
868.625	21344
868.756	21462
868.886	21321
869.017	21412
869.147	21583
869.278	21656
869.408	21561
869.539	21435
869.669	21367
869.799	21458
869.929	21580
870.06	21435
870.19	21732
870.32	21618
870.45	21705
870.58	21854
870.71	21953
870.84	21838
870.97	21770
871.1	21846
871.23	21895
871.36	22074
871.489	21956
871.619	22036
871.749	21991
871.879	21983
872.008	22002
872.138	22036
872.267	21899
872.397	21956
872.526	21895
872.656	21854
872.785	21865
872.915	21934
873.044	22166
873.173	21968
873.303	22074
873.432	22097
873.561	21979
873.69	22051
873.819	22067
873.948	22032
874.077	22017
874.206	21964
874.335	22021
874.464	22120
874.593	22242
874.722	22200
874.851	22291
874.979	22276
875.108	22310
875.237	22109
875.365	22230
875.494	22211
875.623	22230
875.751	22093
875.88	22238
876.008	22230
876.136	22459
876.265	22706
876.393	22736
876.521	22713
876.65	22679
876.778	22668
876.906	22573
877.034	22542
877.162	22615
877.29	22443
877.418	22691
877.546	22687
877.674	22493
877.802	22622
877.93	22603
878.058	22569
878.185	22554
878.313	22485
878.441	22618
878.568	22459
878.696	22538
878.824	22565
878.951	22656
879.079	22691
879.206	22866
879.333	22645
879.461	22535
879.588	22778
879.715	22713
879.842	22965
879.97	22599
880.097	22489
880.224	22394
880.351	22474
880.478	22527
880.605	22344
880.732	22341
880.859	22740
880.986	22447
881.112	22451
881.239	22230
881.366	22150
881.493	22010
881.619	22101
881.746	21964
881.872	21960
881.999	21956
882.125	21903
882.252	22002
882.378	21937
882.505	22021
882.631	21911
882.757	21789
882.883	21778
883.01	21656
883.136	21698
883.262	21519
883.388	21614
883.514	21686
883.64	21656
883.766	21534
883.892	21454
884.018	21416
884.143	21580
884.269	21641
884.395	21382
884.52	21348
884.646	21317
884.772	21275
884.897	21230
885.023	21401
885.148	21310
885.274	21378
885.399	21294
885.524	21287
885.65	21412
885.775	21294
885.9	21233
886.025	21287
886.15	21370
886.275	21241
886.4	21104
886.525	21321
886.65	21199
886.775	21108
886.9	21355
887.025	21496
887.149	21237
887.274	21074
887.399	21180
887.523	21127
887.648	21013
887.773	21017
887.897	21142
888.021	21020
888.146	21032
888.27	21207
888.395	21180
888.519	21127
888.643	21066
888.767	21131
888.891	20982
889.015	20834
889.139	20937
889.263	20872
889.387	20910
889.511	21135
889.635	20967
889.759	20849
889.883	20956
890.006	20960
890.13	20982
890.254	20876
890.377	20849
890.501	20621
890.624	20598
890.748	20697
890.871	20552
890.995	20431
891.118	20336
891.241	20469
891.364	20454
891.488	20629
891.611	20480
891.734	20415
891.857	20469
891.98	20537
892.103	20450
892.226	20358
892.349	20442
892.471	20183
892.594	20457
892.717	20355
892.839	20271
892.962	20332
893.085	20556
893.207	20317
893.33	20233
893.452	20259
893.575	20419
893.697	20457
893.819	20499
893.941	20503
894.064	20427
894.186	20305
894.308	20248
894.43	20427
894.552	20549
894.674	20423
894.796	20324
894.918	20267
895.04	20328
895.161	20370
895.283	20317
895.405	20248
895.526	20431
895.648	20237
895.769	20450
895.891	20412
896.012	20522
896.134	20355
896.255	20393
896.376	20446
896.498	20362
896.619	20427
896.74	20267
896.861	20358
896.982	20625
897.103	20804
897.224	20682
897.345	20701
897.466	20503
897.587	20530
897.708	20701
897.828	20594
897.949	20469
898.07	20446
898.19	20530
898.311	20602
898.431	20533
898.552	20590
898.672	20606
898.792	20549
898.913	20541
899.033	20442
899.153	20328
899.273	20317
899.393	20286
899.513	20328
899.633	20351
899.753	20332
899.873	20187
899.993	20423
900.113	20157
900.232	20301
900.352	20130
900.472	20100
900.591	20138
900.711	20153
900.83	20046
900.95	20149
901.069	20149
901.189	19955
901.308	19750
901.427	19647
901.546	19712
901.665	19655
901.784	19582
901.904	19373
902.023	19453
902.141	19206
902.26	19263
902.379	19213
902.498	19244
902.617	19145
902.735	19164
902.854	19072
902.973	18977
903.091	18810
903.21	18856
903.328	18878
903.446	18806
903.565	18684
903.683	18601
903.801	18445
903.919	18597
904.038	18570
904.156	18418
904.274	18456
904.392	18365
904.51	18262
904.627	18448
904.745	18346
904.863	18536
904.981	18258
905.098	18057
905.216	18106
905.334	18098
905.451	18019
905.569	18114
905.686	18194
905.803	18057
905.921	17824
906.038	18007
906.155	17912
906.272	17790
906.389	17741
906.506	17623
906.623	17661
906.74	17661
906.857	17585
906.974	17573
907.091	17619
907.208	17707
907.324	17619
907.441	17547
907.557	17307
907.674	17334
907.79	17254
907.907	17337
908.023	17318
908.139	17421
908.256	17265
908.372	17265
908.488	17132
908.604	17075
908.72	17045
908.836	16995
908.952	16923
909.068	17155
909.184	17151
909.3	17022
909.415	17060
909.531	16999
909.647	16896
909.762	16900
909.878	16816
909.993	16824
910.108	16656
910.224	16748
910.339	16649
910.454	16649
910.57	16565
910.685	16523
910.8	16839
910.915	16755
911.03	16417
911.145	16382
911.259	16333
911.374	16284
911.489	16261
911.604	16109
911.718	16147
911.833	16017
911.947	16010
912.062	15945
912.176	16036
912.291	16044
912.405	16093
912.519	16238
912.633	16303
912.748	16021
912.862	16059
912.976	15915
913.09	15785
913.204	15884
913.318	15888
913.431	15930
913.545	15907
913.659	15979
913.772	15876
913.886	15709
914	15637
914.113	15774
914.226	15762
914.34	15679
914.453	15610
914.566	15698
914.68	15458
914.793	15458
914.906	15275
915.019	15291
915.132	15252
915.245	15313
915.358	15359
915.47	15249
915.583	15287
915.696	15298
915.809	15370
915.921	15382
916.034	15252
916.146	15237
916.259	15207
916.371	15233
916.483	15279
916.595	15154
916.708	15123
916.82	15055
916.932	15055
917.044	15077
917.156	15017
917.268	14880
917.38	14982
917.491	14842
917.603	14948
917.715	14956
917.826	14941
917.938	14826
918.049	14845
918.161	14857
918.272	15043
918.384	15032
918.495	14823
918.606	14750
918.717	14663
918.828	14731
918.939	14743
919.05	14655
919.161	14659
919.272	14499
919.383	14518
919.494	14788
919.604	14956
919.715	14727
919.826	14560
919.936	14659
920.047	14731
920.157	14743
920.267	14849
920.378	14636
920.488	14613
920.598	14800
920.708	14887
920.818	14857
920.928	14769
921.038	14933
921.148	14880
921.258	14670
921.368	14549
921.477	14362
921.587	14294
921.697	14351
921.806	14404
921.916	14286
922.025	14199
922.134	14100
922.244	13978
922.353	14016
922.462	13841
922.571	13837
922.68	13632
922.789	13708
922.898	13723
923.007	13597
923.116	13742
923.224	13666
923.333	13616
923.442	13639
923.55	13430
923.659	13537
923.767	13506
923.876	13483
923.984	13464
924.092	13441
924.201	13472
924.309	13495
924.417	13392
924.525	13419
924.633	13312
924.741	14077
924.849	13103
924.956	13217
925.064	13171
925.172	13015
925.279	13008
925.387	13141
925.494	13076
925.602	13289
925.709	13072
925.816	12932
925.924	13042
926.031	13088
926.138	12970
926.245	13027
926.352	12935
926.459	12970
926.566	13088
926.673	12928
926.779	12848
926.886	12901
926.993	12642
927.099	12711
927.206	12673
927.312	12669
927.419	12703
927.525	12555
927.631	12665
927.737	12601
927.843	12433
927.95	12353
928.056	12464
928.162	12483
928.267	12441
928.373	13141
928.479	12471
928.585	12315
928.69	12422
928.796	12384
928.901	12304
929.007	12201
929.112	12216
929.218	12270
929.323	12220
929.428	12182
929.533	12369
929.638	12060
929.743	12095
929.848	12125
929.953	12171
930.058	12057
930.163	11836
930.267	11855
930.372	12034
930.477	11847
930.581	12079
930.685	11866
930.79	11672
930.894	11809
930.998	11729
931.103	11874
931.207	11482
931.311	11455
931.415	11402
931.519	11166
931.623	11098
