Data from test_V78500241_2420.txt Node
Date: Fri Mar 25 15:58:33 CST 2022
User: usil
Spectrometer: V785-0024
Trigger mode: 0
Integration Time (sec): 4.000000E-1
Scans to average: 1
Nonlinearity correction enabled: false
Boxcar width: 0
Storing dark spectrum: false
XAxis mode: Wavelengths
Number of Pixels in Spectrum: 1024
>>>>>Begin Spectral Data<<<<<
801.071	28729
801.214	28862
801.356	28645
801.499	28580
801.641	28386
801.783	28432
801.926	28588
802.068	28333
802.211	28333
802.353	28344
802.496	28314
802.638	28025
802.78	27930
802.923	28048
803.065	28074
803.208	28025
803.35	28147
803.492	28348
803.635	28375
803.777	28230
803.919	28299
804.061	28630
804.204	28459
804.346	28196
804.488	28314
804.63	28341
804.773	28249
804.915	28284
805.057	28440
805.199	28242
805.341	28455
805.483	28451
805.626	28523
805.768	28352
805.91	28485
806.052	28599
806.194	28474
806.336	28713
806.478	28550
806.62	28603
806.762	28710
806.904	28831
807.046	28999
807.188	28809
807.33	29041
807.472	29010
807.614	28930
807.756	29090
807.898	28923
808.04	28740
808.182	28786
808.324	28873
808.465	28885
808.607	29052
808.749	29288
808.891	29356
809.033	29410
809.174	29250
809.316	29117
809.458	29296
809.6	29151
809.741	29452
809.883	29337
810.025	29634
810.166	29512
810.308	29680
810.45	29577
810.591	29455
810.733	29178
810.875	29197
811.016	29098
811.158	29003
811.299	29200
811.441	29433
811.582	29444
811.724	29258
811.865	29193
812.007	29239
812.148	29223
812.29	29265
812.431	29501
812.573	29512
812.714	29604
812.855	29710
812.997	29752
813.138	30003
813.279	29958
813.421	29840
813.562	29752
813.703	29653
813.845	29452
813.986	29242
814.127	28927
814.268	28900
814.41	28984
814.551	28892
814.692	28991
814.833	28797
814.974	29098
815.115	28953
815.256	28847
815.397	28873
815.539	28759
815.68	28710
815.821	28725
815.962	28634
816.103	28782
816.244	28679
816.385	28588
816.526	28394
816.666	28299
816.807	28333
816.948	28215
817.089	28489
817.23	28322
817.371	28363
817.512	28242
817.653	28181
817.793	28390
817.934	28272
818.075	28257
818.216	28299
818.356	28181
818.497	28143
818.638	28082
818.778	28029
818.919	28059
819.06	28078
819.2	28204
819.341	28200
819.481	28249
819.622	28500
819.762	28569
819.903	28542
820.043	28363
820.184	28443
820.324	28485
820.465	28493
820.605	28455
820.746	28363
820.886	28135
821.026	28401
821.167	28215
821.307	28485
821.447	28322
821.588	28265
821.728	28010
821.868	27747
822.008	27785
822.149	27751
822.289	27751
822.429	27564
822.569	27405
822.709	27530
822.849	27408
822.99	27382
823.13	27176
823.27	27184
823.41	27169
823.55	27047
823.69	27146
823.83	27001
823.97	27131
824.11	26925
824.25	26861
824.389	26883
824.529	27024
824.669	27005
824.809	26975
824.949	26975
825.089	27036
825.228	26834
825.368	26708
825.508	26750
825.648	26792
825.787	26754
825.927	26937
826.067	26819
826.206	26785
826.346	26743
826.485	26891
826.625	26785
826.765	26906
826.904	26796
827.044	26712
827.183	26545
827.323	26549
827.462	26571
827.601	26438
827.741	26465
827.88	26632
828.02	26377
828.159	26587
828.298	26545
828.437	26495
828.577	26412
828.716	26598
828.855	26434
828.994	26172
829.134	26107
829.273	26282
829.412	26256
829.551	26103
829.69	26126
829.829	26157
829.968	26218
830.107	26317
830.246	26122
830.385	26096
830.524	26103
830.663	26065
830.802	25925
830.941	25795
831.08	25750
831.219	25879
831.357	25693
831.496	25978
831.635	25761
831.774	25727
831.913	25620
832.051	25525
832.19	25662
832.329	25666
832.467	25540
832.606	25457
832.744	25483
832.883	25476
833.022	25514
833.16	25483
833.299	25457
833.437	25506
833.576	25624
833.714	25529
833.852	25674
833.991	25544
834.129	25582
834.267	25540
834.406	25559
834.544	25525
834.682	25495
834.821	25460
834.959	25833
835.097	25556
835.235	25571
835.373	25616
835.511	25594
835.65	25335
835.788	25373
835.926	25373
836.064	25251
836.202	25091
836.34	25304
836.478	25400
836.615	25362
836.753	25430
836.891	25403
837.029	25396
837.167	25297
837.305	25232
837.443	25255
837.58	25213
837.718	25373
837.856	25209
837.993	25187
838.131	25327
838.269	24973
838.406	25133
838.544	25019
838.681	24878
838.819	24856
838.956	24658
839.094	24612
839.231	24707
839.369	24787
839.506	25095
839.643	24821
839.781	24639
839.918	24681
840.055	24540
840.193	24502
840.33	24521
840.467	24585
840.604	24570
840.742	24886
840.879	24441
841.016	24528
841.153	24407
841.29	24608
841.427	24456
841.564	24532
841.701	24574
841.838	24604
841.975	24502
842.112	24460
842.249	24372
842.385	24414
842.522	24532
842.659	24323
842.796	24205
842.933	24251
843.069	24315
843.206	24258
843.343	24289
843.479	24296
843.616	24292
843.752	24060
843.889	24007
844.025	24205
844.162	24079
844.298	24163
844.435	24194
844.571	24068
844.708	24007
844.844	24304
844.98	24327
845.117	24155
845.253	23992
845.389	23931
845.525	23942
845.661	23874
845.798	23729
845.934	23817
846.07	23767
846.206	23878
846.342	23935
846.478	23707
846.614	23684
846.75	23425
846.886	23493
847.022	23573
847.158	23471
847.294	23486
847.429	23714
847.565	23482
847.701	23634
847.837	23288
847.972	23288
848.108	23398
848.244	23364
848.379	23178
848.515	23124
848.65	23113
848.786	23140
848.921	23185
849.057	23318
849.192	23254
849.328	23079
849.463	23128
849.598	23060
849.734	23094
849.869	22972
850.004	22908
850.14	22828
850.275	22881
850.41	22873
850.545	22930
850.68	22942
850.815	22896
850.95	22915
851.085	23025
851.22	22991
851.355	23010
851.49	22835
851.625	22927
851.76	22915
851.895	22748
852.03	22786
852.165	22866
852.299	22896
852.434	23014
852.569	23014
852.703	22873
852.838	23003
852.973	23041
853.107	22957
853.242	22656
853.376	22797
853.511	22645
853.645	22675
853.78	22869
853.914	22675
854.048	22736
854.183	22603
854.317	22744
854.451	22915
854.585	22812
854.72	22702
854.854	22656
854.988	22618
855.122	22713
855.256	22634
855.39	22577
855.524	22706
855.658	22740
855.792	22774
855.926	22721
856.06	22596
856.194	22790
856.327	22588
856.461	22649
856.595	22725
856.729	22694
856.862	22930
856.996	22820
857.13	22889
857.263	22850
857.397	22877
857.53	22691
857.664	22786
857.797	22710
857.931	22812
858.064	22683
858.197	22675
858.331	22740
858.464	22733
858.597	22645
858.731	22611
858.864	22729
858.997	22641
859.13	22611
859.263	22816
859.396	22786
859.529	22774
859.662	22687
859.795	22710
859.928	22717
860.061	22866
860.194	22957
860.327	22797
860.46	22672
860.592	22835
860.725	22885
860.858	22740
860.99	22767
861.123	22679
861.256	22752
861.388	22694
861.521	23471
861.653	22611
861.786	22516
861.918	22535
862.05	22497
862.183	22615
862.315	22596
862.447	22611
862.58	22618
862.712	22474
862.844	22276
862.976	22588
863.108	22516
863.24	22839
863.372	22386
863.504	22424
863.636	22306
863.768	22580
863.9	22325
864.032	22421
864.164	22360
864.296	22459
864.428	22519
864.559	22466
864.691	22497
864.823	22413
864.954	22322
865.086	22371
865.217	22325
865.349	22223
865.48	22242
865.612	22226
865.743	22382
865.875	22287
866.006	22276
866.137	22238
866.269	22234
866.4	22299
866.531	22150
866.662	22253
866.793	22200
866.924	22090
867.055	22253
867.186	22188
867.317	22207
867.448	22124
867.579	22131
867.71	22131
867.841	22207
867.972	22234
868.103	22234
868.233	22207
868.364	22215
868.495	22246
868.625	22421
868.756	22478
868.886	22386
869.017	22379
869.147	22523
869.278	22599
869.408	22466
869.539	22386
869.669	22554
869.799	22497
869.929	22599
870.06	22641
870.19	22805
870.32	22809
870.45	22797
870.58	22949
870.71	22831
870.84	22915
870.97	22873
871.1	22774
871.23	23048
871.36	23022
871.489	22953
871.619	22987
871.749	23048
871.879	23010
872.008	23261
872.138	23220
872.267	23140
872.397	22904
872.526	22866
872.656	22953
872.785	22850
872.915	23159
873.044	23044
873.173	23136
873.303	23067
873.432	23147
873.561	23003
873.69	23204
873.819	22987
873.948	23064
874.077	23037
874.206	22957
874.335	23079
874.464	23140
874.593	23341
874.722	23246
874.851	23277
874.979	23368
875.108	23258
875.237	23193
875.365	23166
875.494	23174
875.623	23353
875.751	23200
875.88	23231
876.008	23444
876.136	23353
876.265	23691
876.393	23855
876.521	23733
876.65	23821
876.778	23577
876.906	23821
877.034	23691
877.162	23627
877.29	23558
877.418	23646
877.546	23596
877.674	23672
877.802	23482
877.93	23611
878.058	23558
878.185	23505
878.313	23436
878.441	23581
878.568	23474
878.696	23600
878.824	23611
878.951	23718
879.079	23817
879.206	23870
879.333	23828
879.461	23619
879.588	23798
879.715	23672
879.842	23870
879.97	23627
880.097	23478
880.224	23448
880.351	23474
880.478	23497
880.605	23482
880.732	23398
880.859	23623
880.986	23547
881.112	23440
881.239	23280
881.366	23204
881.493	23064
881.619	22972
881.746	22987
881.872	23029
881.999	22980
882.125	23006
882.252	23079
882.378	22869
882.505	23086
882.631	22793
882.757	22672
882.883	22713
883.01	22637
883.136	22596
883.262	22352
883.388	22535
883.514	22725
883.64	22687
883.766	22550
883.892	22455
884.018	22531
884.143	22607
884.269	22702
884.395	22310
884.52	22230
884.646	22402
884.772	22265
884.897	22242
885.023	22375
885.148	22398
885.274	22386
885.399	22371
885.524	22386
885.65	22314
885.775	22238
885.9	22287
886.025	22542
886.15	22489
886.275	22215
886.4	22101
886.525	22226
886.65	22173
886.775	22021
886.9	22413
887.025	22596
887.149	22181
887.274	21998
887.399	21983
887.523	21960
887.648	21998
887.773	21945
887.897	22116
888.021	22090
888.146	21937
888.27	22078
888.395	22128
888.519	22029
888.643	22002
888.767	22090
888.891	21979
889.015	21831
889.139	21903
889.263	21728
889.387	21835
889.511	22082
889.635	22093
889.759	21762
889.883	21762
890.006	21743
890.13	21884
890.254	21648
890.377	21869
890.501	21568
890.624	21561
890.748	21720
890.871	21488
890.995	21466
891.118	21272
891.241	21420
891.364	21310
891.488	21511
891.611	21447
891.734	21450
891.857	21500
891.98	21344
892.103	21321
892.226	21321
892.349	21279
892.471	21252
892.594	21302
892.717	21348
892.839	21264
892.962	21291
893.085	21386
893.207	21454
893.33	21188
893.452	21233
893.575	21336
893.697	21154
893.819	21553
893.941	21458
894.064	21363
894.186	21127
894.308	21203
894.43	21325
894.552	21370
894.674	21310
894.796	21154
894.918	21203
895.04	21199
895.161	21112
895.283	21332
895.405	21306
895.526	21218
895.648	21188
895.769	21184
895.891	21230
896.012	21355
896.134	21279
896.255	21378
896.376	21214
896.498	21195
896.619	21382
896.74	21199
896.861	21302
896.982	21485
897.103	21614
897.224	21534
897.345	21485
897.466	21447
897.587	21542
897.708	21564
897.828	21466
897.949	21466
898.07	21226
898.19	21408
898.311	21454
898.431	21397
898.552	21389
898.672	21431
898.792	21382
898.913	21519
899.033	21321
899.153	21150
899.273	21161
899.393	21074
899.513	21275
899.633	21199
899.753	21123
899.873	20963
899.993	21161
900.113	21169
900.232	21051
900.352	21074
900.472	21043
900.591	21047
900.711	20967
900.83	20868
900.95	20963
901.069	21013
901.189	20777
901.308	20598
901.427	20499
901.546	20492
901.665	20492
901.784	20488
901.904	20339
902.023	20168
902.141	20130
902.26	20092
902.379	20153
902.498	20111
902.617	20005
902.735	20100
902.854	19986
902.973	19849
903.091	19753
903.21	19761
903.328	19647
903.446	19533
903.565	19533
903.683	19506
903.801	19392
903.919	19304
904.038	19415
904.156	19263
904.274	19377
904.392	19133
904.51	19148
904.627	19209
904.745	19141
904.863	19247
904.981	19080
905.098	18924
905.216	18833
905.334	18977
905.451	18863
905.569	18798
905.686	18909
905.803	18916
905.921	18658
906.038	18753
906.155	18669
906.272	18574
906.389	18601
906.506	18513
906.623	18475
906.74	18353
906.857	18289
906.974	18266
907.091	18445
907.208	18582
907.324	18346
907.441	18155
907.557	18216
907.674	18121
907.79	18072
907.907	18064
908.023	18140
908.139	18136
908.256	18045
908.372	18064
908.488	18041
908.604	17874
908.72	17790
908.836	17828
908.952	17885
909.068	17901
909.184	17920
909.3	17786
909.415	17821
909.531	17733
909.647	17562
909.762	17524
909.878	17512
909.993	17566
910.108	17433
910.224	17463
910.339	17436
910.454	17284
910.57	17368
910.685	17280
910.8	17623
910.915	17402
911.03	17326
911.145	17162
911.259	17064
911.374	17162
911.489	16980
911.604	16896
911.718	16847
911.833	16805
911.947	16835
912.062	16679
912.176	16759
912.291	16938
912.405	16733
912.519	17083
912.633	17075
912.748	16881
912.862	16820
912.976	16626
913.09	16569
913.204	16706
913.318	16687
913.431	16740
913.545	16660
913.659	16698
913.772	16497
913.886	16447
914	16447
914.113	16466
914.226	16596
914.34	16516
914.453	16382
914.566	16489
914.68	16215
914.793	16207
914.906	16116
915.019	15991
915.132	15930
915.245	15956
915.358	16002
915.47	16051
915.583	16055
915.696	16021
915.809	16173
915.921	16120
916.034	15930
916.146	15903
916.259	15918
916.371	16021
916.483	15850
916.595	15720
916.708	15800
916.82	15823
916.932	15774
917.044	15774
917.156	15690
917.268	15595
917.38	15690
917.491	15572
917.603	15557
917.715	15690
917.826	15755
917.938	15454
918.049	15405
918.161	15526
918.272	15629
918.384	15705
918.495	15515
918.606	15382
918.717	15443
918.828	15393
918.939	15367
919.05	15294
919.161	15401
919.272	15116
919.383	15192
919.494	15382
919.604	15641
919.715	15374
919.826	15218
919.936	15298
920.047	15424
920.157	15367
920.267	15492
920.378	15325
920.488	15272
920.598	15458
920.708	15637
920.818	15466
920.928	15435
921.038	15534
921.148	15564
921.258	15230
921.368	15157
921.477	14979
921.587	15043
921.697	14982
921.806	14944
921.916	14864
922.025	14731
922.134	14708
922.244	14636
922.353	14712
922.462	14499
922.571	14545
922.68	14377
922.789	14347
922.898	14309
923.007	14381
923.116	14298
923.224	14271
923.333	14263
923.442	14237
923.55	14065
923.659	14183
923.767	14142
923.876	14115
923.984	14233
924.092	14016
924.201	14024
924.309	14020
924.417	14039
924.525	13955
924.633	13959
924.741	14693
924.849	13696
924.956	13830
925.064	13677
925.172	13620
925.279	13677
925.387	13700
925.494	13563
925.602	13803
925.709	13757
925.816	13495
925.924	13700
926.031	13685
926.138	13578
926.245	13586
926.352	13556
926.459	13590
926.566	13601
926.673	13472
926.779	13343
926.886	13384
926.993	13263
927.099	13221
927.206	13263
927.312	13160
927.419	13274
927.525	13221
927.631	13259
927.737	13122
927.843	13057
927.95	12993
928.056	13050
928.162	13072
928.267	13072
928.373	13643
928.479	13091
928.585	12837
928.69	13046
928.796	12970
928.901	12829
929.007	12715
929.112	12943
929.218	12859
929.323	12768
929.428	12760
929.533	12886
929.638	12665
929.743	12692
929.848	12711
929.953	12665
930.058	12563
930.163	12441
930.267	12403
930.372	12479
930.477	12353
930.581	12517
930.685	12490
930.79	12266
930.894	12296
930.998	12235
931.103	12369
931.207	12019
931.311	11927
931.415	11805
931.519	11699
931.623	11615
