Data from test_V78500241_3186.txt Node
Date: Fri Mar 25 16:03:52 CST 2022
User: usil
Spectrometer: V785-0024
Trigger mode: 0
Integration Time (sec): 4.000000E-1
Scans to average: 1
Nonlinearity correction enabled: false
Boxcar width: 0
Storing dark spectrum: false
XAxis mode: Wavelengths
Number of Pixels in Spectrum: 1024
>>>>>Begin Spectral Data<<<<<
801.071	28698
801.214	28599
801.356	28398
801.499	28348
801.641	28249
801.783	28135
801.926	28337
802.068	28257
802.211	28265
802.353	28341
802.496	27918
802.638	28010
802.78	27884
802.923	27903
803.065	27865
803.208	27945
803.35	27930
803.492	28067
803.635	28207
803.777	28032
803.919	28234
804.061	28470
804.204	28284
804.346	28135
804.488	28128
804.63	28196
804.773	28112
804.915	28306
805.057	28367
805.199	28226
805.341	28306
805.483	28325
805.626	28363
805.768	28360
805.91	28375
806.052	28344
806.194	28196
806.336	28683
806.478	28356
806.62	28360
806.762	28459
806.904	28615
807.046	29037
807.188	28942
807.33	28801
807.472	28934
807.614	28740
807.756	28691
807.898	28839
808.04	28702
808.182	28660
808.324	28744
808.465	28771
808.607	28809
808.749	29098
808.891	29250
809.033	29220
809.174	29022
809.316	29155
809.458	28908
809.6	28946
809.741	29037
809.883	29124
810.025	29307
810.166	29349
810.308	29334
810.45	29193
810.591	29185
810.733	29128
810.875	29071
811.016	29003
811.158	29033
811.299	29113
811.441	29208
811.582	29250
811.724	29151
811.865	29041
812.007	29136
812.148	29098
812.29	29170
812.431	29254
812.573	29455
812.714	29577
812.855	29573
812.997	29783
813.138	29642
813.279	29779
813.421	29448
813.562	29581
813.703	29463
813.845	29258
813.986	28972
814.127	28896
814.268	28706
814.41	28805
814.551	28778
814.692	28706
814.833	28755
814.974	28649
815.115	28748
815.256	28455
815.397	28618
815.539	28611
815.68	28611
815.821	28626
815.962	28637
816.103	28554
816.244	28428
816.385	28432
816.526	28371
816.666	28226
816.807	28055
816.948	28158
817.089	28185
817.23	28078
817.371	28074
817.512	28223
817.653	28021
817.793	27953
817.934	28048
818.075	28101
818.216	28017
818.356	28131
818.497	27884
818.638	28025
818.778	27892
818.919	27876
819.06	27857
819.2	28093
819.341	28116
819.481	28040
819.622	28173
819.762	28405
819.903	28272
820.043	28150
820.184	28238
820.324	28246
820.465	28352
820.605	28265
820.746	28226
820.886	28120
821.026	28139
821.167	28192
821.307	28310
821.447	28162
821.588	27991
821.728	27823
821.868	27751
822.008	27633
822.149	27542
822.289	27530
822.429	27329
822.569	27264
822.709	27256
822.849	27226
822.99	27146
823.13	27032
823.27	26994
823.41	26956
823.55	26876
823.69	26876
823.83	26880
823.97	26952
824.11	26792
824.25	26682
824.389	26708
824.529	26868
824.669	26712
824.809	26861
824.949	26720
825.089	26902
825.228	26830
825.368	26758
825.508	26545
825.648	26667
825.787	26632
825.927	26746
826.067	26564
826.206	26640
826.346	26632
826.485	26617
826.625	26613
826.765	26781
826.904	26609
827.044	26393
827.183	26377
827.323	26362
827.462	26415
827.601	26332
827.741	26328
827.88	26377
828.02	26191
828.159	26221
828.298	26313
828.437	26404
828.577	26362
828.716	26419
828.855	26237
828.994	26031
829.134	26145
829.273	26142
829.412	26012
829.551	26008
829.69	26081
829.829	26145
829.968	26153
830.107	26035
830.246	26031
830.385	25989
830.524	25936
830.663	25814
830.802	25651
830.941	25662
831.08	25590
831.219	25719
831.357	25708
831.496	25944
831.635	25643
831.774	25529
831.913	25476
832.051	25613
832.19	25343
832.329	25457
832.467	25301
832.606	25289
832.744	25247
832.883	25240
833.022	25194
833.16	25320
833.299	25377
833.437	25297
833.576	25354
833.714	25320
833.852	25499
833.991	25453
834.129	25419
834.267	25441
834.406	25411
834.544	25343
834.682	25320
834.821	25358
834.959	25639
835.097	25263
835.235	25449
835.373	25320
835.511	25289
835.65	25278
835.788	25179
835.926	25061
836.064	25069
836.202	25012
836.34	25190
836.478	25358
836.615	25152
836.753	25247
836.891	25194
837.029	25042
837.167	25023
837.305	25057
837.443	25110
837.58	25012
837.718	25107
837.856	24962
837.993	25019
838.131	25027
838.269	24795
838.406	24935
838.544	24837
838.681	24734
838.819	24597
838.956	24494
839.094	24414
839.231	24448
839.369	24635
839.506	24840
839.643	24692
839.781	24509
839.918	24513
840.055	24399
840.193	24498
840.33	24467
840.467	24479
840.604	24376
840.742	24608
840.879	24304
841.016	24289
841.153	24437
841.29	24544
841.427	24262
841.564	24437
841.701	24330
841.838	24289
841.975	24372
842.112	24251
842.249	24228
842.385	24224
842.522	24540
842.659	24243
842.796	24190
842.933	24102
843.069	24152
843.206	24114
843.343	24380
843.479	24228
843.616	24155
843.752	24034
843.889	23935
844.025	24087
844.162	23863
844.298	24167
844.435	24038
844.571	23866
844.708	24011
844.844	24129
844.98	24072
845.117	24114
845.253	23961
845.389	23874
845.525	23802
845.661	23805
845.798	23729
845.934	23649
846.07	23668
846.206	23672
846.342	23767
846.478	23691
846.614	23581
846.75	23265
846.886	23398
847.022	23535
847.158	23436
847.294	23486
847.429	23417
847.565	23303
847.701	23646
847.837	23113
847.972	23128
848.108	23315
848.244	23174
848.379	22980
848.515	22873
848.65	22919
848.786	23178
848.921	22984
849.057	23102
849.192	23010
849.328	23003
849.463	22858
849.598	22934
849.734	23064
849.869	22885
850.004	22752
850.14	22694
850.275	22755
850.41	22561
850.545	22744
850.68	22679
850.815	22755
850.95	22672
851.085	22949
851.22	22965
851.355	22668
851.49	22637
851.625	22713
851.76	22767
851.895	22653
852.03	22694
852.165	22713
852.299	22755
852.434	22908
852.569	22706
852.703	22702
852.838	22778
852.973	22717
853.107	22862
853.242	22679
853.376	22497
853.511	22550
853.645	22500
853.78	22691
853.914	22660
854.048	22508
854.183	22531
854.317	22649
854.451	22771
854.585	22584
854.72	22546
854.854	22672
854.988	22580
855.122	22569
855.256	22432
855.39	22523
855.524	22634
855.658	22538
855.792	22664
855.926	22470
856.06	22535
856.194	22596
856.327	22455
856.461	22512
856.595	22367
856.729	22455
856.862	22668
856.996	22588
857.13	22577
857.263	22584
857.397	22710
857.53	22565
857.664	22493
857.797	22596
857.931	22653
858.064	22630
858.197	22645
858.331	22542
858.464	22516
858.597	22504
858.731	22523
858.864	22489
858.997	22470
859.13	22637
859.263	22504
859.396	22634
859.529	22554
859.662	22478
859.795	22645
859.928	22542
860.061	22759
860.194	22660
860.327	22603
860.46	22603
860.592	22725
860.725	22687
860.858	22626
860.99	22516
861.123	22493
861.256	22504
861.388	22527
861.521	23368
861.653	22493
861.786	22318
861.918	22360
862.05	22459
862.183	22481
862.315	22554
862.447	22561
862.58	22462
862.712	22322
862.844	22268
862.976	22356
863.108	22310
863.24	22573
863.372	22280
863.504	22272
863.636	22348
863.768	22280
863.9	22325
864.032	22124
864.164	22226
864.296	22333
864.428	22310
864.559	22341
864.691	22371
864.823	22436
864.954	22253
865.086	22105
865.217	22158
865.349	22150
865.48	22135
865.612	22158
865.743	22314
865.875	22040
866.006	22177
866.137	22040
866.269	22291
866.4	22154
866.531	22078
866.662	22093
866.793	22105
866.924	22032
867.055	21994
867.186	22101
867.317	22059
867.448	21956
867.579	22055
867.71	22086
867.841	22010
867.972	22116
868.103	22070
868.233	22082
868.364	22006
868.495	22196
868.625	22284
868.756	22485
868.886	22363
869.017	22223
869.147	22519
869.278	22459
869.408	22360
869.539	22352
869.669	22432
869.799	22341
869.929	22542
870.06	22371
870.19	22607
870.32	22637
870.45	22569
870.58	22736
870.71	22793
870.84	22816
870.97	22653
871.1	22653
871.23	22923
871.36	22938
871.489	22797
871.619	22786
871.749	22904
871.879	22995
872.008	23003
872.138	22934
872.267	22976
872.397	22900
872.526	22835
872.656	22790
872.785	22873
872.915	22968
873.044	23003
873.173	22938
873.303	22984
873.432	23025
873.561	23071
873.69	22919
873.819	22987
873.948	23048
874.077	22984
874.206	22877
874.335	22854
874.464	23003
874.593	23166
874.722	23010
874.851	23155
874.979	23185
875.108	23223
875.237	23060
875.365	23060
875.494	23060
875.623	23178
875.751	23037
875.88	23121
876.008	23269
876.136	23330
876.265	23429
876.393	23718
876.521	23596
876.65	23630
876.778	23596
876.906	23505
877.034	23425
877.162	23512
877.29	23486
877.418	23573
877.546	23570
877.674	23467
877.802	23482
877.93	23509
878.058	23330
878.185	23311
878.313	23512
878.441	23512
878.568	23162
878.696	23398
878.824	23539
878.951	23642
879.079	23779
879.206	23779
879.333	23615
879.461	23627
879.588	23596
879.715	23745
879.842	23623
879.97	23497
880.097	23296
880.224	23239
880.351	23509
880.478	23231
880.605	23220
880.732	23425
880.859	23543
880.986	23284
881.112	23326
881.239	23185
881.366	23037
881.493	22927
881.619	22942
881.746	22850
881.872	22976
881.999	22752
882.125	22698
882.252	22820
882.378	22782
882.505	22938
882.631	22812
882.757	22535
882.883	22550
883.01	22603
883.136	22417
883.262	22413
883.388	22398
883.514	22470
883.64	22622
883.766	22542
883.892	22291
884.018	22409
884.143	22489
884.269	22470
884.395	22059
884.52	22124
884.646	22181
884.772	22063
884.897	22029
885.023	22124
885.148	22356
885.274	22310
885.399	22333
885.524	22215
885.65	22234
885.775	22257
885.9	22265
886.025	22261
886.15	22192
886.275	22074
886.4	22162
886.525	22029
886.65	22154
886.775	22082
886.9	22299
887.025	22287
887.149	22158
887.274	21949
887.399	21797
887.523	22055
887.648	21873
887.773	21903
887.897	21953
888.021	22010
888.146	21899
888.27	22017
888.395	21972
888.519	21972
888.643	21941
888.767	21892
888.891	21823
889.015	21652
889.139	21892
889.263	21561
889.387	21865
889.511	21964
889.635	21831
889.759	21705
889.883	21781
890.006	21766
890.13	21694
890.254	21743
890.377	21660
890.501	21557
890.624	21447
890.748	21405
890.871	21458
890.995	21291
891.118	21291
891.241	21332
891.364	21237
891.488	21408
891.611	21233
891.734	21317
891.857	21389
891.98	21252
892.103	21302
892.226	21283
892.349	21112
892.471	21127
892.594	21218
892.717	21192
892.839	21119
892.962	21142
893.085	21294
893.207	21260
893.33	21047
893.452	21108
893.575	21249
893.697	21142
893.819	21325
893.941	21275
894.064	21268
894.186	21077
894.308	21032
894.43	21256
894.552	21336
894.674	21237
894.796	21077
894.918	21127
895.04	21142
895.161	21169
895.283	21218
895.405	21154
895.526	21222
895.648	21161
895.769	21138
895.891	21104
896.012	21207
896.134	21081
896.255	21184
896.376	21104
896.498	21165
896.619	21066
896.74	21138
896.861	21123
896.982	21416
897.103	21614
897.224	21397
897.345	21431
897.466	21283
897.587	21272
897.708	21587
897.828	21275
897.949	21359
898.07	21150
898.19	21230
898.311	21458
898.431	21241
898.552	21283
898.672	21428
898.792	21374
898.913	21405
899.033	21241
899.153	21135
899.273	20998
899.393	21203
899.513	21184
899.633	21085
899.753	21077
899.873	21089
899.993	21104
900.113	20986
900.232	21009
900.352	20906
900.472	20925
900.591	20853
900.711	20826
900.83	20788
900.95	20918
901.069	20792
901.189	20667
901.308	20442
901.427	20526
901.546	20404
901.665	20446
901.784	20396
901.904	20176
902.023	20153
902.141	19951
902.26	19982
902.379	20001
902.498	19944
902.617	19871
902.735	19947
902.854	19856
902.973	19818
903.091	19544
903.21	19548
903.328	19518
903.446	19544
903.565	19365
903.683	19388
903.801	19282
903.919	19274
904.038	19217
904.156	19202
904.274	19228
904.392	19069
904.51	19080
904.627	19164
904.745	19065
904.863	19038
904.981	18924
905.098	18768
905.216	18776
905.334	18745
905.451	18745
905.569	18814
905.686	18726
905.803	18776
905.921	18544
906.038	18589
906.155	18601
906.272	18490
906.389	18467
906.506	18304
906.623	18289
906.74	18201
906.857	18155
906.974	18182
907.091	18422
907.208	18384
907.324	18353
907.441	18220
907.557	17988
907.674	18041
907.79	17996
907.907	17999
908.023	18011
908.139	18057
908.256	17988
908.372	17882
908.488	18038
908.604	17840
908.72	17748
908.836	17821
908.952	17623
909.068	17615
909.184	17866
909.3	17824
909.415	17878
909.531	17608
909.647	17585
909.762	17444
909.878	17391
909.993	17398
910.108	17356
910.224	17395
910.339	17345
910.454	17242
910.57	17208
910.685	17143
910.8	17364
910.915	17273
911.03	17200
911.145	17083
911.259	16919
911.374	16972
911.489	16885
911.604	16831
911.718	16778
911.833	16805
911.947	16767
912.062	16558
912.176	16687
912.291	16725
912.405	16675
912.519	16881
912.633	16938
912.748	16717
912.862	16702
912.976	16634
913.09	16485
913.204	16504
913.318	16512
913.431	16645
913.545	16641
913.659	16542
913.772	16531
913.886	16409
914	16375
914.113	16428
914.226	16504
914.34	16386
914.453	16371
914.566	16371
914.68	16200
914.793	16188
914.906	16051
915.019	16002
915.132	15808
915.245	15895
915.358	15937
915.47	15854
915.583	15915
915.696	15915
915.809	16078
915.921	16048
916.034	15873
916.146	15857
916.259	15641
916.371	15827
916.483	15861
916.595	15907
916.708	15652
916.82	15679
916.932	15660
917.044	15572
917.156	15675
917.268	15557
917.38	15644
917.491	15564
917.603	15507
917.715	15724
917.826	15606
917.938	15477
918.049	15389
918.161	15534
918.272	15610
918.384	15530
918.495	15477
918.606	15306
918.717	15325
918.828	15249
918.939	15298
919.05	15211
919.161	15321
919.272	15138
919.383	15081
919.494	15313
919.604	15378
919.715	15329
919.826	15203
919.936	15184
920.047	15218
920.157	15218
920.267	15367
920.378	15222
920.488	15260
920.598	15439
920.708	15519
920.818	15351
920.928	15424
921.038	15542
921.148	15507
921.258	15222
921.368	15093
921.477	14998
921.587	14929
921.697	14804
921.806	14967
921.916	14788
922.025	14632
922.134	14571
922.244	14495
922.353	14655
922.462	14408
922.571	14396
922.68	14183
922.789	14214
922.898	14278
923.007	14168
923.116	14267
923.224	14153
923.333	14259
923.442	14092
923.55	14065
923.659	13997
923.767	14161
923.876	13974
923.984	14046
924.092	13959
924.201	13875
924.309	13936
924.417	13989
924.525	13830
924.633	13898
924.741	14670
924.849	13620
924.956	13837
925.064	13601
925.172	13601
925.279	13582
925.387	13662
925.494	13563
925.602	13765
925.709	13582
925.816	13449
925.924	13518
926.031	13575
926.138	13521
926.245	13582
926.352	13483
926.459	13563
926.566	13620
926.673	13445
926.779	13320
926.886	13293
926.993	13141
927.099	13149
927.206	13065
927.312	13084
927.419	13126
927.525	13126
927.631	13152
927.737	13019
927.843	12977
927.95	12947
928.056	12928
928.162	13004
928.267	13000
928.373	13559
928.479	12970
928.585	12817
928.69	12886
928.796	12935
928.901	12665
929.007	12791
929.112	12814
929.218	12722
929.323	12741
929.428	12604
929.533	12867
929.638	12616
929.743	12620
929.848	12544
929.953	12551
930.058	12464
930.163	12338
930.267	12376
930.372	12513
930.477	12323
930.581	12494
930.685	12289
930.79	12209
930.894	12251
930.998	12213
931.103	12300
931.207	12060
931.311	11897
931.415	11733
931.519	11554
931.623	11600
