Data from test_V78500241_3147.txt Node
Date: Fri Mar 25 16:03:36 CST 2022
User: usil
Spectrometer: V785-0024
Trigger mode: 0
Integration Time (sec): 4.000000E-1
Scans to average: 1
Nonlinearity correction enabled: false
Boxcar width: 0
Storing dark spectrum: false
XAxis mode: Wavelengths
Number of Pixels in Spectrum: 1024
>>>>>Begin Spectral Data<<<<<
801.071	28272
801.214	28048
801.356	27983
801.499	27755
801.641	27800
801.783	27682
801.926	27762
802.068	27823
802.211	27663
802.353	27667
802.496	27511
802.638	27450
802.78	27447
802.923	27306
803.065	27389
803.208	27363
803.35	27435
803.492	27504
803.635	27701
803.777	27629
803.919	27690
804.061	27975
804.204	27717
804.346	27481
804.488	27519
804.63	27648
804.773	27515
804.915	27739
805.057	27785
805.199	27671
805.341	27755
805.483	27804
805.626	27797
805.768	27660
805.91	27857
806.052	27785
806.194	27648
806.336	27941
806.478	27800
806.62	27842
806.762	27838
806.904	27968
807.046	28314
807.188	28135
807.33	28291
807.472	28367
807.614	28150
807.756	28204
807.898	28090
808.04	28048
808.182	28101
808.324	28048
808.465	28040
808.607	28284
808.749	28447
808.891	28478
809.033	28767
809.174	28451
809.316	28489
809.458	28466
809.6	28443
809.741	28421
809.883	28660
810.025	28786
810.166	28660
810.308	28877
810.45	28607
810.591	28767
810.733	28401
810.875	28497
811.016	28272
811.158	28284
811.299	28615
811.441	28519
811.582	28683
811.724	28478
811.865	28386
812.007	28417
812.148	28382
812.29	28660
812.431	28626
812.573	28828
812.714	28881
812.855	28938
812.997	29102
813.138	29239
813.279	29208
813.421	28999
813.562	28847
813.703	28793
813.845	28577
813.986	28367
814.127	28291
814.268	28067
814.41	28238
814.551	28147
814.692	28177
814.833	28185
814.974	28044
815.115	28230
815.256	27934
815.397	28067
815.539	28082
815.68	27884
815.821	27926
815.962	27983
816.103	27964
816.244	27835
816.385	27774
816.526	27755
816.666	27549
816.807	27374
816.948	27458
817.089	27553
817.23	27523
817.371	27462
817.512	27473
817.653	27370
817.793	27477
817.934	27504
818.075	27557
818.216	27264
818.356	27283
818.497	27340
818.638	27039
818.778	27089
818.919	27173
819.06	27291
819.2	27389
819.341	27408
819.481	27492
819.622	27641
819.762	27747
819.903	27686
820.043	27698
820.184	27648
820.324	27644
820.465	27641
820.605	27473
820.746	27534
820.886	27386
821.026	27488
821.167	27393
821.307	27728
821.447	27515
821.588	27458
821.728	27214
821.868	27039
822.008	26929
822.149	26830
822.289	27013
822.429	26640
822.569	26511
822.709	26598
822.849	26484
822.99	26324
823.13	26347
823.27	26431
823.41	26259
823.55	26134
823.69	26305
823.83	26263
823.97	26191
824.11	26084
824.25	26054
824.389	26084
824.529	26149
824.669	25982
824.809	26183
824.949	26161
825.089	26210
825.228	26119
825.368	25887
825.508	25887
825.648	26050
825.787	26016
825.927	26073
826.067	25917
826.206	25951
826.346	25936
826.485	26027
826.625	25959
826.765	26001
826.904	25849
827.044	25811
827.183	25696
827.323	25696
827.462	25715
827.601	25655
827.741	25662
827.88	25605
828.02	25594
828.159	25521
828.298	25712
828.437	25674
828.577	25605
828.716	25860
828.855	25609
828.994	25479
829.134	25301
829.273	25495
829.412	25312
829.551	25430
829.69	25263
829.829	25426
829.968	25411
830.107	25415
830.246	25293
830.385	25270
830.524	25247
830.663	25114
830.802	24981
830.941	25095
831.08	24970
831.219	25031
831.357	24970
831.496	25137
831.635	25053
831.774	24741
831.913	24798
832.051	24760
832.19	24795
832.329	24757
832.467	24585
832.606	24642
832.744	24517
832.883	24665
833.022	24650
833.16	24620
833.299	24509
833.437	24585
833.576	24802
833.714	24734
833.852	24707
833.991	24844
834.129	24802
834.267	24677
834.406	24715
834.544	24650
834.682	24772
834.821	24646
834.959	24867
835.097	24513
835.235	24738
835.373	24608
835.511	24684
835.65	24509
835.788	24585
835.926	24460
836.064	24403
836.202	24338
836.34	24559
836.478	24654
836.615	24494
836.753	24467
836.891	24593
837.029	24460
837.167	24407
837.305	24433
837.443	24350
837.58	24372
837.718	24448
837.856	24445
837.993	24365
838.131	24384
838.269	24292
838.406	24281
838.544	24167
838.681	24049
838.819	23878
838.956	23874
839.094	23794
839.231	23851
839.369	23923
839.506	24254
839.643	23939
839.781	23726
839.918	23687
840.055	23840
840.193	23847
840.33	23729
840.467	23733
840.604	23760
840.742	24007
840.879	23471
841.016	23665
841.153	23733
841.29	23935
841.427	23634
841.564	23756
841.701	23726
841.838	23684
841.975	23627
842.112	23554
842.249	23661
842.385	23608
842.522	23729
842.659	23554
842.796	23410
842.933	23368
843.069	23501
843.206	23448
843.343	23657
843.479	23531
843.616	23585
843.752	23353
843.889	23193
844.025	23573
844.162	23265
844.298	23273
844.435	23193
844.571	23292
844.708	23334
844.844	23239
844.98	23398
845.117	23326
845.253	23200
845.389	23235
845.525	23136
845.661	23060
845.798	23003
845.934	23117
846.07	22915
846.206	23071
846.342	23113
846.478	22938
846.614	22839
846.75	22717
846.886	22733
847.022	22824
847.158	22771
847.294	22733
847.429	22774
847.565	22786
847.701	23098
847.837	22478
847.972	22546
848.108	22615
848.244	22622
848.379	22409
848.515	22306
848.65	22253
848.786	22265
848.921	22261
849.057	22375
849.192	22417
849.328	22280
849.463	22310
849.598	22303
849.734	22131
849.869	22154
850.004	22063
850.14	22097
850.275	22135
850.41	22032
850.545	22013
850.68	22021
850.815	22196
850.95	21987
851.085	22268
851.22	22177
851.355	22211
851.49	22070
851.625	22150
851.76	22055
851.895	22044
852.03	22010
852.165	22044
852.299	22131
852.434	22154
852.569	21994
852.703	22059
852.838	22223
852.973	22249
853.107	22139
853.242	22086
853.376	21994
853.511	21884
853.645	21884
853.78	21987
853.914	22067
854.048	21857
854.183	21998
854.317	22040
854.451	22090
854.585	21983
854.72	21846
854.854	21998
854.988	21930
855.122	22013
855.256	21831
855.39	22017
855.524	21991
855.658	21975
855.792	21899
855.926	21930
856.06	21998
856.194	22006
856.327	21911
856.461	21975
856.595	21964
856.729	21968
856.862	22055
856.996	21941
857.13	21956
857.263	22006
857.397	22055
857.53	21926
857.664	21987
857.797	21960
857.931	22021
858.064	21964
858.197	21975
858.331	21915
858.464	21922
858.597	21827
858.731	21945
858.864	21915
858.997	21964
859.13	21930
859.263	21911
859.396	21899
859.529	21888
859.662	21835
859.795	21892
859.928	21972
860.061	22131
860.194	22192
860.327	22082
860.46	21949
860.592	22051
860.725	22135
860.858	22048
860.99	21991
861.123	21778
861.256	21941
861.388	22040
861.521	22561
861.653	21797
861.786	21641
861.918	21842
862.05	21884
862.183	21937
862.315	21903
862.447	21915
862.58	21922
862.712	21705
862.844	21618
862.976	21808
863.108	21705
863.24	22025
863.372	21625
863.504	21709
863.636	21709
863.768	21679
863.9	21663
864.032	21557
864.164	21644
864.296	21747
864.428	21800
864.559	21846
864.691	21675
864.823	21580
864.954	21641
865.086	21713
865.217	21511
865.349	21511
865.48	21488
865.612	21492
865.743	21599
865.875	21511
866.006	21580
866.137	21485
866.269	21549
866.4	21488
866.531	21580
866.662	21435
866.793	21561
866.924	21496
867.055	21515
867.186	21439
867.317	21412
867.448	21329
867.579	21462
867.71	21412
867.841	21469
867.972	21492
868.103	21412
868.233	21431
868.364	21583
868.495	21553
868.625	21698
868.756	21728
868.886	21557
869.017	21648
869.147	21724
869.278	21732
869.408	21774
869.539	21713
869.669	21732
869.799	21652
869.929	21823
870.06	21797
870.19	21903
870.32	21983
870.45	21968
870.58	22090
870.71	22188
870.84	22192
870.97	22204
871.1	22086
871.23	22265
871.36	22375
871.489	22154
871.619	22272
871.749	22246
871.879	22371
872.008	22390
872.138	22413
872.267	22268
872.397	22185
872.526	22162
872.656	22147
872.785	22200
872.915	22306
873.044	22375
873.173	22280
873.303	22382
873.432	22291
873.561	22314
873.69	22352
873.819	22234
873.948	22325
874.077	22295
874.206	22341
874.335	22344
874.464	22519
874.593	22634
874.722	22436
874.851	22580
874.979	22519
875.108	22679
875.237	22424
875.365	22470
875.494	22478
875.623	22599
875.751	22645
875.88	22603
876.008	22656
876.136	22778
876.265	22866
876.393	23056
876.521	23003
876.65	23079
876.778	22949
876.906	22919
877.034	22797
877.162	22866
877.29	22774
877.418	22793
877.546	22900
877.674	22915
877.802	22904
877.93	22896
878.058	22801
878.185	22687
878.313	22824
878.441	22824
878.568	22694
878.696	22892
878.824	22835
878.951	22976
879.079	23071
879.206	23132
879.333	23147
879.461	22809
879.588	22999
879.715	23025
879.842	23292
879.97	23033
880.097	22774
880.224	22786
880.351	22702
880.478	22797
880.605	22679
880.732	22755
880.859	22866
880.986	22698
881.112	22824
881.239	22557
881.366	22485
881.493	22337
881.619	22329
881.746	22276
881.872	22196
881.999	22329
882.125	22173
882.252	22215
882.378	22299
882.505	22226
882.631	22013
882.757	22063
882.883	22070
883.01	21907
883.136	21911
883.262	21873
883.388	21656
883.514	21876
883.64	22036
883.766	21869
883.892	21644
884.018	21724
884.143	21762
884.269	21941
884.395	21663
884.52	21599
884.646	21622
884.772	21553
884.897	21477
885.023	21671
885.148	21694
885.274	21713
885.399	21682
885.524	21622
885.65	21591
885.775	21671
885.9	21679
886.025	21690
886.15	21629
886.275	21599
886.4	21515
886.525	21568
886.65	21545
886.775	21553
886.9	21614
887.025	21713
887.149	21599
887.274	21298
887.399	21424
887.523	21355
887.648	21313
887.773	21348
887.897	21481
888.021	21367
888.146	21439
888.27	21382
888.395	21435
888.519	21431
888.643	21492
888.767	21329
888.891	21275
889.015	21264
889.139	21188
889.263	21127
889.387	21222
889.511	21458
889.635	21344
889.759	21066
889.883	21161
890.006	21077
890.13	21317
890.254	21066
890.377	21001
890.501	20857
890.624	20830
890.748	20979
890.871	20788
890.995	20819
891.118	20636
891.241	20697
891.364	20636
891.488	20811
891.611	20807
891.734	20762
891.857	20743
891.98	20712
892.103	20792
892.226	20788
892.349	20697
892.471	20499
892.594	20663
892.717	20689
892.839	20682
892.962	20674
893.085	20754
893.207	20552
893.33	20613
893.452	20530
893.575	20739
893.697	20587
893.819	20739
893.941	20819
894.064	20632
894.186	20575
894.308	20571
894.43	20743
894.552	20773
894.674	20583
894.796	20564
894.918	20526
895.04	20640
895.161	20670
895.283	20587
895.405	20469
895.526	20537
895.648	20613
895.769	20731
895.891	20575
896.012	20636
896.134	20705
896.255	20587
896.376	20594
896.498	20648
896.619	20629
896.74	20625
896.861	20724
896.982	20967
897.103	21013
897.224	20906
897.345	20792
897.466	20872
897.587	20842
897.708	20944
897.828	20807
897.949	20804
898.07	20495
898.19	20705
898.311	20925
898.431	20834
898.552	20777
898.672	20887
898.792	20864
898.913	20785
899.033	20758
899.153	20609
899.273	20488
899.393	20537
899.513	20560
899.633	20556
899.753	20682
899.873	20476
899.993	20613
900.113	20530
900.232	20564
900.352	20488
900.472	20381
900.591	20351
900.711	20298
900.83	20259
900.95	20343
901.069	20347
901.189	20210
901.308	20065
901.427	19928
901.546	19974
901.665	19909
901.784	20001
901.904	19662
902.023	19670
902.141	19567
902.26	19441
902.379	19552
902.498	19483
902.617	19285
902.735	19415
902.854	19362
902.973	19354
903.091	19084
903.21	19057
903.328	18993
903.446	18996
903.565	18928
903.683	18772
903.801	18753
903.919	18772
904.038	18935
904.156	18673
904.274	18677
904.392	18566
904.51	18711
904.627	18661
904.745	18669
904.863	18684
904.981	18353
905.098	18311
905.216	18281
905.334	18353
905.451	18308
905.569	18289
905.686	18384
905.803	18391
905.921	18228
906.038	18133
906.155	18064
906.272	17984
906.389	18079
906.506	17783
906.623	17745
906.74	17828
906.857	17733
906.974	17752
907.091	17893
907.208	17935
907.324	17824
907.441	17707
907.557	17585
907.674	17551
907.79	17463
907.907	17459
908.023	17459
908.139	17448
908.256	17391
908.372	17524
908.488	17414
908.604	17334
908.72	17288
908.836	17349
908.952	17277
909.068	17345
909.184	17425
909.3	17197
909.415	17204
909.531	17307
909.647	17045
909.762	17037
909.878	16885
909.993	16805
910.108	16869
910.224	16984
910.339	16847
910.454	16904
910.57	16820
910.685	16687
910.8	17052
910.915	16877
911.03	16752
911.145	16656
911.259	16588
911.374	16615
911.489	16519
911.604	16493
911.718	16261
911.833	16276
911.947	16158
912.062	16105
912.176	16295
912.291	16303
912.405	16295
912.519	16497
912.633	16523
912.748	16287
912.862	16265
912.976	16029
913.09	16063
913.204	16059
913.318	16124
913.431	16246
913.545	16200
913.659	16261
913.772	16071
913.886	15956
914	15930
914.113	15937
914.226	16013
914.34	15941
914.453	15804
914.566	15983
914.68	15861
914.793	15732
914.906	15572
915.019	15515
915.132	15424
915.245	15481
915.358	15538
915.47	15561
915.583	15481
915.696	15458
915.809	15690
915.921	15656
916.034	15428
916.146	15370
916.259	15348
916.371	15526
916.483	15511
916.595	15340
916.708	15363
916.82	15287
916.932	15382
917.044	15313
917.156	15192
917.268	15112
917.38	15157
917.491	15066
917.603	15184
917.715	15230
917.826	15199
917.938	15062
918.049	14963
918.161	15074
918.272	15226
918.384	15173
918.495	15161
918.606	15020
918.717	14765
918.828	15032
918.939	14925
919.05	14807
919.161	14921
919.272	14743
919.383	14861
919.494	14986
919.604	15085
919.715	14906
919.826	14758
919.936	14781
920.047	14960
920.157	14918
920.267	15005
920.378	14849
920.488	14785
920.598	15093
920.708	15173
920.818	15058
920.928	15055
921.038	15180
921.148	15093
921.258	14758
921.368	14682
921.477	14583
921.587	14575
921.697	14473
921.806	14579
921.916	14442
922.025	14275
922.134	14271
922.244	14237
922.353	14259
922.462	14195
922.571	14035
922.68	13974
922.789	13849
922.898	13913
923.007	13807
923.116	13940
923.224	13909
923.333	13906
923.442	13769
923.55	13769
923.659	13738
923.767	13769
923.876	13651
923.984	13769
924.092	13616
924.201	13715
924.309	13605
924.417	13594
924.525	13533
924.633	13571
924.741	14366
924.849	13388
924.956	13426
925.064	13362
925.172	13240
925.279	13282
925.387	13316
925.494	13327
925.602	13354
925.709	13377
925.816	13194
925.924	13240
926.031	13297
926.138	13278
926.245	13263
926.352	13091
926.459	13244
926.566	13343
926.673	13118
926.779	12989
926.886	13027
926.993	12913
927.099	12856
927.206	12779
927.312	12745
927.419	12783
927.525	12783
927.631	12795
927.737	12772
927.843	12711
927.95	12593
928.056	12711
928.162	12654
928.267	12570
928.373	13365
928.479	12791
928.585	12410
928.69	12635
928.796	12601
928.901	12490
929.007	12426
929.112	12582
929.218	12479
929.323	12471
929.428	12464
929.533	12513
929.638	12292
929.743	12270
929.848	12308
929.953	12251
930.058	12228
930.163	11992
930.267	12106
930.372	12194
930.477	12030
930.581	12315
930.685	12121
930.79	11988
930.894	11843
930.998	11863
931.103	12026
931.207	11688
931.311	11627
931.415	11509
931.519	11326
931.623	11239
