Data from test_V78500241_1425.txt Node
Date: Fri Mar 25 15:51:40 CST 2022
User: usil
Spectrometer: V785-0024
Trigger mode: 0
Integration Time (sec): 4.000000E-1
Scans to average: 1
Nonlinearity correction enabled: false
Boxcar width: 0
Storing dark spectrum: false
XAxis mode: Wavelengths
Number of Pixels in Spectrum: 1024
>>>>>Begin Spectral Data<<<<<
801.071	28382
801.214	28382
801.356	28147
801.499	27937
801.641	27914
801.783	28067
801.926	27979
802.068	27937
802.211	27968
802.353	27888
802.496	27694
802.638	27622
802.78	27580
802.923	27587
803.065	27591
803.208	27656
803.35	27682
803.492	27743
803.635	27850
803.777	27804
803.919	27823
804.061	28295
804.204	27914
804.346	27781
804.488	27819
804.63	27857
804.773	27564
804.915	27774
805.057	27979
805.199	27804
805.341	27854
805.483	28063
805.626	28059
805.768	27918
805.91	27994
806.052	28029
806.194	28017
806.336	28223
806.478	27953
806.62	28067
806.762	28185
806.904	28394
807.046	28489
807.188	28443
807.33	28455
807.472	28641
807.614	28516
807.756	28424
807.898	28268
808.04	28257
808.182	28257
808.324	28405
808.465	28356
808.607	28634
808.749	28797
808.891	28630
809.033	28793
809.174	28710
809.316	28584
809.458	28615
809.6	28698
809.741	28660
809.883	28755
810.025	29086
810.166	28987
810.308	28991
810.45	28980
810.591	28946
810.733	28828
810.875	28649
811.016	28634
811.158	28679
811.299	28664
811.441	28862
811.582	28824
811.724	28755
811.865	28645
812.007	28649
812.148	28683
812.29	28694
812.431	28908
812.573	29018
812.714	29166
812.855	29159
812.997	29269
813.138	29318
813.279	29242
813.421	29269
813.562	29208
813.703	29056
813.845	28892
813.986	28535
814.127	28573
814.268	28493
814.41	28451
814.551	28291
814.692	28531
814.833	28249
814.974	28371
815.115	28493
815.256	28143
815.397	28185
815.539	28287
815.68	28188
815.821	28002
815.962	28192
816.103	28287
816.244	28177
816.385	27994
816.526	27960
816.666	27793
816.807	27713
816.948	27800
817.089	27934
817.23	27827
817.371	27644
817.512	27838
817.653	27751
817.793	27583
817.934	27599
818.075	27774
818.216	27595
818.356	27622
818.497	27583
818.638	27492
818.778	27500
818.919	27458
819.06	27553
819.2	27591
819.341	27660
819.481	27705
819.622	27800
819.762	27979
819.903	27876
820.043	27953
820.184	27781
820.324	27717
820.465	27903
820.605	27717
820.746	27736
820.886	27713
821.026	27739
821.167	27743
821.307	27884
821.447	27846
821.588	27736
821.728	27458
821.868	27378
822.008	27302
822.149	27222
822.289	27199
822.429	26861
822.569	26910
822.709	26853
822.849	26830
822.99	26773
823.13	26739
823.27	26640
823.41	26469
823.55	26408
823.69	26473
823.83	26419
823.97	26358
824.11	26317
824.25	26248
824.389	26374
824.529	26495
824.669	26317
824.809	26495
824.949	26434
825.089	26434
825.228	26434
825.368	26294
825.508	26229
825.648	26275
825.787	26298
825.927	26324
826.067	26431
826.206	26298
826.346	26218
826.485	26282
826.625	26138
826.765	26385
826.904	26229
827.044	26046
827.183	26069
827.323	26001
827.462	26031
827.601	25989
827.741	26024
827.88	26027
828.02	25681
828.159	25921
828.298	25944
828.437	26073
828.577	25856
828.716	26046
828.855	25917
828.994	25590
829.134	25803
829.273	25734
829.412	25651
829.551	25712
829.69	25514
829.829	25609
829.968	25830
830.107	25738
830.246	25624
830.385	25575
830.524	25533
830.663	25544
830.802	25449
830.941	25316
831.08	25145
831.219	25327
831.357	25312
831.496	25468
831.635	25194
831.774	25190
831.913	25160
832.051	25012
832.19	25114
832.329	25156
832.467	25004
832.606	24901
832.744	24817
832.883	24924
833.022	24981
833.16	24954
833.299	24894
833.437	25012
833.576	24935
833.714	25061
833.852	24992
833.991	25084
834.129	25099
834.267	25031
834.406	24935
834.544	24989
834.682	24970
834.821	24935
834.959	25168
835.097	24897
835.235	24973
835.373	24894
835.511	25008
835.65	24711
835.788	24810
835.926	24722
836.064	24513
836.202	24757
836.34	24867
836.478	24996
836.615	24844
836.753	24791
836.891	24848
837.029	24787
837.167	24821
837.305	24658
837.443	24711
837.58	24578
837.718	24601
837.856	24722
837.993	24673
838.131	24608
838.269	24623
838.406	24604
838.544	24426
838.681	24353
838.819	24182
838.956	24095
839.094	24186
839.231	24129
839.369	24315
839.506	24521
839.643	24384
839.781	24144
839.918	24087
840.055	24133
840.193	24148
840.33	24102
840.467	24110
840.604	24015
840.742	24372
840.879	23885
841.016	23980
841.153	23984
841.29	24007
841.427	23931
841.564	24133
841.701	23904
841.838	23961
841.975	23939
842.112	23870
842.249	23870
842.385	23695
842.522	24038
842.659	23813
842.796	23726
842.933	23809
843.069	23775
843.206	23843
843.343	23817
843.479	23718
843.616	23828
843.752	23566
843.889	23566
844.025	23687
844.162	23501
844.298	23653
844.435	23619
844.571	23570
844.708	23455
844.844	23592
844.98	23585
845.117	23684
845.253	23414
845.389	23501
845.525	23406
845.661	23433
845.798	23288
845.934	23368
846.07	23284
846.206	23353
846.342	23356
846.478	23318
846.614	23064
846.75	22957
846.886	23006
847.022	23067
847.158	22980
847.294	22949
847.429	23041
847.565	22881
847.701	23250
847.837	22763
847.972	22592
848.108	22793
848.244	22809
848.379	22641
848.515	22599
848.65	22550
848.786	22481
848.921	22668
849.057	22653
849.192	22740
849.328	22725
849.463	22527
849.598	22538
849.734	22630
849.869	22557
850.004	22371
850.14	22455
850.275	22322
850.41	22325
850.545	22272
850.68	22249
850.815	22333
850.95	22379
851.085	22622
851.22	22478
851.355	22367
851.49	22386
851.625	22337
851.76	22363
851.895	22204
852.03	22238
852.165	22337
852.299	22390
852.434	22325
852.569	22181
852.703	22360
852.838	22348
852.973	22523
853.107	22459
853.242	22310
853.376	22284
853.511	21937
853.645	22230
853.78	22310
853.914	22196
854.048	22143
854.183	22124
854.317	22169
854.451	22371
854.585	22051
854.72	22196
854.854	22295
854.988	22059
855.122	22219
855.256	22139
855.39	22230
855.524	22173
855.658	22253
855.792	22272
855.926	22234
856.06	22150
856.194	22280
856.327	22090
856.461	22029
856.595	22154
856.729	22120
856.862	22261
856.996	22128
857.13	22341
857.263	22314
857.397	22249
857.53	22169
857.664	22204
857.797	22211
857.931	22257
858.064	22215
858.197	22314
858.331	22181
858.464	21994
858.597	22063
858.731	22105
858.864	22067
858.997	22188
859.13	22158
859.263	22181
859.396	22124
859.529	22215
859.662	22059
859.795	22162
859.928	22135
860.061	22356
860.194	22337
860.327	22181
860.46	22166
860.592	22352
860.725	22329
860.858	22325
860.99	22291
861.123	22097
861.256	22105
861.388	21983
861.521	22869
861.653	22105
861.786	21797
861.918	21987
862.05	21998
862.183	22120
862.315	22154
862.447	22207
862.58	21983
862.712	21793
862.844	21835
862.976	21937
863.108	21983
863.24	22390
863.372	21739
863.504	21774
863.636	21953
863.768	21899
863.9	21873
864.032	21797
864.164	21915
864.296	21915
864.428	21892
864.559	21884
864.691	21835
864.823	21838
864.954	21728
865.086	21755
865.217	21709
865.349	21682
865.48	21724
865.612	21819
865.743	21918
865.875	21812
866.006	21652
866.137	21743
866.269	21747
866.4	21671
866.531	21656
866.662	21690
866.793	21679
866.924	21724
867.055	21751
867.186	21698
867.317	21679
867.448	21633
867.579	21549
867.71	21762
867.841	21610
867.972	21679
868.103	21587
868.233	21625
868.364	21709
868.495	21869
868.625	22006
868.756	22029
868.886	21842
869.017	21911
869.147	22078
869.278	21949
869.408	21842
869.539	21880
869.669	22048
869.799	22051
869.929	22097
870.06	21937
870.19	22196
870.32	22204
870.45	22272
870.58	22291
870.71	22413
870.84	22356
870.97	22447
871.1	22318
871.23	22367
871.36	22577
871.489	22352
871.619	22379
871.749	22512
871.879	22535
872.008	22710
872.138	22588
872.267	22573
872.397	22504
872.526	22379
872.656	22246
872.785	22348
872.915	22516
873.044	22599
873.173	22500
873.303	22584
873.432	22561
873.561	22653
873.69	22599
873.819	22466
873.948	22630
874.077	22634
874.206	22603
874.335	22535
874.464	22717
874.593	22755
874.722	22710
874.851	22816
874.979	22873
875.108	22953
875.237	22702
875.365	22596
875.494	22706
875.623	22873
875.751	22679
875.88	22793
876.008	22847
876.136	22972
876.265	23311
876.393	23273
876.521	23162
876.65	23303
876.778	23151
876.906	23083
877.034	23071
877.162	23227
877.29	23102
877.418	23071
877.546	23029
877.674	23075
877.802	23041
877.93	23143
878.058	23018
878.185	23018
878.313	23067
878.441	23208
878.568	22961
878.696	22972
878.824	23174
878.951	23174
879.079	23303
879.206	23448
879.333	23200
879.461	23170
879.588	23258
879.715	23334
879.842	23444
879.97	23227
880.097	22991
880.224	22934
880.351	23060
880.478	22961
880.605	22797
880.732	23003
880.859	23102
880.986	23006
881.112	22923
881.239	22767
881.366	22790
881.493	22588
881.619	22512
881.746	22462
881.872	22577
881.999	22538
882.125	22497
882.252	22470
882.378	22462
882.505	22470
882.631	22276
882.757	22257
882.883	22173
883.01	22188
883.136	22166
883.262	22074
883.388	22013
883.514	22101
883.64	22055
883.766	22093
883.892	21968
884.018	21975
884.143	22040
884.269	22272
884.395	21895
884.52	21793
884.646	21774
884.772	21747
884.897	21648
885.023	21717
885.148	21903
885.274	21972
885.399	21994
885.524	21728
885.65	21850
885.775	21876
885.9	21720
886.025	21903
886.15	21793
886.275	21831
886.4	21732
886.525	21743
886.65	21690
886.775	21641
886.9	21812
887.025	21975
887.149	21781
887.274	21679
887.399	21564
887.523	21633
887.648	21523
887.773	21530
887.897	21690
888.021	21622
888.146	21583
888.27	21675
888.395	21648
888.519	21587
888.643	21747
888.767	21660
888.891	21481
889.015	21389
889.139	21496
889.263	21294
889.387	21488
889.511	21507
889.635	21458
889.759	21306
889.883	21264
890.006	21264
890.13	21405
890.254	21386
890.377	21226
890.501	21047
890.624	20986
890.748	21070
890.871	20902
890.995	20967
891.118	20899
891.241	20838
891.364	20906
891.488	21093
891.611	20925
891.734	20979
891.857	21055
891.98	20971
892.103	21017
892.226	20864
892.349	20891
892.471	20617
892.594	20811
892.717	20826
892.839	20845
892.962	20785
893.085	20910
893.207	20762
893.33	20697
893.452	20674
893.575	20830
893.697	20754
893.819	21009
893.941	20998
894.064	20952
894.186	20781
894.308	20670
894.43	20883
894.552	20838
894.674	20769
894.796	20807
894.918	20769
895.04	20819
895.161	20925
895.283	20811
895.405	20693
895.526	20845
895.648	20845
895.769	20750
895.891	20838
896.012	20895
896.134	20807
896.255	20868
896.376	20670
896.498	20842
896.619	20845
896.74	20743
896.861	20845
896.982	21058
897.103	21260
897.224	21093
897.345	20941
897.466	20998
897.587	21051
897.708	21104
897.828	21096
897.949	20986
898.07	20842
898.19	20887
898.311	21108
898.431	20929
898.552	20834
898.672	21081
898.792	21173
898.913	20986
899.033	20910
899.153	20781
899.273	20556
899.393	20552
899.513	20743
899.633	20689
899.753	20670
899.873	20727
899.993	20807
900.113	20667
900.232	20701
900.352	20636
900.472	20590
900.591	20530
900.711	20492
900.83	20457
900.95	20613
901.069	20568
901.189	20374
901.308	20161
901.427	20008
901.546	20138
901.665	20035
901.784	20107
901.904	19887
902.023	19947
902.141	19742
902.26	19655
902.379	19662
902.498	19491
902.617	19499
902.735	19540
902.854	19559
902.973	19388
903.091	19259
903.21	19320
903.328	19270
903.446	19156
903.565	19031
903.683	19046
903.801	18962
903.919	18977
904.038	18932
904.156	18764
904.274	18837
904.392	18856
904.51	18806
904.627	18772
904.745	18840
904.863	18886
904.981	18585
905.098	18471
905.216	18502
905.334	18578
905.451	18467
905.569	18517
905.686	18559
905.803	18467
905.921	18216
906.038	18422
906.155	18388
906.272	18197
906.389	18155
906.506	18057
906.623	18007
906.74	18045
906.857	17878
906.974	17923
907.091	18038
907.208	17973
907.324	18095
907.441	17885
907.557	17726
907.674	17737
907.79	17634
907.907	17764
908.023	17760
908.139	17764
908.256	17646
908.372	17638
908.488	17570
908.604	17452
908.72	17372
908.836	17482
908.952	17391
909.068	17421
909.184	17608
909.3	17551
909.415	17482
909.531	17425
909.647	17159
909.762	17166
909.878	17083
909.993	17151
910.108	17102
910.224	17048
910.339	17147
910.454	16942
910.57	16911
910.685	16812
910.8	17216
910.915	17067
911.03	16900
911.145	16683
911.259	16763
911.374	16736
911.489	16691
911.604	16630
911.718	16474
911.833	16474
911.947	16417
912.062	16322
912.176	16504
912.291	16508
912.405	16474
912.519	16637
912.633	16679
912.748	16519
912.862	16470
912.976	16303
913.09	16067
913.204	16192
913.318	16265
913.431	16344
913.545	16356
913.659	16424
913.772	16166
913.886	16082
914	16017
914.113	16086
914.226	16074
914.34	16116
914.453	15918
914.566	16143
914.68	15983
914.793	15934
914.906	15816
915.019	15675
915.132	15618
915.245	15633
915.358	15671
915.47	15679
915.583	15709
915.696	15698
915.809	15701
915.921	15766
916.034	15568
916.146	15538
916.259	15530
916.371	15667
916.483	15526
916.595	15458
916.708	15374
916.82	15370
916.932	15481
917.044	15310
917.156	15405
917.268	15359
917.38	15389
917.491	15279
917.603	15329
917.715	15340
917.826	15515
917.938	15161
918.049	15127
918.161	15203
918.272	15454
918.384	15401
918.495	15104
918.606	15074
918.717	14971
918.828	14975
918.939	15123
919.05	14921
919.161	14986
919.272	14792
919.383	14899
919.494	15077
919.604	15272
919.715	15032
919.826	14918
919.936	14937
920.047	15036
920.157	14975
920.267	15146
920.378	15001
920.488	14929
920.598	15173
920.708	15294
920.818	15085
920.928	15138
921.038	15241
921.148	15157
921.258	14883
921.368	14750
921.477	14697
921.587	14720
921.697	14594
921.806	14758
921.916	14450
922.025	14404
922.134	14347
922.244	14358
922.353	14423
922.462	14142
922.571	14225
922.68	14012
922.789	13921
922.898	14096
923.007	13879
923.116	13974
923.224	13936
923.333	13875
923.442	13856
923.55	13826
923.659	13849
923.767	13913
923.876	13700
923.984	13731
924.092	13753
924.201	13689
924.309	13738
924.417	13662
924.525	13700
924.633	13636
924.741	14381
924.849	13468
924.956	13521
925.064	13430
925.172	13312
925.279	13381
925.387	13426
925.494	13331
925.602	13575
925.709	13468
925.816	13240
925.924	13377
926.031	13396
926.138	13362
926.245	13388
926.352	13149
926.459	13312
926.566	13358
926.673	13217
926.779	13110
926.886	13149
926.993	12973
927.099	12909
927.206	12901
927.312	12863
927.419	12821
927.525	12928
927.631	12871
927.737	12859
927.843	12719
927.95	12719
928.056	12722
928.162	12741
928.267	12749
928.373	13426
928.479	12814
928.585	12498
928.69	12669
928.796	12745
928.901	12566
929.007	12479
929.112	12658
929.218	12608
929.323	12467
929.428	12448
929.533	12566
929.638	12388
929.743	12376
929.848	12437
929.953	12315
930.058	12235
930.163	12057
930.267	12171
930.372	12266
930.477	12049
930.581	12273
930.685	12235
930.79	11996
930.894	11969
930.998	11965
931.103	12095
931.207	11775
931.311	11688
931.415	11604
931.519	11440
931.623	11383
