Data from test_V78500241_2920.txt Node
Date: Fri Mar 25 16:02:01 CST 2022
User: usil
Spectrometer: V785-0024
Trigger mode: 0
Integration Time (sec): 4.000000E-1
Scans to average: 1
Nonlinearity correction enabled: false
Boxcar width: 0
Storing dark spectrum: false
XAxis mode: Wavelengths
Number of Pixels in Spectrum: 1024
>>>>>Begin Spectral Data<<<<<
801.071	28820
801.214	28759
801.356	28531
801.499	28451
801.641	28401
801.783	28447
801.926	28508
802.068	28314
802.211	28382
802.353	28367
802.496	28268
802.638	28135
802.78	28010
802.923	27903
803.065	27937
803.208	28044
803.35	28124
803.492	28188
803.635	28287
803.777	28139
803.919	28169
804.061	28649
804.204	28299
804.346	28325
804.488	28173
804.63	28230
804.773	28246
804.915	28223
805.057	28485
805.199	28169
805.341	28314
805.483	28554
805.626	28432
805.768	28421
805.91	28386
806.052	28447
806.194	28299
806.336	28538
806.478	28474
806.62	28272
806.762	28759
806.904	28698
807.046	29048
807.188	28923
807.33	28790
807.472	29025
807.614	28862
807.756	28793
807.898	28725
808.04	28744
808.182	28672
808.324	28828
808.465	28828
808.607	28968
808.749	29227
808.891	29170
809.033	29334
809.174	29326
809.316	29204
809.458	29227
809.6	29075
809.741	29185
809.883	29178
810.025	29478
810.166	29455
810.308	29459
810.45	29467
810.591	29345
810.733	29208
810.875	29136
811.016	29140
811.158	28934
811.299	29223
811.441	29242
811.582	29417
811.724	29296
811.865	29223
812.007	29250
812.148	29356
812.29	29098
812.431	29433
812.573	29402
812.714	29577
812.855	29775
812.997	29764
813.138	29954
813.279	29870
813.421	29687
813.562	29684
813.703	29482
813.845	29429
813.986	29143
814.127	29090
814.268	28778
814.41	28930
814.551	28972
814.692	28888
814.833	28812
814.974	28801
815.115	28881
815.256	28691
815.397	28847
815.539	28801
815.68	28660
815.821	28584
815.962	28694
816.103	28596
816.244	28641
816.385	28481
816.526	28512
816.666	28409
816.807	28211
816.948	28238
817.089	28306
817.23	28401
817.371	28226
817.512	28219
817.653	28207
817.793	28150
817.934	28230
818.075	28173
818.216	28284
818.356	28074
818.497	28120
818.638	27994
818.778	27956
818.919	27983
819.06	27960
819.2	28276
819.341	28200
819.481	28242
819.622	28440
819.762	28679
819.903	28485
820.043	28371
820.184	28470
820.324	28413
820.465	28436
820.605	28268
820.746	28375
820.886	28230
821.026	28253
821.167	28363
821.307	28405
821.447	28158
821.588	28150
821.728	28006
821.868	27865
822.008	27717
822.149	27705
822.289	27614
822.429	27332
822.569	27313
822.709	27359
822.849	27192
822.99	27260
823.13	27161
823.27	27283
823.41	27055
823.55	26861
823.69	27104
823.83	27043
823.97	26956
824.11	26746
824.25	26914
824.389	26899
824.529	26845
824.669	26762
824.809	27081
824.949	26986
825.089	26967
825.228	27009
825.368	26655
825.508	26663
825.648	26815
825.787	26735
825.927	26925
826.067	26659
826.206	26705
826.346	26773
826.485	26815
826.625	26739
826.765	26891
826.904	26830
827.044	26575
827.183	26564
827.323	26419
827.462	26492
827.601	26636
827.741	26389
827.88	26343
828.02	26419
828.159	26377
828.298	26583
828.437	26533
828.577	26313
828.716	26522
828.855	26423
828.994	26168
829.134	26183
829.273	26164
829.412	26122
829.551	26077
829.69	26046
829.829	26046
829.968	26218
830.107	26199
830.246	26202
830.385	26130
830.524	25970
830.663	25963
830.802	25841
830.941	25860
831.08	25818
831.219	25799
831.357	25795
831.496	25993
831.635	25784
831.774	25769
831.913	25415
832.051	25613
832.19	25537
832.329	25628
832.467	25434
832.606	25232
832.744	25278
832.883	25415
833.022	25392
833.16	25346
833.299	25411
833.437	25605
833.576	25476
833.714	25582
833.852	25434
833.991	25556
834.129	25479
834.267	25441
834.406	25537
834.544	25468
834.682	25457
834.821	25335
834.959	25563
835.097	25422
835.235	25529
835.373	25445
835.511	25426
835.65	25377
835.788	25392
835.926	25110
836.064	25133
836.202	25133
836.34	25434
836.478	25301
836.615	25232
836.753	25350
836.891	25369
837.029	25225
837.167	25354
837.305	25331
837.443	25327
837.58	25164
837.718	25202
837.856	25194
837.993	25088
838.131	25080
838.269	24962
838.406	25050
838.544	24875
838.681	24719
838.819	24711
838.956	24707
839.094	24681
839.231	24642
839.369	24901
839.506	25023
839.643	24817
839.781	24681
839.918	24479
840.055	24700
840.193	24521
840.33	24661
840.467	24532
840.604	24677
840.742	24798
840.879	24391
841.016	24479
841.153	24479
841.29	24563
841.427	24494
841.564	24544
841.701	24566
841.838	24608
841.975	24410
842.112	24426
842.249	24384
842.385	24327
842.522	24536
842.659	24445
842.796	24372
842.933	24247
843.069	24391
843.206	24235
843.343	24277
843.479	24190
843.616	24178
843.752	23999
843.889	24003
844.025	24155
844.162	24064
844.298	24251
844.435	24026
844.571	24087
844.708	24133
844.844	24357
844.98	24209
845.117	24235
845.253	24121
845.389	23878
845.525	23908
845.661	23863
845.798	23756
845.934	23893
846.07	23737
846.206	23752
846.342	23855
846.478	23775
846.614	23710
846.75	23459
846.886	23547
847.022	23649
847.158	23589
847.294	23547
847.429	23577
847.565	23551
847.701	23851
847.837	23254
847.972	23269
848.108	23337
848.244	23280
848.379	23185
848.515	23178
848.65	23086
848.786	23060
848.921	23025
849.057	23292
849.192	23242
849.328	23368
849.463	23022
849.598	23105
849.734	22984
849.869	23060
850.004	22881
850.14	22972
850.275	22881
850.41	22881
850.545	22831
850.68	22873
850.815	22881
850.95	22839
851.085	23029
851.22	22957
851.355	22812
851.49	22854
851.625	22793
851.76	22790
851.895	22759
852.03	22755
852.165	22828
852.299	22896
852.434	22900
852.569	22904
852.703	22809
852.838	22835
852.973	22938
853.107	23022
853.242	22793
853.376	22725
853.511	22603
853.645	22641
853.78	22816
853.914	22675
854.048	22584
854.183	22622
854.317	22755
854.451	22991
854.585	22812
854.72	22748
854.854	22713
854.988	22615
855.122	22691
855.256	22569
855.39	22664
855.524	22854
855.658	22797
855.792	22706
855.926	22649
856.06	22744
856.194	22843
856.327	22656
856.461	22637
856.595	22580
856.729	22702
856.862	22759
856.996	22694
857.13	22831
857.263	22790
857.397	22740
857.53	22630
857.664	22679
857.797	22679
857.931	22748
858.064	22733
858.197	22721
858.331	22641
858.464	22702
858.597	22683
858.731	22683
858.864	22580
858.997	22752
859.13	22626
859.263	22729
859.396	22873
859.529	22649
859.662	22611
859.795	22687
859.928	22740
860.061	22778
860.194	22835
860.327	22763
860.46	22763
860.592	22717
860.725	22782
860.858	22828
860.99	22573
861.123	22615
861.256	22493
861.388	22691
861.521	23402
861.653	22599
861.786	22405
861.918	22459
862.05	22489
862.183	22565
862.315	22713
862.447	22569
862.58	22626
862.712	22569
862.844	22337
862.976	22535
863.108	22379
863.24	22923
863.372	22287
863.504	22375
863.636	22363
863.768	22481
863.9	22394
864.032	22409
864.164	22402
864.296	22325
864.428	22447
864.559	22295
864.691	22474
864.823	22413
864.954	22299
865.086	22386
865.217	22242
865.349	22268
865.48	22257
865.612	22249
865.743	22424
865.875	22284
866.006	22238
866.137	22200
866.269	22226
866.4	22207
866.531	22295
866.662	22112
866.793	22166
866.924	22109
867.055	22268
867.186	22249
867.317	22230
867.448	22109
867.579	22112
867.71	22128
867.841	22124
867.972	22356
868.103	22177
868.233	22150
868.364	22219
868.495	22234
868.625	22356
868.756	22462
868.886	22443
869.017	22474
869.147	22504
869.278	22584
869.408	22417
869.539	22478
869.669	22554
869.799	22398
869.929	22611
870.06	22531
870.19	22733
870.32	22767
870.45	22782
870.58	22828
870.71	22968
870.84	22900
870.97	22908
871.1	22843
871.23	22995
871.36	23052
871.489	22995
871.619	23022
871.749	23067
871.879	23022
872.008	23143
872.138	22991
872.267	23025
872.397	22904
872.526	22801
872.656	22812
872.785	22877
872.915	22968
873.044	23162
873.173	23124
873.303	23090
873.432	23143
873.561	23239
873.69	23018
873.819	23071
873.948	23200
874.077	23060
874.206	23025
874.335	23006
874.464	23170
874.593	23223
874.722	23239
874.851	23299
874.979	23288
875.108	23277
875.237	23258
875.365	23147
875.494	23296
875.623	23341
875.751	23147
875.88	23216
876.008	23421
876.136	23440
876.265	23573
876.393	23764
876.521	23741
876.65	23672
876.778	23657
876.906	23619
877.034	23611
877.162	23589
877.29	23493
877.418	23634
877.546	23554
877.674	23512
877.802	23410
877.93	23615
878.058	23551
878.185	23512
878.313	23493
878.441	23642
878.568	23379
878.696	23482
878.824	23577
878.951	23627
879.079	23786
879.206	23878
879.333	23874
879.461	23630
879.588	23775
879.715	23726
879.842	23771
879.97	23703
880.097	23570
880.224	23402
880.351	23368
880.478	23353
880.605	23341
880.732	23444
880.859	23596
880.986	23303
881.112	23383
881.239	23402
881.366	23124
881.493	22942
881.619	23117
881.746	22942
881.872	23041
881.999	22984
882.125	22927
882.252	22957
882.378	22949
882.505	23014
882.631	22862
882.757	22752
882.883	22641
883.01	22706
883.136	22561
883.262	22550
883.388	22523
883.514	22710
883.64	22634
883.766	22691
883.892	22440
884.018	22455
884.143	22596
884.269	22660
884.395	22367
884.52	22318
884.646	22318
884.772	22249
884.897	22234
885.023	22329
885.148	22409
885.274	22485
885.399	22329
885.524	22287
885.65	22280
885.775	22200
885.9	22253
886.025	22428
886.15	22295
886.275	22280
886.4	22166
886.525	22177
886.65	22181
886.775	22230
886.9	22356
887.025	22455
887.149	22257
887.274	22158
887.399	21998
887.523	22044
887.648	21911
887.773	21797
887.897	22029
888.021	22101
888.146	21873
888.27	22086
888.395	22093
888.519	21979
888.643	22029
888.767	22051
888.891	21941
889.015	21789
889.139	21823
889.263	21717
889.387	21873
889.511	21922
889.635	21937
889.759	21884
889.883	21759
890.006	21800
890.13	21956
890.254	21739
890.377	21580
890.501	21564
890.624	21511
890.748	21572
890.871	21443
890.995	21363
891.118	21302
891.241	21355
891.364	21458
891.488	21523
891.611	21351
891.734	21332
891.857	21405
891.98	21249
892.103	21382
892.226	21397
892.349	21272
892.471	21154
892.594	21260
892.717	21370
892.839	21066
892.962	21188
893.085	21416
893.207	21165
893.33	21138
893.452	21123
893.575	21256
893.697	21230
893.819	21450
893.941	21488
894.064	21393
894.186	21199
894.308	21119
894.43	21435
894.552	21294
894.674	21310
894.796	21062
894.918	21275
895.04	21154
895.161	21332
895.283	21348
895.405	21096
895.526	21237
895.648	21249
895.769	21340
895.891	21245
896.012	21287
896.134	21222
896.255	21431
896.376	21146
896.498	21154
896.619	21260
896.74	21184
896.861	21252
896.982	21606
897.103	21660
897.224	21515
897.345	21519
897.466	21500
897.587	21500
897.708	21667
897.828	21401
897.949	21386
898.07	21306
898.19	21401
898.311	21435
898.431	21378
898.552	21355
898.672	21462
898.792	21412
898.913	21473
899.033	21283
899.153	21272
899.273	21093
899.393	21116
899.513	21154
899.633	21188
899.753	21214
899.873	21032
899.993	21150
900.113	21028
900.232	20998
900.352	21024
900.472	20952
900.591	20826
900.711	20979
900.83	20925
900.95	20975
901.069	20979
901.189	20754
901.308	20640
901.427	20450
901.546	20461
901.665	20499
901.784	20457
901.904	20309
902.023	20278
902.141	20054
902.26	19902
902.379	20088
902.498	19944
902.617	19955
902.735	19982
902.854	19894
902.973	19750
903.091	19780
903.21	19529
903.328	19605
903.446	19453
903.565	19487
903.683	19556
903.801	19369
903.919	19419
904.038	19316
904.156	19236
904.274	19270
904.392	19301
904.51	19282
904.627	19095
904.745	19274
904.863	19179
904.981	18913
905.098	18939
905.216	18973
905.334	18901
905.451	18844
905.569	18905
905.686	18932
905.803	18837
905.921	18661
906.038	18730
906.155	18642
906.272	18498
906.389	18646
906.506	18448
906.623	18422
906.74	18422
906.857	18296
906.974	18273
907.091	18357
907.208	18483
907.324	18376
907.441	18228
907.557	18091
907.674	18095
907.79	18026
907.907	17980
908.023	18022
908.139	18026
908.256	17954
908.372	18076
908.488	17920
908.604	17775
908.72	17813
908.836	17783
908.952	17779
909.068	17741
909.184	17950
909.3	17718
909.415	17855
909.531	17790
909.647	17611
909.762	17478
909.878	17452
909.993	17592
910.108	17467
910.224	17493
910.339	17455
910.454	17383
910.57	17299
910.685	17326
910.8	17486
910.915	17406
911.03	17337
911.145	17117
911.259	17014
911.374	17037
911.489	17041
911.604	17003
911.718	16778
911.833	16885
911.947	16843
912.062	16736
912.176	16816
912.291	16816
912.405	16778
912.519	16938
912.633	16942
912.748	16904
912.862	16740
912.976	16626
913.09	16573
913.204	16580
913.318	16683
913.431	16721
913.545	16816
913.659	16744
913.772	16691
913.886	16516
914	16413
914.113	16451
914.226	16558
914.34	16542
914.453	16348
914.566	16474
914.68	16447
914.793	16219
914.906	15991
915.019	15987
915.132	15994
915.245	15975
915.358	15998
915.47	16063
915.583	16093
915.696	15979
915.809	16200
915.921	16150
916.034	15964
916.146	15983
916.259	15888
916.371	15983
916.483	15934
916.595	15823
916.708	15892
916.82	15778
916.932	15789
917.044	15717
917.156	15789
917.268	15724
917.38	15610
917.491	15732
917.603	15599
917.715	15739
917.826	15713
917.938	15587
918.049	15462
918.161	15572
918.272	15785
918.384	15538
918.495	15580
918.606	15462
918.717	15389
918.828	15370
918.939	15287
919.05	15249
919.161	15359
919.272	15173
919.383	15199
919.494	15424
919.604	15595
919.715	15321
919.826	15249
919.936	15245
920.047	15401
920.157	15310
920.267	15424
920.378	15351
920.488	15336
920.598	15424
920.708	15652
920.818	15481
920.928	15424
921.038	15488
921.148	15667
921.258	15237
921.368	15165
921.477	15055
921.587	14998
921.697	14906
921.806	15055
921.916	14876
922.025	14712
922.134	14765
922.244	14606
922.353	14727
922.462	14537
922.571	14427
922.68	14358
922.789	14343
922.898	14355
923.007	14263
923.116	14294
923.224	14358
923.333	14320
923.442	14107
923.55	14126
923.659	14130
923.767	14206
923.876	14084
923.984	14149
924.092	13963
924.201	14035
924.309	14012
924.417	14001
924.525	13955
924.633	13944
924.741	14941
924.849	13761
924.956	13898
925.064	13674
925.172	13715
925.279	13693
925.387	13715
925.494	13830
925.602	13868
925.709	13750
925.816	13571
925.924	13708
926.031	13719
926.138	13597
926.245	13643
926.352	13518
926.459	13693
926.566	13643
926.673	13457
926.779	13354
926.886	13476
926.993	13293
927.099	13209
927.206	13194
927.312	13137
927.419	13285
927.525	13240
927.631	13190
927.737	13190
927.843	12977
927.95	12973
928.056	13008
928.162	13004
928.267	13050
928.373	13685
928.479	13171
928.585	12871
928.69	13053
928.796	13008
928.901	12875
929.007	12764
929.112	12890
929.218	12920
929.323	12779
929.428	12730
929.533	12871
929.638	12620
929.743	12639
929.848	12726
929.953	12726
930.058	12566
930.163	12403
930.267	12452
930.372	12544
930.477	12319
930.581	12646
930.685	12426
930.79	12277
930.894	12353
930.998	12232
931.103	12403
931.207	12015
931.311	12019
931.415	11847
931.519	11676
931.623	11558
