Data from test_V78500241_2540.txt Node
Date: Fri Mar 25 15:59:23 CST 2022
User: usil
Spectrometer: V785-0024
Trigger mode: 0
Integration Time (sec): 4.000000E-1
Scans to average: 1
Nonlinearity correction enabled: false
Boxcar width: 0
Storing dark spectrum: false
XAxis mode: Wavelengths
Number of Pixels in Spectrum: 1024
>>>>>Begin Spectral Data<<<<<
801.071	28538
801.214	28493
801.356	28295
801.499	28284
801.641	28196
801.783	28196
801.926	28238
802.068	28181
802.211	28090
802.353	27949
802.496	27964
802.638	27804
802.78	27876
802.923	27652
803.065	27709
803.208	27732
803.35	27899
803.492	27953
803.635	28025
803.777	28025
803.919	28078
804.061	28367
804.204	28097
804.346	27850
804.488	27895
804.63	28059
804.773	27922
804.915	28116
805.057	28162
805.199	28093
805.341	28063
805.483	28124
805.626	28333
805.768	28074
805.91	28287
806.052	28166
806.194	28116
806.336	28398
806.478	28246
806.62	28226
806.762	28306
806.904	28535
807.046	28736
807.188	28744
807.33	28504
807.472	28862
807.614	28660
807.756	28634
807.898	28523
808.04	28535
808.182	28447
808.324	28569
808.465	28649
808.607	28919
808.749	28812
808.891	28995
809.033	29041
809.174	29132
809.316	28828
809.458	28949
809.6	28915
809.741	29003
809.883	28995
810.025	29174
810.166	29227
810.308	29178
810.45	29067
810.591	29064
810.733	28904
810.875	28805
811.016	28778
811.158	28774
811.299	29098
811.441	29143
811.582	29022
811.724	28984
811.865	28984
812.007	29010
812.148	28805
812.29	29044
812.431	29079
812.573	29239
812.714	29368
812.855	29311
812.997	29436
813.138	29680
813.279	29543
813.421	29353
813.562	29269
813.703	29303
813.845	29067
813.986	28984
814.127	28793
814.268	28592
814.41	28637
814.551	28516
814.692	28660
814.833	28634
814.974	28489
815.115	28622
815.256	28592
815.397	28497
815.539	28569
815.68	28550
815.821	28348
815.962	28436
816.103	28306
816.244	28379
816.385	28234
816.526	28246
816.666	28044
816.807	27873
816.948	27987
817.089	28044
817.23	27850
817.371	27998
817.512	27903
817.653	28002
817.793	27797
817.934	27972
818.075	27895
818.216	27953
818.356	27880
818.497	27880
818.638	27694
818.778	27694
818.919	27732
819.06	27778
819.2	27892
819.341	27956
819.481	27911
819.622	28120
819.762	28379
819.903	28314
820.043	28272
820.184	27979
820.324	28128
820.465	28124
820.605	28143
820.746	28017
820.886	27949
821.026	27987
821.167	27994
821.307	27983
821.447	27945
821.588	27937
821.728	27797
821.868	27633
822.008	27511
822.149	27477
822.289	27245
822.429	27070
822.569	27001
822.709	27051
822.849	26880
822.99	26933
823.13	26800
823.27	26963
823.41	26758
823.55	26644
823.69	26792
823.83	26594
823.97	26670
824.11	26526
824.25	26522
824.389	26629
824.529	26686
824.669	26415
824.809	26571
824.949	26705
825.089	26743
825.228	26629
825.368	26419
825.508	26469
825.648	26446
825.787	26427
825.927	26488
826.067	26419
826.206	26465
826.346	26495
826.485	26484
826.625	26465
826.765	26541
826.904	26518
827.044	26282
827.183	26240
827.323	26259
827.462	26168
827.601	26096
827.741	26062
827.88	26202
828.02	26164
828.159	26058
828.298	26043
828.437	26187
828.577	26157
828.716	26130
828.855	26119
828.994	25887
829.134	25894
829.273	25811
829.412	25731
829.551	25772
829.69	25833
829.829	25947
829.968	25966
830.107	25966
830.246	25837
830.385	25727
830.524	25830
830.663	25677
830.802	25540
830.941	25586
831.08	25369
831.219	25506
831.357	25525
831.496	25700
831.635	25392
831.774	25293
831.913	25316
832.051	25259
832.19	25148
832.329	25221
832.467	25171
832.606	25206
832.744	25015
832.883	25107
833.022	25057
833.16	25145
833.299	25160
833.437	25061
833.576	25171
833.714	25091
833.852	25232
833.991	25225
834.129	25289
834.267	25266
834.406	25148
834.544	25171
834.682	25137
834.821	25133
834.959	25240
835.097	25164
835.235	25171
835.373	25209
835.511	25107
835.65	25023
835.788	25053
835.926	24821
836.064	24757
836.202	24852
836.34	25080
836.478	25095
836.615	24916
836.753	24973
836.891	25069
837.029	25023
837.167	24924
837.305	24840
837.443	24738
837.58	24798
837.718	24909
837.856	24924
837.993	24791
838.131	24867
838.269	24635
838.406	24764
838.544	24654
838.681	24437
838.819	24502
838.956	24308
839.094	24239
839.231	24445
839.369	24342
839.506	24681
839.643	24437
839.781	24357
839.918	24258
840.055	24285
840.193	24254
840.33	24300
840.467	24114
840.604	24243
840.742	24483
840.879	23954
841.016	24144
841.153	24091
841.29	24254
841.427	24148
841.564	24243
841.701	24148
841.838	24171
841.975	24117
842.112	24235
842.249	24178
842.385	23980
842.522	24091
842.659	23950
842.796	24034
842.933	23931
843.069	23912
843.206	23965
843.343	23954
843.479	23882
843.616	23847
843.752	23691
843.889	23767
844.025	23980
844.162	23729
844.298	23714
844.435	23695
844.571	23748
844.708	23840
844.844	23923
844.98	23866
845.117	23783
845.253	23672
845.389	23592
845.525	23653
845.661	23391
845.798	23482
845.934	23482
846.07	23433
846.206	23490
846.342	23570
846.478	23429
846.614	23269
846.75	23025
846.886	23147
847.022	23223
847.158	23204
847.294	23250
847.429	23391
847.565	23136
847.701	23402
847.837	23067
847.972	22805
848.108	22999
848.244	23010
848.379	22782
848.515	22622
848.65	22824
848.786	22736
848.921	22759
849.057	22862
849.192	22877
849.328	22755
849.463	22839
849.598	22748
849.734	22626
849.869	22626
850.004	22497
850.14	22516
850.275	22622
850.41	22455
850.545	22493
850.68	22550
850.815	22615
850.95	22557
851.085	22653
851.22	22653
851.355	22478
851.49	22478
851.625	22481
851.76	22493
851.895	22447
852.03	22455
852.165	22580
852.299	22580
852.434	22592
852.569	22550
852.703	22512
852.838	22683
852.973	22645
853.107	22641
853.242	22470
853.376	22432
853.511	22337
853.645	22238
853.78	22436
853.914	22390
854.048	22344
854.183	22322
854.317	22436
854.451	22573
854.585	22223
854.72	22280
854.854	22371
854.988	22242
855.122	22306
855.256	22367
855.39	22314
855.524	22577
855.658	22310
855.792	22394
855.926	22265
856.06	22485
856.194	22360
856.327	22337
856.461	22325
856.595	22291
856.729	22356
856.862	22451
856.996	22451
857.13	22352
857.263	22375
857.397	22421
857.53	22333
857.664	22382
857.797	22424
857.931	22447
858.064	22371
858.197	22394
858.331	22318
858.464	22265
858.597	22314
858.731	22371
858.864	22546
858.997	22303
859.13	22242
859.263	22360
859.396	22417
859.529	22272
859.662	22424
859.795	22215
859.928	22360
860.061	22554
860.194	22516
860.327	22497
860.46	22367
860.592	22462
860.725	22603
860.858	22432
860.99	22390
861.123	22348
861.256	22257
861.388	22249
861.521	23048
861.653	22207
861.786	22078
861.918	22185
862.05	22268
862.183	22246
862.315	22173
862.447	22306
862.58	22261
862.712	22173
862.844	22059
862.976	22124
863.108	22086
863.24	22546
863.372	21987
863.504	21934
863.636	22032
863.768	22101
863.9	22040
864.032	21937
864.164	22120
864.296	22097
864.428	22070
864.559	22143
864.691	22185
864.823	22074
864.954	22105
865.086	22032
865.217	21934
865.349	21876
865.48	21960
865.612	21895
865.743	22040
865.875	21968
866.006	21823
866.137	21945
866.269	21972
866.4	21819
866.531	21895
866.662	21842
866.793	21812
866.924	21964
867.055	21899
867.186	21888
867.317	21739
867.448	21793
867.579	21884
867.71	21892
867.841	21835
867.972	21922
868.103	21774
868.233	21934
868.364	21918
868.495	21964
868.625	22143
868.756	22139
868.886	22021
869.017	22169
869.147	22185
869.278	22257
869.408	22120
869.539	22025
869.669	22211
869.799	22211
869.929	22219
870.06	22226
870.19	22440
870.32	22375
870.45	22466
870.58	22542
870.71	22599
870.84	22550
870.97	22512
871.1	22538
871.23	22729
871.36	22721
871.489	22481
871.619	22603
871.749	22683
871.879	22782
872.008	22869
872.138	22729
872.267	22702
872.397	22611
872.526	22550
872.656	22489
872.785	22527
872.915	22698
873.044	22885
873.173	22702
873.303	22904
873.432	22698
873.561	22778
873.69	22637
873.819	22702
873.948	22866
874.077	22778
874.206	22683
874.335	22713
874.464	22828
874.593	23037
874.722	22972
874.851	22957
874.979	22976
875.108	23018
875.237	22949
875.365	22816
875.494	22972
875.623	22976
875.751	22949
875.88	23048
876.008	23086
876.136	23155
876.265	23360
876.393	23558
876.521	23311
876.65	23452
876.778	23368
876.906	23220
877.034	23246
877.162	23330
877.29	23181
877.418	23299
877.546	23315
877.674	23242
877.802	23440
877.93	23307
878.058	23193
878.185	23124
878.313	23185
878.441	23242
878.568	23166
878.696	23200
878.824	23337
878.951	23368
879.079	23501
879.206	23638
879.333	23467
879.461	23242
879.588	23436
879.715	23448
879.842	23566
879.97	23376
880.097	23162
880.224	23090
880.351	22999
880.478	23159
880.605	23079
880.732	23037
880.859	23402
880.986	23105
881.112	23231
881.239	22976
881.366	22854
881.493	22725
881.619	22660
881.746	22641
881.872	22592
881.999	22679
882.125	22569
882.252	22710
882.378	22580
882.505	22812
882.631	22474
882.757	22379
882.883	22436
883.01	22348
883.136	22154
883.262	22188
883.388	22158
883.514	22474
883.64	22348
883.766	22185
883.892	22090
884.018	22166
884.143	22329
884.269	22333
884.395	22120
884.52	21899
884.646	21994
884.772	22013
884.897	21857
885.023	22036
885.148	22086
885.274	22067
885.399	22067
885.524	21922
885.65	21972
885.775	22135
885.9	22048
886.025	22147
886.15	22067
886.275	21922
886.4	21922
886.525	21880
886.65	22051
886.775	21926
886.9	22112
887.025	22234
887.149	21975
887.274	21728
887.399	21675
887.523	21797
887.648	21671
887.773	21564
887.897	21857
888.021	21842
888.146	21671
888.27	21827
888.395	21964
888.519	21781
888.643	21682
888.767	21800
888.891	21660
889.015	21469
889.139	21591
889.263	21447
889.387	21671
889.511	21850
889.635	21671
889.759	21557
889.883	21439
890.006	21507
890.13	21545
890.254	21370
890.377	21530
890.501	21256
890.624	21325
890.748	21348
890.871	21150
890.995	21093
891.118	21009
891.241	20979
891.364	21009
891.488	21165
891.611	21116
891.734	21135
891.857	21138
891.98	21066
892.103	21070
892.226	21020
892.349	21036
892.471	20811
892.594	20994
892.717	21127
892.839	21020
892.962	21028
893.085	21047
893.207	20910
893.33	20918
893.452	20929
893.575	21104
893.697	20880
893.819	21195
893.941	21184
894.064	21135
894.186	20986
894.308	20906
894.43	21116
894.552	21089
894.674	20975
894.796	20861
894.918	21074
895.04	20933
895.161	21039
895.283	20982
895.405	20925
895.526	20986
895.648	20868
895.769	20941
895.891	21081
896.012	21074
896.134	20979
896.255	20990
896.376	20872
896.498	21036
896.619	21005
896.74	21074
896.861	21020
896.982	21306
897.103	21443
897.224	21264
897.345	21188
897.466	21119
897.587	21104
897.708	21264
897.828	21207
897.949	21096
898.07	21005
898.19	21157
898.311	21192
898.431	21051
898.552	21161
898.672	21313
898.792	21203
898.913	21252
899.033	21104
899.153	21020
899.273	20979
899.393	20891
899.513	20933
899.633	20925
899.753	20929
899.873	20914
899.993	20853
900.113	20773
900.232	20933
900.352	20815
900.472	20617
900.591	20655
900.711	20765
900.83	20632
900.95	20796
901.069	20686
901.189	20530
901.308	20271
901.427	20309
901.546	20355
901.665	20164
901.784	20244
901.904	20092
902.023	20096
902.141	19723
902.26	19715
902.379	19883
902.498	19609
902.617	19742
902.735	19693
902.854	19765
902.973	19696
903.091	19483
903.21	19384
903.328	19480
903.446	19365
903.565	19259
903.683	19236
903.801	19076
903.919	19183
904.038	19133
904.156	18966
904.274	19103
904.392	18935
904.51	18928
904.627	18954
904.745	18920
904.863	18806
904.981	18760
905.098	18601
905.216	18540
905.334	18677
905.451	18707
905.569	18658
905.686	18677
905.803	18673
905.921	18528
906.038	18483
906.155	18475
906.272	18338
906.389	18353
906.506	18091
906.623	18254
906.74	18133
906.857	17920
906.974	18095
907.091	18152
907.208	18357
907.324	18182
907.441	18102
907.557	17969
907.674	17882
907.79	17893
907.907	17752
908.023	17859
908.139	17984
908.256	17760
908.372	17653
908.488	17748
908.604	17570
908.72	17589
908.836	17528
908.952	17433
909.068	17528
909.184	17699
909.3	17501
909.415	17589
909.531	17467
909.647	17280
909.762	17353
909.878	17227
909.993	17311
910.108	17296
910.224	17204
910.339	17200
910.454	17052
910.57	17037
910.685	16965
910.8	17299
910.915	17303
911.03	16991
911.145	16972
911.259	16862
911.374	16763
911.489	16717
911.604	16763
911.718	16641
911.833	16611
911.947	16485
912.062	16481
912.176	16607
912.291	16554
912.405	16584
912.519	16805
912.633	16679
912.748	16656
912.862	16558
912.976	16500
913.09	16276
913.204	16379
913.318	16276
913.431	16535
913.545	16455
913.659	16592
913.772	16337
913.886	16265
914	16211
914.113	16246
914.226	16306
914.34	16314
914.453	16036
914.566	16207
914.68	16169
914.793	16025
914.906	15892
915.019	15865
915.132	15660
915.245	15831
915.358	15793
915.47	15804
915.583	15743
915.696	15770
915.809	15835
915.921	15781
916.034	15694
916.146	15656
916.259	15603
916.371	15671
916.483	15717
916.595	15633
916.708	15629
916.82	15515
916.932	15564
917.044	15572
917.156	15595
917.268	15370
917.38	15340
917.491	15370
917.603	15420
917.715	15492
917.826	15488
917.938	15351
918.049	15260
918.161	15367
918.272	15504
918.384	15412
918.495	15329
918.606	15230
918.717	15047
918.828	15188
918.939	15131
919.05	14960
919.161	15058
919.272	14979
919.383	14895
919.494	15146
919.604	15264
919.715	15062
919.826	14979
919.936	14963
920.047	15154
920.157	15055
920.267	15218
920.378	15123
920.488	15043
920.598	15283
920.708	15408
920.818	15298
920.928	15241
921.038	15386
921.148	15256
921.258	15074
921.368	15013
921.477	14785
921.587	14815
921.697	14727
921.806	14800
921.916	14686
922.025	14564
922.134	14503
922.244	14431
922.353	14457
922.462	14313
922.571	14317
922.68	14164
922.789	14126
922.898	14126
923.007	14054
923.116	14126
923.224	14115
923.333	14172
923.442	13917
923.55	13841
923.659	13955
923.767	14062
923.876	13860
923.984	13883
924.092	13883
924.201	13871
924.309	13791
924.417	13776
924.525	13799
924.633	13708
924.741	14549
924.849	13483
924.956	13700
925.064	13575
925.172	13457
925.279	13445
925.387	13506
925.494	13434
925.602	13677
925.709	13548
925.816	13388
925.924	13453
926.031	13495
926.138	13422
926.245	13403
926.352	13274
926.459	13388
926.566	13571
926.673	13301
926.779	13270
926.886	13247
926.993	13164
927.099	13084
927.206	12924
927.312	12909
927.419	13015
927.525	13110
927.631	13057
927.737	12909
927.843	12894
927.95	12806
928.056	12837
928.162	12932
928.267	12844
928.373	13422
928.479	12981
928.585	12658
928.69	12840
928.796	12848
928.901	12715
929.007	12566
929.112	12745
929.218	12601
929.323	12601
929.428	12566
929.533	12692
929.638	12407
929.743	12627
929.848	12532
929.953	12566
930.058	12486
930.163	12285
930.267	12213
930.372	12384
930.477	12121
930.581	12365
930.685	12254
930.79	12072
930.894	12102
930.998	12095
931.103	12209
931.207	11889
931.311	11729
931.415	11737
931.519	11524
931.623	11486
