Data from test_V78500241_2723.txt Node
Date: Fri Mar 25 16:00:39 CST 2022
User: usil
Spectrometer: V785-0024
Trigger mode: 0
Integration Time (sec): 4.000000E-1
Scans to average: 1
Nonlinearity correction enabled: false
Boxcar width: 0
Storing dark spectrum: false
XAxis mode: Wavelengths
Number of Pixels in Spectrum: 1024
>>>>>Begin Spectral Data<<<<<
801.071	28816
801.214	28634
801.356	28493
801.499	28535
801.641	28481
801.783	28337
801.926	28356
802.068	28268
802.211	28344
802.353	28185
802.496	28040
802.638	28067
802.78	27964
802.923	27907
803.065	27941
803.208	27960
803.35	27975
803.492	28223
803.635	28299
803.777	28105
803.919	28382
804.061	28618
804.204	28443
804.346	28246
804.488	28310
804.63	28234
804.773	28280
804.915	28367
805.057	28470
805.199	28192
805.341	28409
805.483	28523
805.626	28348
805.768	28341
805.91	28382
806.052	28466
806.194	28405
806.336	28550
806.478	28474
806.62	28459
806.762	28565
806.904	28767
807.046	29113
807.188	28946
807.33	28862
807.472	28953
807.614	28820
807.756	28835
807.898	28793
808.04	28793
808.182	28645
808.324	28748
808.465	28839
808.607	29033
808.749	29098
808.891	29261
809.033	29307
809.174	29067
809.316	29083
809.458	29193
809.6	28961
809.741	29216
809.883	29326
810.025	29436
810.166	29337
810.308	29421
810.45	29307
810.591	29334
810.733	29246
810.875	29109
811.016	28961
811.158	28987
811.299	29231
811.441	29239
811.582	29349
811.724	29121
811.865	29105
812.007	29250
812.148	29212
812.29	29383
812.431	29391
812.573	29417
812.714	29608
812.855	29585
812.997	29707
813.138	29920
813.279	29676
813.421	29684
813.562	29585
813.703	29547
813.845	29391
813.986	29079
814.127	28972
814.268	28809
814.41	28881
814.551	28843
814.692	28915
814.833	28767
814.974	28782
815.115	28778
815.256	28694
815.397	28664
815.539	28858
815.68	28713
815.821	28615
815.962	28698
816.103	28550
816.244	28554
816.385	28485
816.526	28405
816.666	28291
816.807	28306
816.948	28109
817.089	28253
817.23	28169
817.371	28234
817.512	28124
817.653	28223
817.793	28230
817.934	28067
818.075	28204
818.216	28093
818.356	28173
818.497	28036
818.638	27972
818.778	27842
818.919	27968
819.06	27922
819.2	28044
819.341	28166
819.481	28131
819.622	28352
819.762	28421
819.903	28500
820.043	28451
820.184	28360
820.324	28272
820.465	28375
820.605	28356
820.746	28211
820.886	28128
821.026	28280
821.167	28173
821.307	28409
821.447	28253
821.588	28055
821.728	27899
821.868	27766
822.008	27770
822.149	27625
822.289	27690
822.429	27431
822.569	27355
822.709	27294
822.849	27085
822.99	27252
823.13	27165
823.27	27195
823.41	26986
823.55	26708
823.69	27047
823.83	27077
823.97	26891
824.11	26765
824.25	26842
824.389	26762
824.529	26868
824.669	26743
824.809	26899
824.949	26929
825.089	26864
825.228	26746
825.368	26781
825.508	26659
825.648	26781
825.787	26678
825.927	26663
826.067	26693
826.206	26697
826.346	26735
826.485	26914
826.625	26682
826.765	26804
826.904	26785
827.044	26404
827.183	26457
827.323	26324
827.462	26465
827.601	26358
827.741	26400
827.88	26511
828.02	26313
828.159	26434
828.298	26389
828.437	26503
828.577	26290
828.716	26358
828.855	26240
828.994	26065
829.134	26176
829.273	26168
829.412	26081
829.551	26012
829.69	26126
829.829	26138
829.968	26176
830.107	26119
830.246	26180
830.385	26115
830.524	25966
830.663	25803
830.802	25780
830.941	25712
831.08	25594
831.219	25742
831.357	25761
831.496	26115
831.635	25845
831.774	25628
831.913	25590
832.051	25556
832.19	25289
832.329	25483
832.467	25438
832.606	25316
832.744	25479
832.883	25346
833.022	25327
833.16	25400
833.299	25346
833.437	25426
833.576	25449
833.714	25544
833.852	25396
833.991	25377
834.129	25548
834.267	25495
834.406	25476
834.544	25502
834.682	25460
834.821	25411
834.959	25483
835.097	25301
835.235	25472
835.373	25426
835.511	25445
835.65	25312
835.788	25365
835.926	25240
836.064	25008
836.202	25198
836.34	25365
836.478	25148
836.615	25194
836.753	25263
836.891	25308
837.029	25160
837.167	25247
837.305	25183
837.443	25057
837.58	25046
837.718	25145
837.856	25038
837.993	24932
838.131	25122
838.269	25072
838.406	25095
838.544	25019
838.681	24734
838.819	24749
838.956	24502
839.094	24475
839.231	24528
839.369	24719
839.506	24924
839.643	24764
839.781	24509
839.918	24517
840.055	24540
840.193	24460
840.33	24350
840.467	24525
840.604	24486
840.742	24608
840.879	24346
841.016	24410
841.153	24304
841.29	24547
841.427	24369
841.564	24433
841.701	24338
841.838	24388
841.975	24311
842.112	24395
842.249	24194
842.385	24186
842.522	24342
842.659	24281
842.796	24159
842.933	24186
843.069	24159
843.206	24117
843.343	24384
843.479	24163
843.616	24228
843.752	24152
843.889	23961
844.025	24087
844.162	23821
844.298	24003
844.435	24106
844.571	23832
844.708	24083
844.844	24117
844.98	24041
845.117	24007
845.253	23931
845.389	23969
845.525	23931
845.661	23745
845.798	23676
845.934	23790
846.07	23691
846.206	23764
846.342	23942
846.478	23665
846.614	23349
846.75	23368
846.886	23414
847.022	23551
847.158	23501
847.294	23429
847.429	23398
847.565	23417
847.701	23566
847.837	23166
847.972	23170
848.108	23280
848.244	23254
848.379	23037
848.515	23025
848.65	22991
848.786	23037
848.921	23037
849.057	23280
849.192	23060
849.328	23090
849.463	23025
849.598	22987
849.734	22911
849.869	22862
850.004	22771
850.14	22984
850.275	22831
850.41	22755
850.545	22759
850.68	22588
850.815	22843
850.95	22778
851.085	23018
851.22	22873
851.355	22892
851.49	22767
851.625	22835
851.76	22675
851.895	22721
852.03	22763
852.165	22816
852.299	22881
852.434	22923
852.569	22748
852.703	22725
852.838	22839
852.973	22965
853.107	22965
853.242	22801
853.376	22694
853.511	22611
853.645	22527
853.78	22679
853.914	22675
854.048	22656
854.183	22744
854.317	22557
854.451	22778
854.585	22588
854.72	22584
854.854	22675
854.988	22512
855.122	22618
855.256	22592
855.39	22607
855.524	22679
855.658	22763
855.792	22679
855.926	22793
856.06	22698
856.194	22748
856.327	22641
856.461	22603
856.595	22626
856.729	22596
856.862	22736
856.996	22615
857.13	22698
857.263	22740
857.397	22691
857.53	22664
857.664	22767
857.797	22668
857.931	22577
858.064	22592
858.197	22809
858.331	22615
858.464	22626
858.597	22535
858.731	22763
858.864	22470
858.997	22508
859.13	22577
859.263	22569
859.396	22740
859.529	22573
859.662	22565
859.795	22637
859.928	22725
860.061	22672
860.194	22869
860.327	22618
860.46	22664
860.592	22782
860.725	22824
860.858	22824
860.99	22767
861.123	22649
861.256	22683
861.388	22527
861.521	23391
861.653	22417
861.786	22432
861.918	22470
862.05	22512
862.183	22622
862.315	22504
862.447	22713
862.58	22538
862.712	22299
862.844	22344
862.976	22474
863.108	22504
863.24	22733
863.372	22253
863.504	22276
863.636	22341
863.768	22516
863.9	22299
864.032	22341
864.164	22375
864.296	22238
864.428	22352
864.559	22493
864.691	22356
864.823	22329
864.954	22303
865.086	22226
865.217	22211
865.349	22135
865.48	22249
865.612	22268
865.743	22249
865.875	22112
866.006	22188
866.137	22154
866.269	22166
866.4	22242
866.531	22082
866.662	22181
866.793	22029
866.924	22150
867.055	22181
867.186	22257
867.317	22112
867.448	22002
867.579	22109
867.71	22109
867.841	22109
867.972	22196
868.103	21983
868.233	22154
868.364	22192
868.495	22246
868.625	22363
868.756	22352
868.886	22344
869.017	22356
869.147	22455
869.278	22470
869.408	22436
869.539	22352
869.669	22409
869.799	22451
869.929	22519
870.06	22497
870.19	22634
870.32	22706
870.45	22717
870.58	22675
870.71	22995
870.84	22835
870.97	22797
871.1	22812
871.23	22953
871.36	22984
871.489	22850
871.619	23048
871.749	23014
871.879	23003
872.008	23052
872.138	22946
872.267	23018
872.397	22972
872.526	22831
872.656	22774
872.785	22778
872.915	23014
873.044	23056
873.173	22946
873.303	22949
873.432	23018
873.561	23155
873.69	23075
873.819	23067
873.948	23071
874.077	22987
874.206	22904
874.335	23060
874.464	23037
874.593	23231
874.722	23162
874.851	23296
874.979	23250
875.108	23337
875.237	23086
875.365	23136
875.494	23356
875.623	23277
875.751	23166
875.88	23162
876.008	23353
876.136	23467
876.265	23627
876.393	23710
876.521	23649
876.65	23589
876.778	23497
876.906	23554
877.034	23600
877.162	23547
877.29	23585
877.418	23516
877.546	23566
877.674	23497
877.802	23581
877.93	23505
878.058	23585
878.185	23440
878.313	23406
878.441	23566
878.568	23299
878.696	23558
878.824	23558
878.951	23573
879.079	23687
879.206	23912
879.333	23714
879.461	23581
879.588	23589
879.715	23714
879.842	23794
879.97	23623
880.097	23345
880.224	23284
880.351	23524
880.478	23402
880.605	23433
880.732	23292
880.859	23577
880.986	23463
881.112	23364
881.239	23246
881.366	23181
881.493	23003
881.619	22885
881.746	22953
881.872	22900
881.999	22843
882.125	22915
882.252	22991
882.378	22835
882.505	22968
882.631	22801
882.757	22656
882.883	22782
883.01	22489
883.136	22535
883.262	22493
883.388	22481
883.514	22679
883.64	22584
883.766	22519
883.892	22360
884.018	22474
884.143	22481
884.269	22577
884.395	22398
884.52	22272
884.646	22295
884.772	22223
884.897	22223
885.023	22185
885.148	22318
885.274	22325
885.399	22341
885.524	22287
885.65	22257
885.775	22173
885.9	22226
886.025	22272
886.15	22318
886.275	22177
886.4	22116
886.525	22211
886.65	22120
886.775	22143
886.9	22310
887.025	22455
887.149	22166
887.274	22070
887.399	22048
887.523	21975
887.648	21876
887.773	21876
887.897	22105
888.021	22006
888.146	21892
888.27	22036
888.395	22017
888.519	22025
888.643	22112
888.767	21987
888.891	21873
889.015	21781
889.139	21831
889.263	21705
889.387	21865
889.511	21934
889.635	21854
889.759	21732
889.883	21720
890.006	21869
890.13	21861
890.254	21671
890.377	21686
890.501	21473
890.624	21439
890.748	21526
890.871	21515
890.995	21325
891.118	21165
891.241	21367
891.364	21332
891.488	21496
891.611	21389
891.734	21264
891.857	21382
891.98	21294
892.103	21370
892.226	21310
892.349	21272
892.471	21169
892.594	21245
892.717	21188
892.839	21378
892.962	21226
893.085	21287
893.207	21192
893.33	21055
893.452	21066
893.575	21275
893.697	21256
893.819	21294
893.941	21386
894.064	21298
894.186	21146
894.308	21074
894.43	21142
894.552	21268
894.674	21321
894.796	21096
894.918	21264
895.04	21203
895.161	21279
895.283	21203
895.405	21093
895.526	21154
895.648	21070
895.769	21176
895.891	21207
896.012	21195
896.134	21272
896.255	21051
896.376	21131
896.498	21093
896.619	21195
896.74	21138
896.861	21203
896.982	21534
897.103	21523
897.224	21507
897.345	21348
897.466	21397
897.587	21291
897.708	21382
897.828	21382
897.949	21329
898.07	21268
898.19	21302
898.311	21530
898.431	21435
898.552	21378
898.672	21492
898.792	21462
898.913	21504
899.033	21233
899.153	21157
899.273	21070
899.393	21180
899.513	21093
899.633	21058
899.753	21165
899.873	21093
899.993	21127
900.113	21062
900.232	20982
900.352	20990
900.472	20891
900.591	20811
900.711	20963
900.83	20819
900.95	20986
901.069	20933
901.189	20689
901.308	20579
901.427	20503
901.546	20415
901.665	20480
901.784	20530
901.904	20252
902.023	20202
902.141	19883
902.26	19906
902.379	20100
902.498	19997
902.617	19894
902.735	19955
902.854	19921
902.973	19875
903.091	19616
903.21	19578
903.328	19613
903.446	19495
903.565	19605
903.683	19365
903.801	19316
903.919	19457
904.038	19384
904.156	19118
904.274	19339
904.392	19190
904.51	19240
904.627	19289
904.745	19251
904.863	19331
904.981	18897
905.098	18844
905.216	18901
905.334	19004
905.451	18897
905.569	18856
905.686	18837
905.803	18856
905.921	18547
906.038	18757
906.155	18585
906.272	18494
906.389	18506
906.506	18350
906.623	18353
906.74	18407
906.857	18285
906.974	18235
907.091	18395
907.208	18502
907.324	18346
907.441	18220
907.557	18114
907.674	17992
907.79	18011
907.907	18095
908.023	18110
908.139	18121
908.256	17984
908.372	18011
908.488	17946
908.604	17802
908.72	17752
908.836	17805
908.952	17707
909.068	17786
909.184	17821
909.3	17752
909.415	17756
909.531	17619
909.647	17516
909.762	17493
909.878	17512
909.993	17471
910.108	17406
910.224	17341
910.339	17421
910.454	17322
910.57	17284
910.685	17246
910.8	17509
910.915	17429
911.03	17216
911.145	16991
911.259	17094
911.374	17060
911.489	16957
911.604	16980
911.718	16771
911.833	16843
911.947	16656
912.062	16641
912.176	16862
912.291	16877
912.405	16778
912.519	16908
912.633	16968
912.748	16858
912.862	16649
912.976	16717
913.09	16565
913.204	16497
913.318	16577
913.431	16805
913.545	16656
913.659	16641
913.772	16527
913.886	16493
914	16409
914.113	16447
914.226	16451
914.34	16459
914.453	16303
914.566	16363
914.68	16230
914.793	16253
914.906	16051
915.019	16040
915.132	15827
915.245	15926
915.358	15987
915.47	15987
915.583	16063
915.696	16032
915.809	16010
915.921	16086
916.034	15922
916.146	15846
916.259	15827
916.371	15968
916.483	15827
916.595	15808
916.708	15835
916.82	15831
916.932	15709
917.044	15759
917.156	15652
917.268	15625
917.38	15694
917.491	15564
917.603	15625
917.715	15606
917.826	15656
917.938	15614
918.049	15412
918.161	15545
918.272	15675
918.384	15610
918.495	15443
918.606	15393
918.717	15279
918.828	15348
918.939	15329
919.05	15252
919.161	15378
919.272	15085
919.383	15195
919.494	15275
919.604	15420
919.715	15302
919.826	15154
919.936	15222
920.047	15355
920.157	15317
920.267	15306
920.378	15207
920.488	15226
920.598	15454
920.708	15564
920.818	15447
920.928	15424
921.038	15450
921.148	15443
921.258	15188
921.368	15150
921.477	15074
921.587	15032
921.697	14781
921.806	14941
921.916	14864
922.025	14655
922.134	14678
922.244	14632
922.353	14727
922.462	14495
922.571	14423
922.68	14423
922.789	14218
922.898	14199
923.007	14199
923.116	14221
923.224	14202
923.333	14206
923.442	14077
923.55	14062
923.659	14081
923.767	14191
923.876	13993
923.984	14073
924.092	13989
924.201	14012
924.309	14016
924.417	13913
924.525	13925
924.633	13879
924.741	14758
924.849	13696
924.956	13788
925.064	13715
925.172	13655
925.279	13624
925.387	13616
925.494	13616
925.602	13761
925.709	13704
925.816	13544
925.924	13601
926.031	13544
926.138	13643
926.245	13537
926.352	13506
926.459	13628
926.566	13681
926.673	13453
926.779	13373
926.886	13384
926.993	13270
927.099	13190
927.206	13080
927.312	13110
927.419	13221
927.525	13072
927.631	13228
927.737	13019
927.843	13076
927.95	12875
928.056	13019
928.162	12947
928.267	13008
928.373	13563
928.479	13019
928.585	12905
928.69	12920
928.796	12981
928.901	12924
929.007	12692
929.112	12741
929.218	12814
929.323	12681
929.428	12665
929.533	12776
929.638	12574
929.743	12604
929.848	12639
929.953	12585
930.058	12536
930.163	12369
930.267	12361
930.372	12551
930.477	12327
930.581	12498
930.685	12456
930.79	12228
930.894	12270
930.998	12213
931.103	12342
931.207	11961
931.311	11882
931.415	11843
931.519	11585
931.623	11585
