Data from test_V78500241_637.txt Node
Date: Fri Mar 25 15:46:12 CST 2022
User: usil
Spectrometer: V785-0024
Trigger mode: 0
Integration Time (sec): 4.000000E-1
Scans to average: 1
Nonlinearity correction enabled: false
Boxcar width: 0
Storing dark spectrum: false
XAxis mode: Wavelengths
Number of Pixels in Spectrum: 1024
>>>>>Begin Spectral Data<<<<<
801.071	28188
801.214	28002
801.356	27846
801.499	27732
801.641	27633
801.783	27507
801.926	27698
802.068	27622
802.211	27504
802.353	27557
802.496	27279
802.638	27245
802.78	27237
802.923	27283
803.065	27218
803.208	27393
803.35	27431
803.492	27424
803.635	27469
803.777	27237
803.919	27534
804.061	27736
804.204	27336
804.346	27557
804.488	27359
804.63	27317
804.773	27245
804.915	27420
805.057	27660
805.199	27447
805.341	27629
805.483	27462
805.626	27583
805.768	27458
805.91	27587
806.052	27618
806.194	27507
806.336	27846
806.478	27694
806.62	27652
806.762	27633
806.904	27861
807.046	28070
807.188	27926
807.33	27979
807.472	28002
807.614	27914
807.756	27949
807.898	27743
808.04	27941
808.182	27789
808.324	27998
808.465	27846
808.607	28044
808.749	28223
808.891	28329
809.033	28421
809.174	28348
809.316	28363
809.458	28310
809.6	28223
809.741	28417
809.883	28512
810.025	28443
810.166	28618
810.308	28577
810.45	28497
810.591	28432
810.733	28295
810.875	28223
811.016	28169
811.158	28234
811.299	28337
811.441	28508
811.582	28360
811.724	28257
811.865	28177
812.007	28234
812.148	28295
812.29	28318
812.431	28329
812.573	28573
812.714	28649
812.855	28664
812.997	28736
813.138	29098
813.279	28774
813.421	28752
813.562	28809
813.703	28596
813.845	28352
813.986	28211
814.127	27865
814.268	27770
814.41	27937
814.551	27945
814.692	27956
814.833	27842
814.974	27857
815.115	27983
815.256	27800
815.397	27739
815.539	27713
815.68	27781
815.821	27759
815.962	27644
816.103	27694
816.244	27557
816.385	27511
816.526	27485
816.666	27427
816.807	27272
816.948	27302
817.089	27344
817.23	27275
817.371	27237
817.512	27302
817.653	27222
817.793	27245
817.934	27184
818.075	27237
818.216	27241
818.356	27214
818.497	27028
818.638	26994
818.778	26902
818.919	26979
819.06	27116
819.2	27013
819.341	27199
819.481	27180
819.622	27386
819.762	27549
819.903	27549
820.043	27401
820.184	27416
820.324	27332
820.465	27473
820.605	27424
820.746	27306
820.886	27161
821.026	27291
821.167	27211
821.307	27412
821.447	27363
821.588	27207
821.728	27096
821.868	26849
822.008	26716
822.149	26705
822.289	26788
822.429	26400
822.569	26473
822.709	26244
822.849	26218
822.99	26172
823.13	26294
823.27	26294
823.41	26111
823.55	25913
823.69	26054
823.83	25932
823.97	25982
824.11	25826
824.25	25856
824.389	25906
824.529	25887
824.669	25894
824.809	26058
824.949	26077
825.089	25963
825.228	25917
825.368	25689
825.508	25700
825.648	25696
825.787	25826
825.927	25685
826.067	25635
826.206	25670
826.346	25830
826.485	25715
826.625	25780
826.765	25803
826.904	25734
827.044	25354
827.183	25514
827.323	25438
827.462	25491
827.601	25518
827.741	25388
827.88	25499
828.02	25396
828.159	25354
828.298	25445
828.437	25491
828.577	25434
828.716	25430
828.855	25373
828.994	25080
829.134	25141
829.273	25259
829.412	25156
829.551	25012
829.69	25194
829.829	25160
829.968	25255
830.107	25278
830.246	25175
830.385	25160
830.524	25129
830.663	24901
830.802	24760
830.941	24688
831.08	24696
831.219	24798
831.357	24833
831.496	25107
831.635	24802
831.774	24570
831.913	24525
832.051	24494
832.19	24494
832.329	24467
832.467	24498
832.606	24327
832.744	24330
832.883	24315
833.022	24426
833.16	24399
833.299	24517
833.437	24502
833.576	24517
833.714	24486
833.852	24467
833.991	24669
834.129	24589
834.267	24502
834.406	24426
834.544	24441
834.682	24429
834.821	24346
834.959	24688
835.097	24365
835.235	24555
835.373	24422
835.511	24502
835.65	24281
835.788	24353
835.926	24194
836.064	24068
836.202	24030
836.34	24334
836.478	24403
836.615	24334
836.753	24350
836.891	24342
837.029	24258
837.167	24186
837.305	24136
837.443	24159
837.58	24152
837.718	24289
837.856	24277
837.993	24163
838.131	24178
838.269	24091
838.406	23996
838.544	24121
838.681	23977
838.819	23748
838.956	23672
839.094	23570
839.231	23695
839.369	23760
839.506	24015
839.643	23882
839.781	23642
839.918	23448
840.055	23585
840.193	23661
840.33	23497
840.467	23642
840.604	23581
840.742	23745
840.879	23486
841.016	23463
841.153	23391
841.29	23611
841.427	23448
841.564	23528
841.701	23524
841.838	23368
841.975	23440
842.112	23482
842.249	23368
842.385	23235
842.522	23478
842.659	23398
842.796	23197
842.933	23315
843.069	23140
843.206	23189
843.343	23337
843.479	23269
843.616	23170
843.752	23067
843.889	22915
844.025	23166
844.162	23022
844.298	23102
844.435	23041
844.571	23064
844.708	23006
844.844	23136
844.98	23166
845.117	23086
845.253	22965
845.389	22942
845.525	23022
845.661	22850
845.798	22850
845.934	22809
846.07	22900
846.206	22908
846.342	22987
846.478	22694
846.614	22554
846.75	22443
846.886	22554
847.022	22569
847.158	22569
847.294	22402
847.429	22481
847.565	22432
847.701	22725
847.837	22253
847.972	22158
848.108	22325
848.244	22287
848.379	22207
848.515	22112
848.65	22036
848.786	22105
848.921	22116
849.057	22291
849.192	22192
849.328	22162
849.463	22059
849.598	22021
849.734	21873
849.869	21895
850.004	21895
850.14	22010
850.275	21842
850.41	21838
850.545	21701
850.68	21865
850.815	22006
850.95	21766
851.085	22078
851.22	22055
851.355	21816
851.49	21823
851.625	21800
851.76	21762
851.895	21770
852.03	21873
852.165	21831
852.299	21854
852.434	21926
852.569	21880
852.703	21823
852.838	21937
852.973	21922
853.107	21991
853.242	21816
853.376	21629
853.511	21534
853.645	21530
853.78	21705
853.914	21709
854.048	21625
854.183	21583
854.317	21705
854.451	21930
854.585	21724
854.72	21583
854.854	21682
854.988	21625
855.122	21660
855.256	21534
855.39	21770
855.524	21652
855.658	21739
855.792	21743
855.926	21694
856.06	21682
856.194	21846
856.327	21625
856.461	21701
856.595	21580
856.729	21728
856.862	21713
856.996	21671
857.13	21705
857.263	21720
857.397	21781
857.53	21648
857.664	21671
857.797	21682
857.931	21743
858.064	21800
858.197	21793
858.331	21538
858.464	21553
858.597	21595
858.731	21553
858.864	21671
858.997	21507
859.13	21732
859.263	21652
859.396	21728
859.529	21766
859.662	21660
859.795	21652
859.928	21603
860.061	21827
860.194	21850
860.327	21781
860.46	21644
860.592	21747
860.725	21838
860.858	21804
860.99	21766
861.123	21587
861.256	21644
861.388	21644
861.521	22284
861.653	21507
861.786	21526
861.918	21523
862.05	21648
862.183	21675
862.315	21679
862.447	21682
862.58	21542
862.712	21317
862.844	21382
862.976	21473
863.108	21477
863.24	21686
863.372	21306
863.504	21344
863.636	21348
863.768	21359
863.9	21466
864.032	21439
864.164	21416
864.296	21382
864.428	21431
864.559	21382
864.691	21412
864.823	21317
864.954	21374
865.086	21447
865.217	21317
865.349	21192
865.48	21165
865.612	21275
865.743	21481
865.875	21291
866.006	21268
866.137	21317
866.269	21195
866.4	21317
866.531	21272
866.662	21123
866.793	21104
866.924	21207
867.055	21252
867.186	21176
867.317	21180
867.448	21077
867.579	21260
867.71	21142
867.841	21096
867.972	21157
868.103	21252
868.233	21142
868.364	21123
868.495	21294
868.625	21351
868.756	21526
868.886	21401
869.017	21302
869.147	21568
869.278	21549
869.408	21462
869.539	21325
869.669	21488
869.799	21488
869.929	21625
870.06	21553
870.19	21793
870.32	21709
870.45	21724
870.58	21728
870.71	21907
870.84	22067
870.97	21941
871.1	21922
871.23	21949
871.36	21956
871.489	21797
871.619	22032
871.749	22040
871.879	22150
872.008	22166
872.138	22055
872.267	22131
872.397	21972
872.526	21865
872.656	21911
872.785	21736
872.915	22109
873.044	22173
873.173	21907
873.303	22010
873.432	22116
873.561	22128
873.69	22139
873.819	21991
873.948	22154
874.077	21972
874.206	21968
874.335	22040
874.464	22082
874.593	22226
874.722	22207
874.851	22333
874.979	22291
875.108	22337
875.237	22249
875.365	22211
875.494	22238
875.623	22318
875.751	22306
875.88	22215
876.008	22337
876.136	22508
876.265	22713
876.393	22786
876.521	22793
876.65	22725
876.778	22653
876.906	22649
877.034	22607
877.162	22637
877.29	22599
877.418	22740
877.546	22656
877.674	22675
877.802	22668
877.93	22645
878.058	22535
878.185	22440
878.313	22478
878.441	22729
878.568	22409
878.696	22599
878.824	22637
878.951	22565
879.079	22725
879.206	22862
879.333	22713
879.461	22710
879.588	22790
879.715	22843
879.842	22820
879.97	22767
880.097	22653
880.224	22367
880.351	22569
880.478	22421
880.605	22371
880.732	22367
880.859	22805
880.986	22329
881.112	22455
881.239	22382
881.366	22192
881.493	22082
881.619	21994
881.746	21987
881.872	22207
881.999	21937
882.125	21926
882.252	21987
882.378	21983
882.505	22158
882.631	21956
882.757	21713
882.883	21713
883.01	21789
883.136	21641
883.262	21549
883.388	21583
883.514	21713
883.64	21755
883.766	21538
883.892	21412
884.018	21515
884.143	21736
884.269	21713
884.395	21382
884.52	21344
884.646	21420
884.772	21291
884.897	21195
885.023	21397
885.148	21367
885.274	21424
885.399	21401
885.524	21291
885.65	21249
885.775	21344
885.9	21203
886.025	21462
886.15	21488
886.275	21332
886.4	21119
886.525	21412
886.65	21195
886.775	21283
886.9	21458
887.025	21500
887.149	21294
887.274	21131
887.399	21077
887.523	21047
887.648	20937
887.773	21062
887.897	21116
888.021	21150
888.146	21055
888.27	21142
888.395	21230
888.519	21135
888.643	21195
888.767	21161
888.891	21116
889.015	20819
889.139	20948
889.263	20979
889.387	20948
889.511	21127
889.635	21009
889.759	20781
889.883	20868
890.006	20963
890.13	20982
890.254	20872
890.377	20880
890.501	20701
890.624	20617
890.748	20670
890.871	20640
890.995	20571
891.118	20385
891.241	20480
891.364	20488
891.488	20594
891.611	20362
891.734	20526
891.857	20530
891.98	20499
892.103	20507
892.226	20568
892.349	20457
892.471	20385
892.594	20457
892.717	20431
892.839	20400
892.962	20408
893.085	20503
893.207	20275
893.33	20370
893.452	20339
893.575	20427
893.697	20366
893.819	20514
893.941	20488
894.064	20522
894.186	20298
894.308	20278
894.43	20431
894.552	20522
894.674	20518
894.796	20164
894.918	20389
895.04	20225
895.161	20385
895.283	20400
895.405	20355
895.526	20450
895.648	20339
895.769	20415
895.891	20415
896.012	20423
896.134	20317
896.255	20339
896.376	20355
896.498	20320
896.619	20381
896.74	20328
896.861	20294
896.982	20724
897.103	20811
897.224	20667
897.345	20522
897.466	20632
897.587	20697
897.708	20735
897.828	20587
897.949	20511
898.07	20419
898.19	20400
898.311	20659
898.431	20495
898.552	20552
898.672	20693
898.792	20590
898.913	20587
899.033	20415
899.153	20503
899.273	20347
899.393	20195
899.513	20320
899.633	20358
899.753	20408
899.873	20290
899.993	20351
900.113	20317
900.232	20419
900.352	20195
900.472	20153
900.591	20012
900.711	20134
900.83	19974
900.95	20157
901.069	20168
901.189	20062
901.308	19879
901.427	19750
901.546	19742
901.665	19734
901.784	19757
901.904	19620
902.023	19491
902.141	19282
902.26	19320
902.379	19251
902.498	19225
902.617	19133
902.735	19308
902.854	19118
902.973	19050
903.091	18901
903.21	18863
903.328	18856
903.446	18734
903.565	18688
903.683	18650
903.801	18692
903.919	18517
904.038	18532
904.156	18418
904.274	18456
904.392	18464
904.51	18414
904.627	18407
904.745	18403
904.863	18483
904.981	18304
905.098	18136
905.216	18129
905.334	18034
905.451	18190
905.569	18106
905.686	18182
905.803	18049
905.921	17965
906.038	17897
906.155	17950
906.272	17767
906.389	17843
906.506	17687
906.623	17661
906.74	17501
906.857	17516
906.974	17452
907.091	17695
907.208	17729
907.324	17680
907.441	17562
907.557	17452
907.674	17360
907.79	17261
907.907	17303
908.023	17395
908.139	17395
908.256	17330
908.372	17334
908.488	17185
908.604	17216
908.72	17067
908.836	17090
908.952	17071
909.068	17220
909.184	17185
909.3	17048
909.415	17140
909.531	16965
909.647	16831
909.762	16759
909.878	16717
909.993	16736
910.108	16721
910.224	16679
910.339	16744
910.454	16641
910.57	16569
910.685	16519
910.8	16748
910.915	16694
911.03	16440
911.145	16360
911.259	16352
911.374	16371
911.489	16276
911.604	16265
911.718	16105
911.833	16211
911.947	15926
912.062	15941
912.176	16120
912.291	16177
912.405	16071
912.519	16280
912.633	16299
912.748	16082
912.862	16021
912.976	15899
913.09	15785
913.204	15857
913.318	15953
913.431	16036
913.545	15941
913.659	15934
913.772	15835
913.886	15736
914	15679
914.113	15774
914.226	15835
914.34	15755
914.453	15599
914.566	15739
914.68	15671
914.793	15587
914.906	15344
915.019	15306
915.132	15230
915.245	15275
915.358	15260
915.47	15348
915.583	15237
915.696	15374
915.809	15431
915.921	15408
916.034	15313
916.146	15218
916.259	15123
916.371	15249
916.483	15317
916.595	15180
916.708	15218
916.82	15192
916.932	15077
917.044	15173
917.156	15112
917.268	15032
917.38	14960
917.491	14929
917.603	14952
917.715	15081
917.826	14967
917.938	14842
918.049	14686
918.161	14998
918.272	15017
918.384	14975
918.495	14895
918.606	14674
918.717	14648
918.828	14644
918.939	14686
919.05	14651
919.161	14663
919.272	14461
919.383	14564
919.494	14735
919.604	14880
919.715	14743
919.826	14606
919.936	14640
920.047	14686
920.157	14617
920.267	14853
920.378	14602
920.488	14590
920.598	14857
920.708	14975
920.818	14788
920.928	14788
921.038	15032
921.148	14929
921.258	14590
921.368	14522
921.477	14355
921.587	14457
921.697	14256
921.806	14385
921.916	14256
922.025	14058
922.134	14058
922.244	13959
922.353	14103
922.462	13864
922.571	13890
922.68	13849
922.789	13681
922.898	13700
923.007	13628
923.116	13693
923.224	13670
923.333	13609
923.442	13491
923.55	13510
923.659	13578
923.767	13575
923.876	13464
923.984	13521
924.092	13354
924.201	13430
924.309	13426
924.417	13480
924.525	13308
924.633	13312
924.741	14138
924.849	13137
924.956	13312
925.064	13137
925.172	13038
925.279	13046
925.387	13118
925.494	13152
925.602	13194
925.709	13126
925.816	13057
925.924	12993
926.031	13190
926.138	13023
926.245	13107
926.352	12905
926.459	13069
926.566	13168
926.673	13000
926.779	12890
926.886	12833
926.993	12681
927.099	12623
927.206	12646
927.312	12631
927.419	12673
927.525	12669
927.631	12650
927.737	12563
927.843	12555
927.95	12403
928.056	12471
928.162	12517
928.267	12585
928.373	13114
928.479	12502
928.585	12270
928.69	12414
928.796	12509
928.901	12384
929.007	12251
929.112	12334
929.218	12338
929.323	12201
929.428	12201
929.533	12422
929.638	12072
929.743	12175
929.848	12243
929.953	12182
930.058	11935
930.163	11965
930.267	11870
930.372	12057
930.477	11889
930.581	12079
930.685	11958
930.79	11764
930.894	11847
930.998	11691
931.103	11821
931.207	11619
931.311	11436
931.415	11421
931.519	11208
931.623	11109
