Data from test_V78500241_3212.txt Node
Date: Fri Mar 25 16:04:03 CST 2022
User: usil
Spectrometer: V785-0024
Trigger mode: 0
Integration Time (sec): 4.000000E-1
Scans to average: 1
Nonlinearity correction enabled: false
Boxcar width: 0
Storing dark spectrum: false
XAxis mode: Wavelengths
Number of Pixels in Spectrum: 1024
>>>>>Begin Spectral Data<<<<<
801.071	28755
801.214	28790
801.356	28554
801.499	28485
801.641	28424
801.783	28363
801.926	28318
802.068	28367
802.211	28440
802.353	28310
802.496	28135
802.638	27979
802.78	28162
802.923	27934
803.065	27918
803.208	27994
803.35	28029
803.492	28147
803.635	28348
803.777	28211
803.919	28306
804.061	28694
804.204	28291
804.346	28337
804.488	28219
804.63	28325
804.773	28169
804.915	28421
805.057	28424
805.199	28333
805.341	28424
805.483	28382
805.626	28459
805.768	28226
805.91	28573
806.052	28455
806.194	28432
806.336	28733
806.478	28386
806.62	28656
806.762	28584
806.904	28725
807.046	28858
807.188	28957
807.33	28869
807.472	29064
807.614	28888
807.756	28866
807.898	28847
808.04	28888
808.182	28782
808.324	28805
808.465	28961
808.607	29086
808.749	29284
808.891	29140
809.033	29330
809.174	29220
809.316	29060
809.458	29185
809.6	29128
809.741	29239
809.883	29360
810.025	29493
810.166	29505
810.308	29452
810.45	29364
810.591	29448
810.733	29315
810.875	29090
811.016	28995
811.158	29094
811.299	29311
811.441	29387
811.582	29379
811.724	29273
811.865	29086
812.007	29185
812.148	29128
812.29	29330
812.431	29341
812.573	29585
812.714	29646
812.855	29878
812.997	29855
813.138	30034
813.279	29969
813.421	29680
813.562	29699
813.703	29524
813.845	29493
813.986	29025
814.127	28934
814.268	28976
814.41	28835
814.551	28911
814.692	29003
814.833	28904
814.974	28919
815.115	28991
815.256	28675
815.397	28786
815.539	28740
815.68	28660
815.821	28580
815.962	28793
816.103	28694
816.244	28656
816.385	28485
816.526	28531
816.666	28204
816.807	28124
816.948	28246
817.089	28287
817.23	28257
817.371	28150
817.512	28181
817.653	28291
817.793	28135
817.934	28219
818.075	28093
818.216	28268
818.356	28204
818.497	28131
818.638	27930
818.778	27880
818.919	27968
819.06	28120
819.2	28124
819.341	28207
819.481	28314
819.622	28375
819.762	28618
819.903	28375
820.043	28299
820.184	28432
820.324	28371
820.465	28592
820.605	28413
820.746	28398
820.886	28215
821.026	28440
821.167	28303
821.307	28394
821.447	28226
821.588	28059
821.728	27884
821.868	27846
822.008	27857
822.149	27755
822.289	27633
822.429	27545
822.569	27416
822.709	27374
822.849	27302
822.99	27302
823.13	27241
823.27	27211
823.41	27096
823.55	26876
823.69	27062
823.83	26956
823.97	26940
824.11	26769
824.25	26845
824.389	26902
824.529	27017
824.669	26826
824.809	26971
824.949	26982
825.089	27051
825.228	26857
825.368	26693
825.508	26739
825.648	26895
825.787	26857
825.927	26937
826.067	26636
826.206	26815
826.346	26914
826.485	26891
826.625	26754
826.765	26872
826.904	26769
827.044	26537
827.183	26568
827.323	26533
827.462	26564
827.601	26457
827.741	26492
827.88	26492
828.02	26347
828.159	26629
828.298	26438
828.437	26503
828.577	26400
828.716	26511
828.855	26366
828.994	26218
829.134	26073
829.273	26191
829.412	26062
829.551	26176
829.69	26168
829.829	26218
829.968	26195
830.107	26309
830.246	26149
830.385	26092
830.524	26142
830.663	26069
830.802	25913
830.941	25799
831.08	25803
831.219	25868
831.357	25849
831.496	25997
831.635	25750
831.774	25624
831.913	25571
832.051	25537
832.19	25441
832.329	25487
832.467	25552
832.606	25365
832.744	25434
832.883	25464
833.022	25422
833.16	25457
833.299	25415
833.437	25499
833.576	25567
833.714	25582
833.852	25651
833.991	25693
834.129	25559
834.267	25651
834.406	25438
834.544	25525
834.682	25548
834.821	25449
834.959	25742
835.097	25373
835.235	25518
835.373	25601
835.511	25582
835.65	25472
835.788	25373
835.926	25285
836.064	25129
836.202	25187
836.34	25244
836.478	25396
836.615	25472
836.753	25331
836.891	25426
837.029	25407
837.167	25285
837.305	25046
837.443	25266
837.58	25213
837.718	25190
837.856	25282
837.993	25057
838.131	25129
838.269	25042
838.406	25080
838.544	25069
838.681	24757
838.819	24817
838.956	24608
839.094	24696
839.231	24696
839.369	24719
839.506	24935
839.643	24833
839.781	24490
839.918	24505
840.055	24570
840.193	24620
840.33	24616
840.467	24452
840.604	24616
840.742	24757
840.879	24311
841.016	24414
841.153	24399
841.29	24547
841.427	24505
841.564	24509
841.701	24479
841.838	24574
841.975	24509
842.112	24467
842.249	24372
842.385	24209
842.522	24414
842.659	24300
842.796	24357
842.933	24422
843.069	24209
843.206	24300
843.343	24525
843.479	24311
843.616	24304
843.752	24034
843.889	24106
844.025	24224
844.162	23931
844.298	24117
844.435	24057
844.571	23973
844.708	24041
844.844	24247
844.98	24296
845.117	24110
845.253	23939
845.389	23973
845.525	23946
845.661	23912
845.798	23889
845.934	23790
846.07	23824
846.206	23687
846.342	24060
846.478	23786
846.614	23596
846.75	23463
846.886	23474
847.022	23623
847.158	23592
847.294	23547
847.429	23463
847.565	23459
847.701	23786
847.837	23261
847.972	23223
848.108	23368
848.244	23277
848.379	23056
848.515	23155
848.65	22946
848.786	22980
848.921	23102
849.057	23189
849.192	23155
849.328	23280
849.463	23098
849.598	23121
849.734	23044
849.869	22858
850.004	22824
850.14	22961
850.275	23086
850.41	22869
850.545	22755
850.68	22713
850.815	22873
850.95	22816
851.085	23041
851.22	22972
851.355	22892
851.49	22866
851.625	22763
851.76	22805
851.895	22713
852.03	22809
852.165	22911
852.299	22862
852.434	22923
852.569	22984
852.703	22908
852.838	22953
852.973	23098
853.107	22987
853.242	22831
853.376	22683
853.511	22733
853.645	22626
853.78	22820
853.914	22557
854.048	22668
854.183	22626
854.317	22683
854.451	22805
854.585	22752
854.72	22740
854.854	22790
854.988	22630
855.122	22660
855.256	22660
855.39	22698
855.524	22733
855.658	22790
855.792	22702
855.926	22615
856.06	22759
856.194	22812
856.327	22706
856.461	22603
856.595	22702
856.729	22622
856.862	22713
856.996	22740
857.13	22866
857.263	22786
857.397	22774
857.53	22656
857.664	22626
857.797	22736
857.931	22691
858.064	22763
858.197	22801
858.331	22618
858.464	22691
858.597	22527
858.731	22672
858.864	22637
858.997	22588
859.13	22675
859.263	22740
859.396	22797
859.529	22596
859.662	22618
859.795	22611
859.928	22744
860.061	22869
860.194	22889
860.327	22675
860.46	22653
860.592	22740
860.725	22919
860.858	22812
860.99	22755
861.123	22611
861.256	22519
861.388	22691
861.521	23368
861.653	22485
861.786	22584
861.918	22618
862.05	22649
862.183	22637
862.315	22607
862.447	22786
862.58	22611
862.712	22402
862.844	22405
862.976	22417
863.108	22489
863.24	22759
863.372	22249
863.504	22421
863.636	22440
863.768	22287
863.9	22367
864.032	22325
864.164	22318
864.296	22512
864.428	22440
864.559	22474
864.691	22462
864.823	22462
864.954	22295
865.086	22341
865.217	22246
865.349	22207
865.48	22360
865.612	22306
865.743	22375
865.875	22253
866.006	22280
866.137	22192
866.269	22253
866.4	22226
866.531	22177
866.662	22246
866.793	22333
866.924	22143
867.055	22230
867.186	22181
867.317	22128
867.448	22078
867.579	22226
867.71	22048
867.841	22070
867.972	22226
868.103	22257
868.233	22101
868.364	22177
868.495	22234
868.625	22363
868.756	22402
868.886	22341
869.017	22367
869.147	22615
869.278	22455
869.408	22280
869.539	22375
869.669	22565
869.799	22481
869.929	22474
870.06	22523
870.19	22774
870.32	22752
870.45	22786
870.58	22797
870.71	22835
870.84	22972
870.97	22831
871.1	22984
871.23	23029
871.36	23003
871.489	23003
871.619	22953
871.749	22980
871.879	23083
872.008	23136
872.138	23033
872.267	23094
872.397	22869
872.526	22793
872.656	22965
872.785	22908
872.915	22987
873.044	23204
873.173	23079
873.303	23044
873.432	22965
873.561	23071
873.69	23064
873.819	23136
873.948	23162
874.077	23064
874.206	22991
874.335	23067
874.464	23174
874.593	23337
874.722	23261
874.851	23364
874.979	23170
875.108	23383
875.237	23178
875.365	23109
875.494	23277
875.623	23231
875.751	23292
875.88	23284
876.008	23379
876.136	23444
876.265	23623
876.393	23748
876.521	23691
876.65	23756
876.778	23649
876.906	23573
877.034	23619
877.162	23668
877.29	23471
877.418	23642
877.546	23577
877.674	23699
877.802	23596
877.93	23554
878.058	23520
878.185	23410
878.313	23417
878.441	23558
878.568	23493
878.696	23543
878.824	23589
878.951	23581
879.079	23813
879.206	24026
879.333	23760
879.461	23703
879.588	23680
879.715	23748
879.842	23836
879.97	23722
880.097	23364
880.224	23360
880.351	23440
880.478	23474
880.605	23360
880.732	23505
880.859	23611
880.986	23463
881.112	23421
881.239	23246
881.366	23094
881.493	23143
881.619	23044
881.746	22965
881.872	23052
881.999	22942
882.125	22873
882.252	23048
882.378	22869
882.505	23098
882.631	22771
882.757	22577
882.883	22748
883.01	22611
883.136	22752
883.262	22497
883.388	22531
883.514	22717
883.64	22725
883.766	22519
883.892	22504
884.018	22443
884.143	22580
884.269	22615
884.395	22390
884.52	22234
884.646	22253
884.772	22226
884.897	22295
885.023	22398
885.148	22413
885.274	22424
885.399	22344
885.524	22299
885.65	22284
885.775	22223
885.9	22185
886.025	22329
886.15	22238
886.275	22242
886.4	22192
886.525	22246
886.65	22329
886.775	22219
886.9	22348
887.025	22577
887.149	22181
887.274	22143
887.399	22131
887.523	22086
887.648	22032
887.773	22040
887.897	22078
888.021	22128
888.146	22032
888.27	22025
888.395	22173
888.519	22032
888.643	21975
888.767	22143
888.891	21941
889.015	21850
889.139	21930
889.263	21808
889.387	21835
889.511	22078
889.635	21880
889.759	21827
889.883	21846
890.006	21888
890.13	21873
890.254	21717
890.377	21850
890.501	21553
890.624	21530
890.748	21572
890.871	21549
890.995	21310
891.118	21329
891.241	21370
891.364	21302
891.488	21462
891.611	21298
891.734	21302
891.857	21473
891.98	21370
892.103	21359
892.226	21447
892.349	21207
892.471	21199
892.594	21310
892.717	21325
892.839	21192
892.962	21302
893.085	21382
893.207	21279
893.33	21096
893.452	21283
893.575	21332
893.697	21146
893.819	21367
893.941	21454
894.064	21424
894.186	21195
894.308	21230
894.43	21325
894.552	21443
894.674	21405
894.796	21074
894.918	21214
895.04	21119
895.161	21264
895.283	21283
895.405	21154
895.526	21279
895.648	21207
895.769	21264
895.891	21310
896.012	21325
896.134	21332
896.255	21226
896.376	21146
896.498	21275
896.619	21207
896.74	21184
896.861	21325
896.982	21519
897.103	21538
897.224	21496
897.345	21530
897.466	21439
897.587	21393
897.708	21694
897.828	21473
897.949	21428
898.07	21291
898.19	21272
898.311	21416
898.431	21386
898.552	21408
898.672	21576
898.792	21542
898.913	21412
899.033	21275
899.153	21180
899.273	21157
899.393	21123
899.513	21355
899.633	21260
899.753	21272
899.873	21055
899.993	21142
900.113	21024
900.232	21154
900.352	21020
900.472	20918
900.591	20868
900.711	20952
900.83	20895
900.95	21157
901.069	20941
901.189	20781
901.308	20644
901.427	20492
901.546	20514
901.665	20484
901.784	20533
901.904	20332
902.023	20263
902.141	20138
902.26	20069
902.379	20103
902.498	20065
902.617	19963
902.735	20065
902.854	19993
902.973	19932
903.091	19719
903.21	19662
903.328	19700
903.446	19658
903.565	19445
903.683	19491
903.801	19362
903.919	19438
904.038	19285
904.156	19190
904.274	19255
904.392	19282
904.51	19217
904.627	19118
904.745	19285
904.863	19053
904.981	18966
905.098	18817
905.216	18882
905.334	18878
905.451	18844
905.569	18825
905.686	18939
905.803	18958
905.921	18585
906.038	18772
906.155	18639
906.272	18604
906.389	18544
906.506	18308
906.623	18502
906.74	18418
906.857	18350
906.974	18350
907.091	18403
907.208	18471
907.324	18384
907.441	18285
907.557	18102
907.674	18163
907.79	18053
907.907	18091
908.023	18194
908.139	18155
908.256	17996
908.372	18003
908.488	17931
908.604	17958
908.72	17813
908.836	17802
908.952	17691
909.068	17813
909.184	17961
909.3	17775
909.415	17699
909.531	17863
909.647	17581
909.762	17558
909.878	17414
909.993	17436
910.108	17429
910.224	17474
910.339	17452
910.454	17376
910.57	17334
910.685	17318
910.8	17463
910.915	17360
911.03	17193
911.145	17086
911.259	17132
911.374	17041
911.489	16923
911.604	16976
911.718	16900
911.833	16915
911.947	16706
912.062	16679
912.176	16820
912.291	16900
912.405	16820
912.519	17079
912.633	16961
912.748	16900
912.862	16809
912.976	16725
913.09	16527
913.204	16546
913.318	16565
913.431	16786
913.545	16656
913.659	16793
913.772	16500
913.886	16375
914	16455
914.113	16466
914.226	16588
914.34	16470
914.453	16318
914.566	16481
914.68	16333
914.793	16287
914.906	16090
915.019	16017
915.132	16002
915.245	15968
915.358	15972
915.47	15953
915.583	15975
915.696	16002
915.809	16078
915.921	16101
916.034	15956
916.146	15953
916.259	15907
916.371	15956
916.483	15899
916.595	15793
916.708	15819
916.82	15759
916.932	15751
917.044	15732
917.156	15732
917.268	15675
917.38	15641
917.491	15629
917.603	15648
917.715	15660
917.826	15762
917.938	15599
918.049	15519
918.161	15622
918.272	15591
918.384	15736
918.495	15519
918.606	15443
918.717	15313
918.828	15386
918.939	15450
919.05	15237
919.161	15412
919.272	15195
919.383	15180
919.494	15416
919.604	15466
919.715	15393
919.826	15226
919.936	15264
920.047	15401
920.157	15279
920.267	15523
920.378	15363
920.488	15397
920.598	15477
920.708	15587
920.818	15462
920.928	15370
921.038	15511
921.148	15549
921.258	15283
921.368	15138
921.477	15039
921.587	15070
921.697	14895
921.806	14971
921.916	14937
922.025	14655
922.134	14663
922.244	14606
922.353	14705
922.462	14514
922.571	14450
922.68	14358
922.789	14309
922.898	14351
923.007	14278
923.116	14358
923.224	14309
923.333	14305
923.442	14183
923.55	14172
923.659	14145
923.767	14172
923.876	14050
923.984	14149
924.092	14050
924.201	14103
924.309	14077
924.417	14020
924.525	13970
924.633	13959
924.741	14659
924.849	13719
924.956	13909
925.064	13753
925.172	13636
925.279	13655
925.387	13674
925.494	13674
925.602	13757
925.709	13647
925.816	13540
925.924	13578
926.031	13746
926.138	13529
926.245	13674
926.352	13472
926.459	13590
926.566	13662
926.673	13575
926.779	13354
926.886	13377
926.993	13324
927.099	13255
927.206	13133
927.312	13126
927.419	13206
927.525	13209
927.631	13206
927.737	13099
927.843	13107
927.95	12916
928.056	12985
928.162	13091
928.267	13019
928.373	13586
928.479	13129
928.585	12894
928.69	12962
928.796	13080
928.901	12856
929.007	12688
929.112	12916
929.218	12837
929.323	12779
929.428	12696
929.533	12852
929.638	12623
929.743	12658
929.848	12738
929.953	12654
930.058	12627
930.163	12410
930.267	12380
930.372	12593
930.477	12315
930.581	12578
930.685	12437
930.79	12311
930.894	12266
930.998	12224
931.103	12342
931.207	11977
931.311	11783
931.415	11840
931.519	11661
931.623	11649
