Data from test_V78500241_896.txt Node
Date: Fri Mar 25 15:48:00 CST 2022
User: usil
Spectrometer: V785-0024
Trigger mode: 0
Integration Time (sec): 4.000000E-1
Scans to average: 1
Nonlinearity correction enabled: false
Boxcar width: 0
Storing dark spectrum: false
XAxis mode: Wavelengths
Number of Pixels in Spectrum: 1024
>>>>>Begin Spectral Data<<<<<
801.071	28478
801.214	28470
801.356	28139
801.499	28059
801.641	27956
801.783	27968
801.926	28040
802.068	27945
802.211	27994
802.353	27857
802.496	27732
802.638	27724
802.78	27599
802.923	27622
803.065	27633
803.208	27747
803.35	27694
803.492	27698
803.635	27880
803.777	27899
803.919	28044
804.061	28238
804.204	27888
804.346	27941
804.488	27797
804.63	27865
804.773	27835
804.915	27789
805.057	28078
805.199	27888
805.341	28021
805.483	28109
805.626	28029
805.768	27907
805.91	28040
806.052	27998
806.194	27956
806.336	28192
806.478	28055
806.62	28010
806.762	28276
806.904	28401
807.046	28641
807.188	28424
807.33	28455
807.472	28523
807.614	28428
807.756	28489
807.898	28200
808.04	28398
808.182	28379
808.324	28401
808.465	28481
808.607	28500
808.749	28824
808.891	28729
809.033	28972
809.174	28824
809.316	28687
809.458	28668
809.6	28828
809.741	28911
809.883	28953
810.025	29102
810.166	28961
810.308	29071
810.45	29029
810.591	28816
810.733	28911
810.875	28771
811.016	28641
811.158	28668
811.299	28877
811.441	28976
811.582	28938
811.724	28729
811.865	28771
812.007	28774
812.148	28839
812.29	28740
812.431	28911
812.573	29041
812.714	29246
812.855	29284
812.997	29254
813.138	29501
813.279	29566
813.421	29280
813.562	29353
813.703	29155
813.845	29010
813.986	28755
814.127	28637
814.268	28417
814.41	28653
814.551	28489
814.692	28630
814.833	28386
814.974	28310
815.115	28329
815.256	28223
815.397	28322
815.539	28329
815.68	28291
815.821	28246
815.962	28223
816.103	28352
816.244	28192
816.385	28010
816.526	28006
816.666	27827
816.807	27698
816.948	27831
817.089	27922
817.23	27728
817.371	27800
817.512	27930
817.653	27797
817.793	27705
817.934	27709
818.075	27618
818.216	27808
818.356	27755
818.497	27656
818.638	27439
818.778	27507
818.919	27603
819.06	27587
819.2	27724
819.341	27800
819.481	27812
819.622	27819
819.762	28185
819.903	28063
820.043	27968
820.184	27865
820.324	27857
820.465	27945
820.605	27994
820.746	27972
820.886	27869
821.026	28021
821.167	27838
821.307	27808
821.447	27804
821.588	27637
821.728	27530
821.868	27355
822.008	27245
822.149	27329
822.289	27252
822.429	27100
822.569	26960
822.709	26967
822.849	26796
822.99	26735
823.13	26712
823.27	26743
823.41	26537
823.55	26427
823.69	26568
823.83	26560
823.97	26438
824.11	26476
824.25	26358
824.389	26590
824.529	26453
824.669	26438
824.809	26606
824.949	26571
825.089	26560
825.228	26522
825.368	26256
825.508	26244
825.648	26286
825.787	26339
825.927	26332
826.067	26377
826.206	26252
826.346	26336
826.485	26427
826.625	26351
826.765	26332
826.904	26415
827.044	26062
827.183	26138
827.323	25970
827.462	26168
827.601	26050
827.741	26024
827.88	25879
828.02	25822
828.159	25966
828.298	26073
828.437	26164
828.577	25944
828.716	25982
828.855	25909
828.994	25712
829.134	25727
829.273	25753
829.412	25712
829.551	25746
829.69	25696
829.829	25704
829.968	25727
830.107	25818
830.246	25651
830.385	25601
830.524	25666
830.663	25559
830.802	25483
830.941	25255
831.08	25339
831.219	25430
831.357	25529
831.496	25487
831.635	25236
831.774	25282
831.913	25350
832.051	25103
832.19	25145
832.329	25175
832.467	25053
832.606	24943
832.744	24966
832.883	24947
833.022	24951
833.16	24909
833.299	24928
833.437	25099
833.576	25103
833.714	25034
833.852	25107
833.991	25206
834.129	25072
834.267	25141
834.406	25038
834.544	25091
834.682	24973
834.821	24989
834.959	25320
835.097	25015
835.235	25183
835.373	25053
835.511	25031
835.65	24985
835.788	24947
835.926	24749
836.064	24760
836.202	24806
836.34	24787
836.478	24901
836.615	25008
836.753	24958
836.891	24882
837.029	24722
837.167	24943
837.305	24707
837.443	24684
837.58	24726
837.718	24810
837.856	24738
837.993	24639
838.131	24738
838.269	24635
838.406	24677
838.544	24582
838.681	24346
838.819	24361
838.956	24262
839.094	24190
839.231	24296
839.369	24266
839.506	24528
839.643	24563
839.781	24125
839.918	24041
840.055	24133
840.193	24140
840.33	24053
840.467	24072
840.604	24098
840.742	24319
840.879	23961
841.016	24038
841.153	24079
841.29	24110
841.427	23984
841.564	24209
841.701	24068
841.838	24114
841.975	24041
842.112	24057
842.249	23851
842.385	23893
842.522	24121
842.659	24026
842.796	23874
842.933	23779
843.069	23779
843.206	23824
843.343	24011
843.479	23733
843.616	23745
843.752	23604
843.889	23543
844.025	23748
844.162	23551
844.298	23691
844.435	23802
844.571	23581
844.708	23695
844.844	23767
844.98	23707
845.117	23718
845.253	23562
845.389	23554
845.525	23581
845.661	23497
845.798	23345
845.934	23436
846.07	23318
846.206	23353
846.342	23486
846.478	23269
846.614	23109
846.75	22984
846.886	23025
847.022	23067
847.158	23090
847.294	23132
847.429	23014
847.565	22976
847.701	23204
847.837	22809
847.972	22843
848.108	22881
848.244	22980
848.379	22615
848.515	22672
848.65	22694
848.786	22630
848.921	22653
849.057	22782
849.192	22618
849.328	22694
849.463	22702
849.598	22622
849.734	22466
849.869	22474
850.004	22443
850.14	22432
850.275	22519
850.41	22280
850.545	22474
850.68	22512
850.815	22440
850.95	22367
851.085	22565
851.22	22554
851.355	22500
851.49	22325
851.625	22417
851.76	22413
851.895	22367
852.03	22386
852.165	22481
852.299	22421
852.434	22554
852.569	22455
852.703	22443
852.838	22402
852.973	22615
853.107	22478
853.242	22341
853.376	22329
853.511	22124
853.645	22177
853.78	22440
853.914	22341
854.048	22226
854.183	22154
854.317	22257
854.451	22436
854.585	22257
854.72	22116
854.854	22303
854.988	22090
855.122	22173
855.256	22101
855.39	22287
855.524	22268
855.658	22356
855.792	22310
855.926	22226
856.06	22230
856.194	22215
856.327	22253
856.461	22097
856.595	22230
856.729	22128
856.862	22333
856.996	22246
857.13	22257
857.263	22318
857.397	22436
857.53	22128
857.664	22310
857.797	22219
857.931	22329
858.064	22291
858.197	22246
858.331	22109
858.464	22265
858.597	22124
858.731	22173
858.864	22246
858.997	22207
859.13	22112
859.263	22181
859.396	22310
859.529	22299
859.662	22169
859.795	22185
859.928	22249
860.061	22291
860.194	22462
860.327	22303
860.46	22169
860.592	22337
860.725	22504
860.858	22303
860.99	22306
861.123	22135
861.256	22135
861.388	22238
861.521	22938
861.653	22112
861.786	22021
861.918	22101
862.05	22078
862.183	22211
862.315	22162
862.447	22207
862.58	22120
862.712	21888
862.844	21884
862.976	22063
863.108	21979
863.24	22234
863.372	21880
863.504	21972
863.636	21899
863.768	21968
863.9	21949
864.032	21907
864.164	21846
864.296	21884
864.428	22082
864.559	21979
864.691	22013
864.823	21922
864.954	21888
865.086	21915
865.217	21797
865.349	21728
865.48	21869
865.612	21797
865.743	21968
865.875	21903
866.006	21739
866.137	21747
866.269	21838
866.4	21804
866.531	21774
866.662	21724
866.793	21739
866.924	21701
867.055	21766
867.186	21739
867.317	21675
867.448	21530
867.579	21793
867.71	21743
867.841	21564
867.972	21701
868.103	21717
868.233	21595
868.364	21679
868.495	21778
868.625	21918
868.756	21953
868.886	21930
869.017	21991
869.147	22036
869.278	21964
869.408	21979
869.539	21960
869.669	22051
869.799	22032
869.929	22109
870.06	22188
870.19	22295
870.32	22268
870.45	22196
870.58	22398
870.71	22481
870.84	22508
870.97	22310
871.1	22379
871.23	22577
871.36	22588
871.489	22382
871.619	22504
871.749	22561
871.879	22603
872.008	22626
872.138	22611
872.267	22584
872.397	22504
872.526	22413
872.656	22478
872.785	22382
872.915	22645
873.044	22683
873.173	22698
873.303	22649
873.432	22535
873.561	22733
873.69	22516
873.819	22512
873.948	22599
874.077	22550
874.206	22569
874.335	22611
874.464	22721
874.593	22774
874.722	22782
874.851	22752
874.979	22793
875.108	22824
875.237	22729
875.365	22729
875.494	22744
875.623	22809
875.751	22664
875.88	22717
876.008	22961
876.136	22991
876.265	23181
876.393	23303
876.521	23235
876.65	23220
876.778	23307
876.906	23071
877.034	23147
877.162	23155
877.29	23075
877.418	23231
877.546	23284
877.674	23033
877.802	23216
877.93	23064
878.058	22946
878.185	23185
878.313	23147
878.441	23121
878.568	23060
878.696	23067
878.824	23235
878.951	23288
879.079	23250
879.206	23326
879.333	23315
879.461	23299
879.588	23250
879.715	23349
879.842	23368
879.97	23356
880.097	22938
880.224	22862
880.351	22976
880.478	23033
880.605	22908
880.732	22915
880.859	23128
880.986	22976
881.112	23067
881.239	22782
881.366	22763
881.493	22618
881.619	22527
881.746	22546
881.872	22523
881.999	22516
882.125	22466
882.252	22577
882.378	22436
882.505	22538
882.631	22455
882.757	22192
882.883	22295
883.01	22257
883.136	22154
883.262	21941
883.388	21949
883.514	22074
883.64	22211
883.766	22025
883.892	22010
884.018	21968
884.143	22192
884.269	22276
884.395	22017
884.52	21789
884.646	21857
884.772	21846
884.897	21675
885.023	21800
885.148	21987
885.274	22051
885.399	22070
885.524	21876
885.65	21854
885.775	21941
885.9	21797
886.025	21915
886.15	21949
886.275	21850
886.4	21694
886.525	21785
886.65	21857
886.775	21835
886.9	22032
887.025	22029
887.149	21682
887.274	21717
887.399	21682
887.523	21488
887.648	21488
887.773	21504
887.897	21686
888.021	21709
888.146	21431
888.27	21667
888.395	21713
888.519	21720
888.643	21625
888.767	21774
888.891	21500
889.015	21576
889.139	21416
889.263	21329
889.387	21481
889.511	21568
889.635	21580
889.759	21363
889.883	21405
890.006	21329
890.13	21439
890.254	21340
890.377	21412
890.501	21123
890.624	21116
890.748	21222
890.871	21074
890.995	21077
891.118	20910
891.241	20921
891.364	21020
891.488	21077
891.611	20872
891.734	20975
891.857	21058
891.98	20906
892.103	20952
892.226	21020
892.349	20853
892.471	20705
892.594	20906
892.717	20929
892.839	20880
892.962	20785
893.085	20861
893.207	20857
893.33	20689
893.452	20819
893.575	20906
893.697	20701
893.819	20975
893.941	21070
894.064	20921
894.186	20842
894.308	20686
894.43	20834
894.552	20944
894.674	20891
894.796	20743
894.918	20811
895.04	20800
895.161	20872
895.283	20883
895.405	20758
895.526	20830
895.648	20845
895.769	20864
895.891	20891
896.012	20868
896.134	20876
896.255	20777
896.376	20758
896.498	20868
896.619	20933
896.74	20883
896.861	20944
896.982	21047
897.103	21226
897.224	21089
897.345	20937
897.466	20948
897.587	20982
897.708	21150
897.828	21093
897.949	21058
898.07	20921
898.19	20902
898.311	21055
898.431	20941
898.552	21096
898.672	21047
898.792	21100
898.913	21058
899.033	20929
899.153	21009
899.273	20819
899.393	20792
899.513	20781
899.633	20819
899.753	20811
899.873	20773
899.993	20830
900.113	20785
900.232	20743
900.352	20697
900.472	20636
900.591	20484
900.711	20579
900.83	20503
900.95	20792
901.069	20602
901.189	20362
901.308	20138
901.427	20161
901.546	20191
901.665	20103
901.784	20122
901.904	20008
902.023	19875
902.141	19693
902.26	19662
902.379	19750
902.498	19552
902.617	19594
902.735	19620
902.854	19647
902.973	19468
903.091	19244
903.21	19388
903.328	19228
903.446	19244
903.565	19164
903.683	19004
903.801	19099
903.919	19110
904.038	18970
904.156	18821
904.274	18989
904.392	18909
904.51	18814
904.627	18749
904.745	18875
904.863	18871
904.981	18536
905.098	18620
905.216	18608
905.334	18540
905.451	18540
905.569	18506
905.686	18547
905.803	18479
905.921	18277
906.038	18448
906.155	18437
906.272	18133
906.389	18262
906.506	18136
906.623	18038
906.74	18117
906.857	17893
906.974	18049
907.091	18106
907.208	18136
907.324	18117
907.441	17901
907.557	17813
907.674	17805
907.79	17627
907.907	17786
908.023	17920
908.139	17707
908.256	17813
908.372	17687
908.488	17672
908.604	17600
908.72	17440
908.836	17501
908.952	17440
909.068	17440
909.184	17463
909.3	17562
909.415	17551
909.531	17414
909.647	17288
909.762	17159
909.878	17155
909.993	17239
910.108	17212
910.224	17128
910.339	17121
910.454	17067
910.57	17159
910.685	16862
910.8	17292
910.915	17155
911.03	16991
911.145	16713
911.259	16824
911.374	16809
911.489	16713
911.604	16618
911.718	16538
911.833	16500
911.947	16504
912.062	16405
912.176	16580
912.291	16554
912.405	16535
912.519	16683
912.633	16740
912.748	16569
912.862	16451
912.976	16367
913.09	16196
913.204	16318
913.318	16207
913.431	16402
913.545	16440
913.659	16344
913.772	16173
913.886	16234
914	16074
914.113	16082
914.226	16242
914.34	16223
914.453	16097
914.566	16162
914.68	16036
914.793	15911
914.906	15819
915.019	15660
915.132	15728
915.245	15629
915.358	15671
915.47	15717
915.583	15709
915.696	15709
915.809	15838
915.921	15785
916.034	15610
916.146	15561
916.259	15553
916.371	15584
916.483	15584
916.595	15515
916.708	15599
916.82	15545
916.932	15412
917.044	15473
917.156	15447
917.268	15401
917.38	15435
917.491	15249
917.603	15481
917.715	15450
917.826	15447
917.938	15275
918.049	15150
918.161	15226
918.272	15412
918.384	15378
918.495	15294
918.606	15066
918.717	15081
918.828	15108
918.939	15161
919.05	15013
919.161	15013
919.272	14842
919.383	14918
919.494	15062
919.604	15291
919.715	15119
919.826	14895
919.936	15097
920.047	15043
920.157	15036
920.267	15218
920.378	15123
920.488	15058
920.598	15264
920.708	15367
920.818	15222
920.928	15112
921.038	15233
921.148	15298
921.258	15009
921.368	14800
921.477	14739
921.587	14777
921.697	14613
921.806	14819
921.916	14564
922.025	14473
922.134	14396
922.244	14408
922.353	14377
922.462	14278
922.571	14183
922.68	14130
922.789	14012
922.898	14115
923.007	13993
923.116	14001
923.224	14092
923.333	14016
923.442	14111
923.55	13849
923.659	13902
923.767	13963
923.876	13883
923.984	13807
924.092	13784
924.201	13734
924.309	13776
924.417	13856
924.525	13746
924.633	13636
924.741	14632
924.849	13403
924.956	13628
925.064	13426
925.172	13362
925.279	13445
925.387	13480
925.494	13422
925.602	13575
925.709	13495
925.816	13308
925.924	13320
926.031	13411
926.138	13335
926.245	13464
926.352	13365
926.459	13415
926.566	13453
926.673	13331
926.779	13152
926.886	13217
926.993	13057
927.099	13015
927.206	12905
927.312	12962
927.419	12943
927.525	12859
927.631	13072
927.737	12905
927.843	12806
927.95	12715
928.056	12810
928.162	12814
928.267	12863
928.373	13259
928.479	12829
928.585	12669
928.69	12734
928.796	12802
928.901	12696
929.007	12426
929.112	12601
929.218	12608
929.323	12559
929.428	12506
929.533	12604
929.638	12422
929.743	12429
929.848	12471
929.953	12418
930.058	12384
930.163	12182
930.267	12235
930.372	12311
930.477	12083
930.581	12277
930.685	12266
930.79	12041
930.894	12068
930.998	12030
931.103	12129
931.207	11767
931.311	11737
931.415	11703
931.519	11391
931.623	11463
