Data from test_V78500241_3675.txt Node
Date: Fri Mar 25 16:07:15 CST 2022
User: usil
Spectrometer: V785-0024
Trigger mode: 0
Integration Time (sec): 4.000000E-1
Scans to average: 1
Nonlinearity correction enabled: false
Boxcar width: 0
Storing dark spectrum: false
XAxis mode: Wavelengths
Number of Pixels in Spectrum: 1024
>>>>>Begin Spectral Data<<<<<
801.071	28360
801.214	28371
801.356	28074
801.499	28120
801.641	27972
801.783	27914
801.926	28025
802.068	27922
802.211	27960
802.353	27857
802.496	27755
802.638	27713
802.78	27778
802.923	27603
803.065	27515
803.208	27614
803.35	27603
803.492	27728
803.635	27850
803.777	27690
803.919	27914
804.061	28032
804.204	27892
804.346	27888
804.488	27667
804.63	27914
804.773	27705
804.915	27827
805.057	28169
805.199	27865
805.341	27964
805.483	28082
805.626	28051
805.768	27930
805.91	28044
806.052	28116
806.194	27835
806.336	28158
806.478	28040
806.62	27949
806.762	28268
806.904	28295
807.046	28474
807.188	28557
807.33	28519
807.472	28493
807.614	28390
807.756	28280
807.898	28337
808.04	28261
808.182	28234
808.324	28382
808.465	28287
808.607	28428
808.749	28744
808.891	28710
809.033	28919
809.174	28809
809.316	28660
809.458	28752
809.6	28569
809.741	28843
809.883	28778
810.025	29102
810.166	28984
810.308	28991
810.45	28965
810.591	28942
810.733	28759
810.875	28755
811.016	28599
811.158	28675
811.299	28904
811.441	28698
811.582	28866
811.724	28649
811.865	28622
812.007	28793
812.148	28755
812.29	28782
812.431	28797
812.573	29181
812.714	29143
812.855	29124
812.997	29429
813.138	29509
813.279	29402
813.421	29296
813.562	29200
813.703	29048
813.845	28965
813.986	28615
814.127	28554
814.268	28500
814.41	28550
814.551	28455
814.692	28455
814.833	28272
814.974	28360
815.115	28344
815.256	28200
815.397	28371
815.539	28173
815.68	28078
815.821	28196
815.962	28333
816.103	28242
816.244	28131
816.385	28025
816.526	27930
816.666	27800
816.807	27633
816.948	27808
817.089	27838
817.23	27713
817.371	27694
817.512	27675
817.653	27743
817.793	27720
817.934	27705
818.075	27698
818.216	27614
818.356	27553
818.497	27606
818.638	27450
818.778	27378
818.919	27367
819.06	27466
819.2	27686
819.341	27739
819.481	27561
819.622	27918
819.762	28124
819.903	28051
820.043	27842
820.184	27979
820.324	27797
820.465	28017
820.605	27808
820.746	27770
820.886	27603
821.026	27819
821.167	27793
821.307	27857
821.447	27705
821.588	27622
821.728	27511
821.868	27329
822.008	27173
822.149	27169
822.289	27150
822.429	26975
822.569	26910
822.709	26830
822.849	26701
822.99	26781
823.13	26727
823.27	26731
823.41	26484
823.55	26412
823.69	26644
823.83	26629
823.97	26423
824.11	26309
824.25	26393
824.389	26343
824.529	26404
824.669	26400
824.809	26606
824.949	26301
825.089	26305
825.228	26400
825.368	26195
825.508	26183
825.648	26237
825.787	26309
825.927	26240
826.067	26126
826.206	26199
826.346	26252
826.485	26313
826.625	26065
826.765	26271
826.904	26218
827.044	26107
827.183	25959
827.323	25803
827.462	26077
827.601	26092
827.741	25944
827.88	26008
828.02	25833
828.159	25830
828.298	25921
828.437	26020
828.577	25944
828.716	25993
828.855	25913
828.994	25620
829.134	25483
829.273	25639
829.412	25548
829.551	25544
829.69	25609
829.829	25681
829.968	25712
830.107	25799
830.246	25479
830.385	25502
830.524	25422
830.663	25419
830.802	25343
830.941	25358
831.08	25236
831.219	25369
831.357	25304
831.496	25468
831.635	25141
831.774	25206
831.913	25145
832.051	25152
832.19	25023
832.329	25008
832.467	24985
832.606	24787
832.744	24776
832.883	24798
833.022	24924
833.16	24935
833.299	24920
833.437	24928
833.576	24951
833.714	25027
833.852	24916
833.991	25057
834.129	25042
834.267	24935
834.406	24848
834.544	24890
834.682	25080
834.821	24943
834.959	25065
835.097	24856
835.235	25031
835.373	24966
835.511	24970
835.65	24787
835.788	24825
835.926	24661
836.064	24627
836.202	24604
836.34	24772
836.478	24916
836.615	24928
836.753	24757
836.891	24878
837.029	24840
837.167	24696
837.305	24604
837.443	24658
837.58	24513
837.718	24760
837.856	24741
837.993	24494
838.131	24589
838.269	24467
838.406	24585
838.544	24376
838.681	24285
838.819	24319
838.956	24152
839.094	24068
839.231	24110
839.369	24201
839.506	24357
839.643	24407
839.781	24064
839.918	24011
840.055	24098
840.193	24110
840.33	24060
840.467	24072
840.604	24057
840.742	24247
840.879	23874
841.016	23954
841.153	23969
841.29	24049
841.427	23931
841.564	24041
841.701	24018
841.838	23828
841.975	23767
842.112	23950
842.249	23748
842.385	23866
842.522	23889
842.659	23908
842.796	23783
842.933	23767
843.069	23722
843.206	23786
843.343	23790
843.479	23790
843.616	23855
843.752	23642
843.889	23478
844.025	23634
844.162	23589
844.298	23589
844.435	23634
844.571	23608
844.708	23478
844.844	23718
844.98	23733
845.117	23691
845.253	23471
845.389	23334
845.525	23425
845.661	23368
845.798	23181
845.934	23273
846.07	23269
846.206	23414
846.342	23452
846.478	23280
846.614	23083
846.75	23018
846.886	22980
847.022	23083
847.158	23025
847.294	23018
847.429	23124
847.565	22946
847.701	23299
847.837	22752
847.972	22611
848.108	22805
848.244	22839
848.379	22596
848.515	22504
848.65	22687
848.786	22603
848.921	22660
849.057	22679
849.192	22649
849.328	22660
849.463	22489
849.598	22451
849.734	22360
849.869	22390
850.004	22306
850.14	22402
850.275	22379
850.41	22238
850.545	22314
850.68	22337
850.815	22390
850.95	22329
851.085	22535
851.22	22360
851.355	22196
851.49	22379
851.625	22234
851.76	22447
851.895	22299
852.03	22249
852.165	22306
852.299	22371
852.434	22531
852.569	22417
852.703	22367
852.838	22382
852.973	22447
853.107	22489
853.242	22314
853.376	22131
853.511	22101
853.645	22185
853.78	22249
853.914	22219
854.048	22215
854.183	22154
854.317	22299
854.451	22318
854.585	22204
854.72	22242
854.854	22276
854.988	22147
855.122	22219
855.256	22029
855.39	22143
855.524	22314
855.658	22280
855.792	22086
855.926	22078
856.06	22185
856.194	22223
856.327	22131
856.461	22120
856.595	22135
856.729	22143
856.862	22246
856.996	22120
857.13	22131
857.263	22371
857.397	22181
857.53	22097
857.664	22287
857.797	22181
857.931	22246
858.064	22295
858.197	22299
858.331	22120
858.464	22074
858.597	22063
858.731	22150
858.864	22051
858.997	22158
859.13	22204
859.263	22181
859.396	22226
859.529	22135
859.662	22105
859.795	22040
859.928	22230
860.061	22238
860.194	22287
860.327	22265
860.46	22074
860.592	22360
860.725	22409
860.858	22131
860.99	22200
861.123	22131
861.256	22230
861.388	22044
861.521	22961
861.653	21956
861.786	22051
861.918	22112
862.05	22070
862.183	22128
862.315	22067
862.447	22105
862.58	22017
862.712	21876
862.844	21804
862.976	21869
863.108	21934
863.24	22405
863.372	21823
863.504	21819
863.636	21781
863.768	21930
863.9	21861
864.032	21823
864.164	21857
864.296	21918
864.428	21979
864.559	21903
864.691	21937
864.823	21895
864.954	21827
865.086	21827
865.217	21766
865.349	21656
865.48	21827
865.612	21747
865.743	22021
865.875	21880
866.006	21728
866.137	21778
866.269	21785
866.4	21717
866.531	21755
866.662	21580
866.793	21762
866.924	21698
867.055	21800
867.186	21542
867.317	21679
867.448	21663
867.579	21523
867.71	21633
867.841	21648
867.972	21705
868.103	21732
868.233	21583
868.364	21743
868.495	21804
868.625	22029
868.756	22086
868.886	21876
869.017	22010
869.147	22090
869.278	21991
869.408	21956
869.539	21964
869.669	22010
869.799	21922
869.929	22044
870.06	22067
870.19	22166
870.32	22181
870.45	22314
870.58	22329
870.71	22390
870.84	22295
870.97	22310
871.1	22344
871.23	22615
871.36	22508
871.489	22489
871.619	22611
871.749	22542
871.879	22573
872.008	22725
872.138	22531
872.267	22672
872.397	22436
872.526	22371
872.656	22356
872.785	22280
872.915	22531
873.044	22653
873.173	22596
873.303	22561
873.432	22611
873.561	22516
873.69	22497
873.819	22436
873.948	22691
874.077	22504
874.206	22459
874.335	22615
874.464	22698
874.593	22850
874.722	22694
874.851	22801
874.979	22904
875.108	22748
875.237	22763
875.365	22580
875.494	22801
875.623	22862
875.751	22778
875.88	22782
876.008	22911
876.136	22923
876.265	23109
876.393	23391
876.521	23239
876.65	23197
876.778	23227
876.906	23193
877.034	23056
877.162	23029
877.29	23220
877.418	23185
877.546	23155
877.674	23071
877.802	23090
877.93	23155
878.058	23105
878.185	22965
878.313	23033
878.441	23056
878.568	22919
878.696	22987
878.824	23109
878.951	23197
879.079	23292
879.206	23444
879.333	23277
879.461	23189
879.588	23204
879.715	23277
879.842	23391
879.97	23231
880.097	23003
880.224	22972
880.351	22881
880.478	22946
880.605	22759
880.732	23102
880.859	23090
880.986	23037
881.112	22919
881.239	22965
881.366	22736
881.493	22565
881.619	22523
881.746	22466
881.872	22573
881.999	22455
882.125	22497
882.252	22599
882.378	22615
882.505	22493
882.631	22382
882.757	22295
882.883	22219
883.01	22169
883.136	22051
883.262	22059
883.388	21991
883.514	22192
883.64	22333
883.766	22120
883.892	22048
884.018	22082
884.143	22188
884.269	22268
884.395	21930
884.52	21861
884.646	21899
884.772	21743
884.897	21861
885.023	21850
885.148	21926
885.274	22059
885.399	21953
885.524	21766
885.65	21865
885.775	21850
885.9	21667
886.025	21854
886.15	21884
886.275	21781
886.4	21720
886.525	21922
886.65	21759
886.775	21739
886.9	21842
887.025	22082
887.149	21698
887.274	21591
887.399	21625
887.523	21625
887.648	21629
887.773	21553
887.897	21633
888.021	21580
888.146	21408
888.27	21610
888.395	21644
888.519	21572
888.643	21739
888.767	21595
888.891	21313
889.015	21302
889.139	21416
889.263	21485
889.387	21507
889.511	21603
889.635	21466
889.759	21348
889.883	21370
890.006	21374
890.13	21538
890.254	21214
890.377	21317
890.501	21192
890.624	21135
890.748	21020
890.871	20998
890.995	20853
891.118	20872
891.241	20864
891.364	20963
891.488	21093
891.611	20952
891.734	20960
891.857	20971
891.98	20887
892.103	21039
892.226	20883
892.349	20861
892.471	20705
892.594	20883
892.717	20842
892.839	20678
892.962	20834
893.085	20956
893.207	20933
893.33	20682
893.452	20773
893.575	20853
893.697	20823
893.819	20979
893.941	21051
894.064	20979
894.186	20731
894.308	20731
894.43	20891
894.552	20952
894.674	21013
894.796	20796
894.918	20800
895.04	20754
895.161	20925
895.283	20864
895.405	20762
895.526	20815
895.648	20777
895.769	20735
895.891	20811
896.012	20887
896.134	20830
896.255	20811
896.376	20727
896.498	20796
896.619	20762
896.74	20807
896.861	20754
896.982	21062
897.103	21287
897.224	21195
897.345	21017
897.466	20880
897.587	20914
897.708	21173
897.828	21112
897.949	20853
898.07	20838
898.19	20937
898.311	21036
898.431	21112
898.552	20891
898.672	20998
898.792	21112
898.913	21001
899.033	20979
899.153	20804
899.273	20648
899.393	20705
899.513	20777
899.633	20727
899.753	20788
899.873	20678
899.993	20743
900.113	20613
900.232	20693
900.352	20640
900.472	20629
900.591	20564
900.711	20579
900.83	20522
900.95	20518
901.069	20507
901.189	20419
901.308	20225
901.427	20039
901.546	20088
901.665	20039
901.784	20073
901.904	20016
902.023	19860
902.141	19761
902.26	19639
902.379	19681
902.498	19616
902.617	19601
902.735	19556
902.854	19563
902.973	19453
903.091	19217
903.21	19255
903.328	19198
903.446	19148
903.565	18989
903.683	19152
903.801	18970
903.919	19008
904.038	19019
904.156	18814
904.274	18909
904.392	18787
904.51	18681
904.627	18715
904.745	18886
904.863	18962
904.981	18608
905.098	18445
905.216	18521
905.334	18536
905.451	18437
905.569	18403
905.686	18555
905.803	18494
905.921	18235
906.038	18353
906.155	18239
906.272	18091
906.389	18163
906.506	18060
906.623	18095
906.74	18053
906.857	17961
906.974	18038
907.091	18015
907.208	18091
907.324	18034
907.441	17866
907.557	17824
907.674	17718
907.79	17722
907.907	17760
908.023	17714
908.139	17828
908.256	17748
908.372	17714
908.488	17627
908.604	17433
908.72	17467
908.836	17459
908.952	17425
909.068	17440
909.184	17478
909.3	17448
909.415	17509
909.531	17520
909.647	17220
909.762	17094
909.878	17071
909.993	17143
910.108	17124
910.224	17006
910.339	16961
910.454	17064
910.57	16793
910.685	16900
910.8	17109
910.915	17067
911.03	16930
911.145	16702
911.259	16767
911.374	16687
911.489	16706
911.604	16660
911.718	16550
911.833	16535
911.947	16417
912.062	16268
912.176	16485
912.291	16470
912.405	16485
912.519	16519
912.633	16660
912.748	16523
912.862	16413
912.976	16253
913.09	16010
913.204	16280
913.318	16276
913.431	16504
913.545	16462
913.659	16375
913.772	16139
913.886	16112
914	16048
914.113	16124
914.226	16162
914.34	16101
914.453	16048
914.566	16074
914.68	15827
914.793	15937
914.906	15743
915.019	15660
915.132	15507
915.245	15675
915.358	15682
915.47	15679
915.583	15660
915.696	15671
915.809	15759
915.921	15827
916.034	15694
916.146	15656
916.259	15534
916.371	15720
916.483	15610
916.595	15526
916.708	15519
916.82	15435
916.932	15507
917.044	15485
917.156	15348
917.268	15268
917.38	15389
917.491	15291
917.603	15336
917.715	15355
917.826	15386
917.938	15233
918.049	15169
918.161	15272
918.272	15363
918.384	15279
918.495	15207
918.606	15188
918.717	14998
918.828	15150
918.939	15176
919.05	14982
919.161	14998
919.272	14883
919.383	14868
919.494	15150
919.604	15241
919.715	15077
919.826	14902
919.936	15036
920.047	15157
920.157	15077
920.267	15237
920.378	15058
920.488	14941
920.598	15252
920.708	15348
920.818	15199
920.928	15112
921.038	15355
921.148	15317
921.258	15024
921.368	14921
921.477	14769
921.587	14754
921.697	14629
921.806	14781
921.916	14640
922.025	14484
922.134	14381
922.244	14423
922.353	14480
922.462	14290
922.571	14195
922.68	14138
922.789	14005
922.898	14130
923.007	13986
923.116	14005
923.224	13974
923.333	13993
923.442	13871
923.55	13871
923.659	13925
923.767	13970
923.876	13826
923.984	13879
924.092	13780
924.201	13753
924.309	13772
924.417	13689
924.525	13731
924.633	13628
924.741	14670
924.849	13411
924.956	13666
925.064	13480
925.172	13289
925.279	13415
925.387	13487
925.494	13403
925.602	13537
925.709	13411
925.816	13304
925.924	13400
926.031	13457
926.138	13335
926.245	13369
926.352	13236
926.459	13407
926.566	13449
926.673	13354
926.779	13244
926.886	13133
926.993	13091
927.099	12863
927.206	12966
927.312	12954
927.419	13000
927.525	13004
927.631	13027
927.737	12863
927.843	12844
927.95	12715
928.056	12753
928.162	12859
928.267	12825
928.373	13487
928.479	12837
928.585	12593
928.69	12791
928.796	12772
928.901	12563
929.007	12616
929.112	12707
929.218	12582
929.323	12502
929.428	12460
929.533	12544
929.638	12388
929.743	12437
929.848	12551
929.953	12452
930.058	12407
930.163	12243
930.267	12190
930.372	12304
930.477	12205
930.581	12296
930.685	12224
930.79	12034
930.894	12091
930.998	12068
931.103	12079
931.207	11817
931.311	11809
931.415	11573
931.519	11448
931.623	11402
