Data from test_V78500241_2336.txt Node
Date: Fri Mar 25 15:57:58 CST 2022
User: usil
Spectrometer: V785-0024
Trigger mode: 0
Integration Time (sec): 4.000000E-1
Scans to average: 1
Nonlinearity correction enabled: false
Boxcar width: 0
Storing dark spectrum: false
XAxis mode: Wavelengths
Number of Pixels in Spectrum: 1024
>>>>>Begin Spectral Data<<<<<
801.071	28462
801.214	28481
801.356	28272
801.499	28131
801.641	28192
801.783	28063
801.926	28109
802.068	28086
802.211	27998
802.353	27850
802.496	27934
802.638	27812
802.78	27766
802.923	27591
803.065	27572
803.208	27705
803.35	27869
803.492	27884
803.635	28017
803.777	27781
803.919	27876
804.061	28207
804.204	28010
804.346	27922
804.488	27854
804.63	27934
804.773	27964
804.915	27983
805.057	28238
805.199	27953
805.341	28070
805.483	28181
805.626	28086
805.768	28070
805.91	28048
806.052	28223
806.194	28067
806.336	28253
806.478	28101
806.62	28105
806.762	28188
806.904	28459
807.046	28637
807.188	28618
807.33	28577
807.472	28550
807.614	28485
807.756	28573
807.898	28470
808.04	28360
808.182	28390
808.324	28550
808.465	28428
808.607	28721
808.749	28729
808.891	28885
809.033	28930
809.174	28869
809.316	28683
809.458	28949
809.6	28664
809.741	29041
809.883	28987
810.025	29178
810.166	29094
810.308	29121
810.45	29022
810.591	29067
810.733	28892
810.875	28934
811.016	28748
811.158	28679
811.299	28801
811.441	28999
811.582	28896
811.724	28809
811.865	28790
812.007	28885
812.148	28805
812.29	28850
812.431	28984
812.573	29105
812.714	29162
812.855	29353
812.997	29554
813.138	29767
813.279	29402
813.421	29330
813.562	29322
813.703	29064
813.845	28869
813.986	28816
814.127	28656
814.268	28474
814.41	28588
814.551	28497
814.692	28584
814.833	28554
814.974	28554
815.115	28531
815.256	28462
815.397	28538
815.539	28337
815.68	28356
815.821	28177
815.962	28497
816.103	28291
816.244	28276
816.385	28116
816.526	28105
816.666	27968
816.807	27991
816.948	27838
817.089	28181
817.23	27827
817.371	27819
817.512	27781
817.653	27926
817.793	27709
817.934	27842
818.075	27812
818.216	27732
818.356	27808
818.497	27785
818.638	27519
818.778	27618
818.919	27496
819.06	27614
819.2	27766
819.341	27850
819.481	27812
819.622	27979
819.762	28067
819.903	28101
820.043	27991
820.184	28078
820.324	27911
820.465	28006
820.605	27987
820.746	28101
820.886	27701
821.026	27941
821.167	27816
821.307	27892
821.447	27797
821.588	27743
821.728	27652
821.868	27462
822.008	27386
822.149	27329
822.289	27317
822.429	27074
822.569	27108
822.709	27039
822.849	26971
822.99	26735
823.13	26823
823.27	26834
823.41	26686
823.55	26564
823.69	26682
823.83	26632
823.97	26488
824.11	26495
824.25	26374
824.389	26579
824.529	26670
824.669	26484
824.809	26655
824.949	26473
825.089	26545
825.228	26587
825.368	26370
825.508	26351
825.648	26267
825.787	26381
825.927	26320
826.067	26305
826.206	26408
826.346	26453
826.485	26423
826.625	26404
826.765	26374
826.904	26343
827.044	26218
827.183	26275
827.323	26001
827.462	26062
827.601	25978
827.741	25978
827.88	26008
828.02	25982
828.159	26096
828.298	26221
828.437	26157
828.577	25989
828.716	26096
828.855	25974
828.994	25731
829.134	25757
829.273	25845
829.412	25723
829.551	25651
829.69	25830
829.829	25803
829.968	25830
830.107	25769
830.246	25738
830.385	25776
830.524	25635
830.663	25537
830.802	25491
830.941	25324
831.08	25316
831.219	25434
831.357	25479
831.496	25552
831.635	25274
831.774	25160
831.913	25304
832.051	25088
832.19	25065
832.329	25156
832.467	25038
832.606	24932
832.744	25053
832.883	25019
833.022	24932
833.16	25122
833.299	25129
833.437	25015
833.576	25091
833.714	25080
833.852	25126
833.991	25148
834.129	25156
834.267	25061
834.406	24989
834.544	25148
834.682	25027
834.821	25122
834.959	25285
835.097	24951
835.235	25213
835.373	24970
835.511	25076
835.65	24726
835.788	24928
835.926	24760
836.064	24730
836.202	24829
836.34	24886
836.478	25050
836.615	24909
836.753	24878
836.891	25042
837.029	24985
837.167	24757
837.305	24821
837.443	24711
837.58	24779
837.718	24757
837.856	24798
837.993	24646
838.131	24570
838.269	24608
838.406	24627
838.544	24505
838.681	24467
838.819	24338
838.956	24095
839.094	24209
839.231	24247
839.369	24323
839.506	24528
839.643	24475
839.781	24216
839.918	24213
840.055	24174
840.193	24140
840.33	24045
840.467	24114
840.604	24098
840.742	24346
840.879	24095
841.016	24053
841.153	23961
841.29	24197
841.427	24072
841.564	24152
841.701	24106
841.838	24117
841.975	24079
842.112	24140
842.249	23939
842.385	23939
842.522	24125
842.659	23977
842.796	23843
842.933	23771
843.069	23718
843.206	23805
843.343	23942
843.479	23908
843.616	23843
843.752	23615
843.889	23676
844.025	23729
844.162	23687
844.298	23733
844.435	23615
844.571	23627
844.708	23828
844.844	23790
844.98	23882
845.117	23741
845.253	23585
845.389	23551
845.525	23505
845.661	23387
845.798	23372
845.934	23474
846.07	23356
846.206	23356
846.342	23440
846.478	23208
846.614	23265
846.75	23102
846.886	23159
847.022	23140
847.158	23121
847.294	23143
847.429	23220
847.565	23140
847.701	23379
847.837	22759
847.972	22729
848.108	22847
848.244	22980
848.379	22782
848.515	22641
848.65	22599
848.786	22793
848.921	22672
849.057	22721
849.192	22919
849.328	22744
849.463	22702
849.598	22607
849.734	22683
849.869	22561
850.004	22459
850.14	22409
850.275	22440
850.41	22276
850.545	22474
850.68	22356
850.815	22451
850.95	22413
851.085	22584
851.22	22630
851.355	22405
851.49	22333
851.625	22398
851.76	22405
851.895	22432
852.03	22329
852.165	22436
852.299	22508
852.434	22580
852.569	22584
852.703	22394
852.838	22523
852.973	22470
853.107	22630
853.242	22413
853.376	22276
853.511	22090
853.645	22253
853.78	22257
853.914	22348
854.048	22226
854.183	22188
854.317	22386
854.451	22371
854.585	22303
854.72	22238
854.854	22413
854.988	22261
855.122	22242
855.256	22112
855.39	22310
855.524	22398
855.658	22276
855.792	22246
855.926	22314
856.06	22348
856.194	22443
856.327	22215
856.461	22287
856.595	22162
856.729	22242
856.862	22352
856.996	22348
857.13	22337
857.263	22333
857.397	22322
857.53	22223
857.664	22306
857.797	22337
857.931	22405
858.064	22306
858.197	22421
858.331	22230
858.464	22261
858.597	22105
858.731	22234
858.864	22158
858.997	22272
859.13	22177
859.263	22238
859.396	22356
859.529	22306
859.662	22185
859.795	22265
859.928	22253
860.061	22424
860.194	22523
860.327	22276
860.46	22299
860.592	22443
860.725	22382
860.858	22363
860.99	22249
861.123	22169
861.256	22196
861.388	22211
861.521	22957
861.653	22188
861.786	22025
861.918	22097
862.05	22097
862.183	22238
862.315	22207
862.447	22226
862.58	22112
862.712	21975
862.844	22040
862.976	22116
863.108	22044
863.24	22409
863.372	21861
863.504	22002
863.636	21983
863.768	21915
863.9	21972
864.032	21915
864.164	21945
864.296	21911
864.428	22036
864.559	22010
864.691	22112
864.823	22002
864.954	21800
865.086	21945
865.217	21812
865.349	21778
865.48	21918
865.612	21819
865.743	21956
865.875	21831
866.006	21778
866.137	21873
866.269	21800
866.4	21956
866.531	21778
866.662	21675
866.793	21739
866.924	21804
867.055	21606
867.186	21884
867.317	21686
867.448	21637
867.579	21732
867.71	21606
867.841	21679
867.972	21739
868.103	21705
868.233	21865
868.364	21793
868.495	21926
868.625	21934
868.756	22017
868.886	21983
869.017	21918
869.147	22120
869.278	22097
869.408	22112
869.539	22040
869.669	22135
869.799	21968
869.929	22029
870.06	22139
870.19	22348
870.32	22276
870.45	22337
870.58	22508
870.71	22508
870.84	22523
870.97	22500
871.1	22371
871.23	22725
871.36	22615
871.489	22516
871.619	22516
871.749	22618
871.879	22691
872.008	22634
872.138	22561
872.267	22634
872.397	22523
872.526	22459
872.656	22516
872.785	22500
872.915	22569
873.044	22771
873.173	22618
873.303	22710
873.432	22797
873.561	22752
873.69	22557
873.819	22523
873.948	22828
874.077	22645
874.206	22565
874.335	22782
874.464	22748
874.593	23006
874.722	22904
874.851	22694
874.979	23018
875.108	22805
875.237	22934
875.365	22801
875.494	22729
875.623	22915
875.751	22782
875.88	22915
876.008	23033
876.136	23086
876.265	23360
876.393	23467
876.521	23265
876.65	23379
876.778	23242
876.906	23250
877.034	23189
877.162	23185
877.29	23132
877.418	23242
877.546	23220
877.674	23239
877.802	23060
877.93	23254
878.058	23189
878.185	23132
878.313	23136
878.441	23090
878.568	22965
878.696	23086
878.824	23151
878.951	23284
879.079	23349
879.206	23417
879.333	23414
879.461	23311
879.588	23368
879.715	23364
879.842	23539
879.97	23246
880.097	23018
880.224	22930
880.351	23075
880.478	22987
880.605	22980
880.732	23037
880.859	23337
880.986	22972
881.112	23086
881.239	22858
881.366	22793
881.493	22599
881.619	22588
881.746	22615
881.872	22565
881.999	22478
882.125	22348
882.252	22710
882.378	22565
882.505	22717
882.631	22402
882.757	22238
882.883	22367
883.01	22188
883.136	22166
883.262	22150
883.388	22181
883.514	22211
883.64	22226
883.766	22226
883.892	22192
884.018	22093
884.143	22086
884.269	22280
884.395	22048
884.52	21892
884.646	21934
884.772	21895
884.897	21713
885.023	21915
885.148	21930
885.274	21960
885.399	22002
885.524	21850
885.65	21873
885.775	21922
885.9	21816
886.025	21968
886.15	22063
886.275	21876
886.4	21686
886.525	21956
886.65	21762
886.775	21892
886.9	22036
887.025	22017
887.149	21789
887.274	21755
887.399	21660
887.523	21625
887.648	21682
887.773	21492
887.897	21732
888.021	21591
888.146	21641
888.27	21713
888.395	21679
888.519	21694
888.643	21629
888.767	21724
888.891	21576
889.015	21420
889.139	21424
889.263	21568
889.387	21629
889.511	21705
889.635	21583
889.759	21454
889.883	21329
890.006	21492
890.13	21500
890.254	21382
890.377	21378
890.501	21272
890.624	21157
890.748	21199
890.871	21089
890.995	20948
891.118	20941
891.241	21020
891.364	20979
891.488	21119
891.611	21028
891.734	20918
891.857	20952
891.98	20910
892.103	20975
892.226	21169
892.349	20952
892.471	20678
892.594	20887
892.717	20952
892.839	20807
892.962	21001
893.085	20868
893.207	20868
893.33	20727
893.452	20941
893.575	20834
893.697	20876
893.819	21036
893.941	21036
894.064	21036
894.186	20880
894.308	20773
894.43	20960
894.552	21154
894.674	20979
894.796	20811
894.918	20823
895.04	20853
895.161	20937
895.283	20963
895.405	20739
895.526	20857
895.648	20819
895.769	20849
895.891	20849
896.012	20948
896.134	20842
896.255	20921
896.376	20838
896.498	20861
896.619	20880
896.74	20895
896.861	21009
896.982	21157
897.103	21313
897.224	21188
897.345	21165
897.466	21005
897.587	20975
897.708	21127
897.828	21157
897.949	21001
898.07	20918
898.19	20982
898.311	21112
898.431	20971
898.552	21009
898.672	21165
898.792	21020
898.913	21093
899.033	21055
899.153	20941
899.273	20678
899.393	20883
899.513	20941
899.633	20864
899.753	20891
899.873	20731
899.993	20796
900.113	20834
900.232	20762
900.352	20826
900.472	20674
900.591	20552
900.711	20564
900.83	20629
900.95	20632
901.069	20648
901.189	20560
901.308	20267
901.427	20134
901.546	20172
901.665	20077
901.784	20157
901.904	19928
902.023	19947
902.141	19696
902.26	19647
902.379	19769
902.498	19677
902.617	19757
902.735	19765
902.854	19632
902.973	19643
903.091	19301
903.21	19358
903.328	19301
903.446	19308
903.565	19168
903.683	19168
903.801	18981
903.919	19198
904.038	19076
904.156	18943
904.274	19008
904.392	18973
904.51	18764
904.627	18913
904.745	18939
904.863	18928
904.981	18677
905.098	18418
905.216	18677
905.334	18509
905.451	18532
905.569	18399
905.686	18574
905.803	18521
905.921	18315
906.038	18547
906.155	18395
906.272	18174
906.389	18232
906.506	18129
906.623	18117
906.74	18022
906.857	18019
906.974	17866
907.091	18148
907.208	18178
907.324	18095
907.441	17939
907.557	17718
907.674	17798
907.79	17745
907.907	17840
908.023	17676
908.139	17764
908.256	17691
908.372	17684
908.488	17551
908.604	17642
908.72	17448
908.836	17657
908.952	17410
909.068	17440
909.184	17516
909.3	17501
909.415	17543
909.531	17528
909.647	17250
909.762	17212
909.878	17242
909.993	17216
910.108	17151
910.224	17208
910.339	17250
910.454	17018
910.57	16934
910.685	16908
910.8	17155
910.915	17185
911.03	16972
911.145	16843
911.259	16797
911.374	16908
911.489	16797
911.604	16729
911.718	16569
911.833	16607
911.947	16451
912.062	16360
912.176	16538
912.291	16481
912.405	16527
912.519	16664
912.633	16645
912.748	16596
912.862	16542
912.976	16379
913.09	16234
913.204	16344
913.318	16295
913.431	16436
913.545	16447
913.659	16428
913.772	16261
913.886	16169
914	16139
914.113	16154
914.226	16268
914.34	16226
914.453	16063
914.566	16181
914.68	15994
914.793	16017
914.906	15804
915.019	15675
915.132	15713
915.245	15641
915.358	15698
915.47	15774
915.583	15728
915.696	15812
915.809	15816
915.921	15861
916.034	15648
916.146	15557
916.259	15576
916.371	15747
916.483	15584
916.595	15572
916.708	15572
916.82	15450
916.932	15504
917.044	15473
917.156	15424
917.268	15374
917.38	15336
917.491	15264
917.603	15355
917.715	15386
917.826	15431
917.938	15313
918.049	15157
918.161	15294
918.272	15378
918.384	15382
918.495	15275
918.606	15123
918.717	15066
918.828	15077
918.939	15195
919.05	14929
919.161	14998
919.272	14864
919.383	14902
919.494	15066
919.604	15306
919.715	14994
919.826	14994
919.936	14998
920.047	15100
920.157	15104
920.267	15268
920.378	15070
920.488	15020
920.598	15230
920.708	15329
920.818	15135
920.928	15169
921.038	15298
921.148	15363
921.258	14956
921.368	14864
921.477	14826
921.587	14785
921.697	14533
921.806	14743
921.916	14674
922.025	14408
922.134	14450
922.244	14423
922.353	14427
922.462	14389
922.571	14271
922.68	14005
922.789	13997
922.898	14153
923.007	14081
923.116	14016
923.224	14084
923.333	13997
923.442	13917
923.55	13852
923.659	13906
923.767	13837
923.876	13860
923.984	13833
924.092	13662
924.201	13727
924.309	13761
924.417	13689
924.525	13738
924.633	13746
924.741	14636
924.849	13559
924.956	13575
925.064	13533
925.172	13403
925.279	13514
925.387	13464
925.494	13354
925.602	13525
925.709	13502
925.816	13343
925.924	13320
926.031	13468
926.138	13419
926.245	13426
926.352	13263
926.459	13388
926.566	13487
926.673	13358
926.779	13114
926.886	13095
926.993	12962
927.099	12943
927.206	12901
927.312	12852
927.419	13034
927.525	12932
927.631	13019
927.737	12932
927.843	12722
927.95	12684
928.056	12791
928.162	12844
928.267	12924
928.373	13445
928.479	12852
928.585	12658
928.69	12856
928.796	12700
928.901	12616
929.007	12471
929.112	12654
929.218	12582
929.323	12525
929.428	12490
929.533	12616
929.638	12426
929.743	12498
929.848	12433
929.953	12483
930.058	12334
930.163	12243
930.267	12254
930.372	12357
930.477	12152
930.581	12410
930.685	12190
930.79	12007
930.894	12133
930.998	11939
931.103	12167
931.207	11764
931.311	11726
931.415	11657
931.519	11387
931.623	11459
