Data from test_V78500241_3381.txt Node
Date: Fri Mar 25 16:05:13 CST 2022
User: usil
Spectrometer: V785-0024
Trigger mode: 0
Integration Time (sec): 4.000000E-1
Scans to average: 1
Nonlinearity correction enabled: false
Boxcar width: 0
Storing dark spectrum: false
XAxis mode: Wavelengths
Number of Pixels in Spectrum: 1024
>>>>>Begin Spectral Data<<<<<
801.071	28508
801.214	28542
801.356	28242
801.499	28116
801.641	28059
801.783	28105
801.926	28105
802.068	28070
802.211	27956
802.353	28059
802.496	27816
802.638	27743
802.78	27770
802.923	27667
803.065	27675
803.208	27732
803.35	27762
803.492	27759
803.635	27918
803.777	27854
803.919	27930
804.061	28363
804.204	28021
804.346	27953
804.488	27937
804.63	27930
804.773	27835
804.915	28006
805.057	28196
805.199	28036
805.341	28219
805.483	28162
805.626	28097
805.768	27964
805.91	28219
806.052	28158
806.194	28010
806.336	28306
806.478	28158
806.62	28139
806.762	28306
806.904	28375
807.046	28725
807.188	28527
807.33	28637
807.472	28573
807.614	28531
807.756	28599
807.898	28504
808.04	28352
808.182	28417
808.324	28382
808.465	28580
808.607	28675
808.749	28812
808.891	28911
809.033	29155
809.174	28896
809.316	28736
809.458	28805
809.6	28828
809.741	28957
809.883	29003
810.025	29064
810.166	29067
810.308	29052
810.45	29181
810.591	28972
810.733	28888
810.875	28885
811.016	28740
811.158	28698
811.299	28888
811.441	28946
811.582	28991
811.724	28843
811.865	28869
812.007	28694
812.148	28805
812.29	28919
812.431	29014
812.573	29200
812.714	29269
812.855	29315
812.997	29395
813.138	29566
813.279	29387
813.421	29402
813.562	29212
813.703	29056
813.845	29029
813.986	28721
814.127	28634
814.268	28557
814.41	28474
814.551	28489
814.692	28550
814.833	28398
814.974	28500
815.115	28428
815.256	28379
815.397	28413
815.539	28348
815.68	28401
815.821	28253
815.962	28421
816.103	28325
816.244	28360
816.385	28158
816.526	28147
816.666	27899
816.807	27934
816.948	27827
817.089	27994
817.23	27831
817.371	27865
817.512	27781
817.653	27671
817.793	27781
817.934	27857
818.075	27937
818.216	27819
818.356	27934
818.497	27705
818.638	27549
818.778	27644
818.919	27542
819.06	27732
819.2	27705
819.341	27713
819.481	27831
819.622	28059
819.762	28257
819.903	28021
820.043	28044
820.184	27918
820.324	27972
820.465	28101
820.605	27994
820.746	27914
820.886	27998
821.026	28044
821.167	27899
821.307	27979
821.447	27945
821.588	27789
821.728	27629
821.868	27393
822.008	27237
822.149	27367
822.289	27252
822.429	27116
822.569	26994
822.709	26910
822.849	26872
822.99	26925
823.13	26864
823.27	26697
823.41	26606
823.55	26583
823.69	26765
823.83	26667
823.97	26667
824.11	26434
824.25	26427
824.389	26404
824.529	26598
824.669	26389
824.809	26579
824.949	26495
825.089	26670
825.228	26453
825.368	26389
825.508	26328
825.648	26374
825.787	26438
825.927	26336
826.067	26256
826.206	26408
826.346	26522
826.485	26450
826.625	26347
826.765	26480
826.904	26507
827.044	25989
827.183	26172
827.323	26157
827.462	26138
827.601	26153
827.741	26153
827.88	26039
828.02	25982
828.159	26054
828.298	26039
828.437	26126
828.577	26054
828.716	26180
828.855	25978
828.994	25765
829.134	25715
829.273	25685
829.412	25719
829.551	25704
829.69	25677
829.829	25670
829.968	25830
830.107	25875
830.246	25765
830.385	25727
830.524	25578
830.663	25449
830.802	25575
830.941	25381
831.08	25407
831.219	25472
831.357	25460
831.496	25635
831.635	25388
831.774	25145
831.913	25175
832.051	25206
832.19	25183
832.329	25228
832.467	25053
832.606	24989
832.744	24954
832.883	24985
833.022	24852
833.16	24992
833.299	24992
833.437	24962
833.576	25240
833.714	25145
833.852	25069
833.991	25289
834.129	25247
834.267	25164
834.406	25148
834.544	25202
834.682	25061
834.821	25050
834.959	25232
835.097	25129
835.235	25244
835.373	25095
835.511	25027
835.65	25019
835.788	24977
835.926	24859
836.064	24757
836.202	24738
836.34	25008
836.478	25103
836.615	24996
836.753	24973
836.891	24947
837.029	24882
837.167	24897
837.305	24768
837.443	24779
837.58	24829
837.718	24749
837.856	24814
837.993	24760
838.131	24741
838.269	24570
838.406	24673
838.544	24635
838.681	24517
838.819	24369
838.956	24254
839.094	24205
839.231	24369
839.369	24494
839.506	24532
839.643	24467
839.781	24159
839.918	24205
840.055	24315
840.193	24194
840.33	24041
840.467	24220
840.604	24247
840.742	24388
840.879	23988
841.016	24114
841.153	23965
841.29	24159
841.427	24087
841.564	24247
841.701	24247
841.838	24045
841.975	24041
842.112	24003
842.249	23916
842.385	23908
842.522	24152
842.659	24034
842.796	23889
842.933	23798
843.069	23969
843.206	23840
843.343	23920
843.479	23893
843.616	23866
843.752	23745
843.889	23699
844.025	23752
844.162	23680
844.298	23836
844.435	23630
844.571	23661
844.708	23684
844.844	23767
844.98	23840
845.117	23748
845.253	23554
845.389	23577
845.525	23581
845.661	23581
845.798	23455
845.934	23406
846.07	23368
846.206	23524
846.342	23467
846.478	23391
846.614	23166
846.75	23029
846.886	23204
847.022	23212
847.158	23117
847.294	23128
847.429	23102
847.565	23143
847.701	23379
847.837	22866
847.972	22835
848.108	22839
848.244	22934
848.379	22729
848.515	22664
848.65	22733
848.786	22550
848.921	22721
849.057	22790
849.192	22885
849.328	22679
849.463	22687
849.598	22565
849.734	22664
849.869	22580
850.004	22451
850.14	22615
850.275	22557
850.41	22405
850.545	22462
850.68	22417
850.815	22409
850.95	22592
851.085	22698
851.22	22603
851.355	22493
851.49	22550
851.625	22466
851.76	22554
851.895	22455
852.03	22344
852.165	22413
852.299	22577
852.434	22550
852.569	22436
852.703	22508
852.838	22660
852.973	22592
853.107	22607
853.242	22417
853.376	22337
853.511	22219
853.645	22166
853.78	22443
853.914	22432
854.048	22352
854.183	22310
854.317	22436
854.451	22443
854.585	22379
854.72	22261
854.854	22375
854.988	22276
855.122	22348
855.256	22196
855.39	22257
855.524	22386
855.658	22375
855.792	22291
855.926	22329
856.06	22352
856.194	22405
856.327	22242
856.461	22272
856.595	22242
856.729	22246
856.862	22409
856.996	22329
857.13	22249
857.263	22329
857.397	22367
857.53	22139
857.664	22344
857.797	22310
857.931	22459
858.064	22333
858.197	22535
858.331	22268
858.464	22253
858.597	22162
858.731	22257
858.864	22341
858.997	22200
859.13	22306
859.263	22367
859.396	22398
859.529	22314
859.662	22253
859.795	22207
859.928	22417
860.061	22409
860.194	22455
860.327	22447
860.46	22314
860.592	22390
860.725	22451
860.858	22436
860.99	22223
861.123	22299
861.256	22261
861.388	22291
861.521	22980
861.653	22181
861.786	22078
861.918	22109
862.05	22238
862.183	22112
862.315	22356
862.447	22295
862.58	22226
862.712	21991
862.844	22021
862.976	22162
863.108	22135
863.24	22371
863.372	21979
863.504	21953
863.636	22070
863.768	22090
863.9	22067
864.032	21884
864.164	22124
864.296	22059
864.428	22188
864.559	22044
864.691	22055
864.823	21911
864.954	21956
865.086	21994
865.217	21827
865.349	21804
865.48	21850
865.612	21991
865.743	21838
865.875	21934
866.006	21918
866.137	21846
866.269	21922
866.4	21781
866.531	21934
866.662	21804
866.793	21854
866.924	21785
867.055	21720
867.186	21747
867.317	21800
867.448	21720
867.579	21785
867.71	21778
867.841	21701
867.972	21808
868.103	21705
868.233	21823
868.364	21880
868.495	21850
868.625	22051
868.756	22101
868.886	22093
869.017	22124
869.147	22074
869.278	22295
869.408	22192
869.539	22051
869.669	22070
869.799	22040
869.929	22109
870.06	22143
870.19	22424
870.32	22303
870.45	22398
870.58	22436
870.71	22485
870.84	22504
870.97	22443
871.1	22417
871.23	22637
871.36	22694
871.489	22588
871.619	22668
871.749	22634
871.879	22664
872.008	22786
872.138	22679
872.267	22759
872.397	22538
872.526	22584
872.656	22424
872.785	22535
872.915	22675
873.044	22736
873.173	22824
873.303	22809
873.432	22767
873.561	22793
873.69	22725
873.819	22725
873.948	22675
874.077	22767
874.206	22554
874.335	22641
874.464	22725
874.593	22862
874.722	22828
874.851	22999
874.979	22942
875.108	22949
875.237	22904
875.365	22809
875.494	22934
875.623	22965
875.751	22733
875.88	22923
876.008	22953
876.136	23098
876.265	23318
876.393	23509
876.521	23406
876.65	23417
876.778	23288
876.906	23280
877.034	23090
877.162	23406
877.29	23102
877.418	23223
877.546	23239
877.674	23246
877.802	23303
877.93	23330
878.058	23151
878.185	23102
878.313	23147
878.441	23185
878.568	23075
878.696	23166
878.824	23277
878.951	23395
879.079	23349
879.206	23455
879.333	23292
879.461	23277
879.588	23410
879.715	23372
879.842	23467
879.97	23318
880.097	23090
880.224	22991
880.351	23098
880.478	23022
880.605	23090
880.732	23018
880.859	23299
880.986	23029
881.112	23044
881.239	22896
881.366	22805
881.493	22698
881.619	22599
881.746	22656
881.872	22596
881.999	22443
882.125	22561
882.252	22615
882.378	22660
882.505	22767
882.631	22436
882.757	22344
882.883	22398
883.01	22272
883.136	22162
883.262	22082
883.388	22154
883.514	22272
883.64	22272
883.766	22261
883.892	22017
884.018	22158
884.143	22303
884.269	22219
884.395	22082
884.52	21899
884.646	21911
884.772	21823
884.897	22002
885.023	21895
885.148	21960
885.274	22200
885.399	22150
885.524	21899
885.65	21926
885.775	21876
885.9	21956
886.025	22078
886.15	22036
886.275	21991
886.4	21888
886.525	21907
886.65	21876
886.775	21857
886.9	22093
887.025	22090
887.149	21956
887.274	21739
887.399	21762
887.523	21755
887.648	21671
887.773	21660
887.897	21747
888.021	21759
888.146	21671
888.27	21797
888.395	21743
888.519	21705
888.643	21610
888.767	21644
888.891	21526
889.015	21477
889.139	21534
889.263	21443
889.387	21595
889.511	21838
889.635	21622
889.759	21416
889.883	21393
890.006	21416
890.13	21587
890.254	21363
890.377	21405
890.501	21249
890.624	21313
890.748	21306
890.871	21264
890.995	21112
891.118	21062
891.241	21123
891.364	20990
891.488	21150
891.611	21150
891.734	21062
891.857	21173
891.98	21176
892.103	21005
892.226	20963
892.349	21039
892.471	20918
892.594	20937
892.717	20990
892.839	20975
892.962	20956
893.085	21020
893.207	20956
893.33	20796
893.452	20880
893.575	21066
893.697	20895
893.819	21024
893.941	21135
894.064	21169
894.186	20842
894.308	20948
894.43	21024
894.552	21001
894.674	20979
894.796	20925
894.918	20883
895.04	20925
895.161	21001
895.283	20948
895.405	20807
895.526	20891
895.648	20990
895.769	20979
895.891	20902
896.012	20956
896.134	21017
896.255	20994
896.376	20864
896.498	20967
896.619	20929
896.74	20880
896.861	20830
896.982	21112
897.103	21302
897.224	21203
897.345	21077
897.466	20929
897.587	21195
897.708	21283
897.828	21169
897.949	21070
898.07	20868
898.19	20960
898.311	21096
898.431	21135
898.552	20971
898.672	21154
898.792	21260
898.913	21199
899.033	20956
899.153	20982
899.273	20636
899.393	20887
899.513	21017
899.633	20971
899.753	20944
899.873	20929
899.993	20849
900.113	20895
900.232	20796
900.352	20701
900.472	20716
900.591	20613
900.711	20575
900.83	20530
900.95	20708
901.069	20598
901.189	20609
901.308	20332
901.427	20161
901.546	20206
901.665	20267
901.784	20259
901.904	20149
902.023	19936
902.141	19757
902.26	19677
902.379	19814
902.498	19613
902.617	19639
902.735	19731
902.854	19620
902.973	19582
903.091	19415
903.21	19263
903.328	19396
903.446	19316
903.565	19206
903.683	19160
903.801	18985
903.919	19129
904.038	19168
904.156	18932
904.274	19008
904.392	18958
904.51	18970
904.627	18924
904.745	18878
904.863	18977
904.981	18738
905.098	18536
905.216	18597
905.334	18559
905.451	18669
905.569	18566
905.686	18517
905.803	18566
905.921	18433
906.038	18483
906.155	18441
906.272	18281
906.389	18243
906.506	18224
906.623	18079
906.74	17965
906.857	18026
906.974	17969
907.091	18152
907.208	18235
907.324	18022
907.441	17946
907.557	17832
907.674	17775
907.79	17809
907.907	17695
908.023	17786
908.139	17813
908.256	17817
908.372	17748
908.488	17756
908.604	17668
908.72	17421
908.836	17611
908.952	17562
909.068	17646
909.184	17676
909.3	17535
909.415	17589
909.531	17532
909.647	17391
909.762	17242
909.878	17170
909.993	17246
910.108	17208
910.224	17220
910.339	17136
910.454	17132
910.57	17056
910.685	16927
910.8	17220
910.915	17121
911.03	17151
911.145	16900
911.259	16774
911.374	16850
911.489	16736
911.604	16729
911.718	16542
911.833	16622
911.947	16493
912.062	16417
912.176	16637
912.291	16497
912.405	16573
912.519	16763
912.633	16691
912.748	16626
912.862	16565
912.976	16459
913.09	16219
913.204	16363
913.318	16394
913.431	16527
913.545	16432
913.659	16512
913.772	16249
913.886	16223
914	16120
914.113	16341
914.226	16272
914.34	16234
914.453	16006
914.566	16196
914.68	15975
914.793	16010
914.906	15812
915.019	15736
915.132	15648
915.245	15713
915.358	15671
915.47	15717
915.583	15743
915.696	15717
915.809	15842
915.921	15797
916.034	15686
916.146	15629
916.259	15572
916.371	15644
916.483	15762
916.595	15542
916.708	15576
916.82	15538
916.932	15492
917.044	15511
917.156	15473
917.268	15382
917.38	15416
917.491	15424
917.603	15363
917.715	15500
917.826	15454
917.938	15340
918.049	15161
918.161	15325
918.272	15496
918.384	15374
918.495	15302
918.606	15165
918.717	15142
918.828	15237
918.939	15077
919.05	15047
919.161	15055
919.272	14948
919.383	14941
919.494	15127
919.604	15336
919.715	15032
919.826	15017
919.936	15047
920.047	15127
920.157	15051
920.267	15340
920.378	15116
920.488	14979
920.598	15211
920.708	15329
920.818	15112
920.928	15184
921.038	15443
921.148	15348
921.258	14952
921.368	14918
921.477	14788
921.587	14769
921.697	14545
921.806	14773
921.916	14587
922.025	14556
922.134	14385
922.244	14434
922.353	14465
922.462	14343
922.571	14290
922.68	14149
922.789	14016
922.898	14077
923.007	13970
923.116	14100
923.224	13974
923.333	14054
923.442	13978
923.55	13818
923.659	13879
923.767	13993
923.876	13826
923.984	13925
924.092	13769
924.201	13830
924.309	13830
924.417	13761
924.525	13708
924.633	13704
924.741	14606
924.849	13563
924.956	13712
925.064	13506
925.172	13468
925.279	13426
925.387	13487
925.494	13460
925.602	13632
925.709	13472
925.816	13499
925.924	13438
926.031	13468
926.138	13381
926.245	13384
926.352	13289
926.459	13464
926.566	13464
926.673	13343
926.779	13152
926.886	13202
926.993	13099
927.099	13088
927.206	13019
927.312	12913
927.419	13012
927.525	13004
927.631	13050
927.737	12863
927.843	12806
927.95	12821
928.056	12779
928.162	12833
928.267	12875
928.373	13308
928.479	12897
928.585	12741
928.69	12783
928.796	12791
928.901	12722
929.007	12623
929.112	12696
929.218	12616
929.323	12601
929.428	12559
929.533	12597
929.638	12483
929.743	12475
929.848	12498
929.953	12517
930.058	12391
930.163	12155
930.267	12243
930.372	12361
930.477	12152
930.581	12384
930.685	12262
930.79	11996
930.894	12098
930.998	12076
931.103	12194
931.207	11817
931.311	11771
931.415	11653
931.519	11474
931.623	11402
