Data from test_V78500241_3079.txt Node
Date: Fri Mar 25 16:03:07 CST 2022
User: usil
Spectrometer: V785-0024
Trigger mode: 0
Integration Time (sec): 4.000000E-1
Scans to average: 1
Nonlinearity correction enabled: false
Boxcar width: 0
Storing dark spectrum: false
XAxis mode: Wavelengths
Number of Pixels in Spectrum: 1024
>>>>>Begin Spectral Data<<<<<
801.071	28729
801.214	28694
801.356	28516
801.499	28382
801.641	28318
801.783	28314
801.926	28363
802.068	28413
802.211	28310
802.353	28280
802.496	28295
802.638	28032
802.78	27937
802.923	27979
803.065	27922
803.208	28044
803.35	28040
803.492	28124
803.635	28299
803.777	28105
803.919	28272
804.061	28664
804.204	28287
804.346	28242
804.488	28196
804.63	28337
804.773	28207
804.915	28405
805.057	28527
805.199	28352
805.341	28436
805.483	28459
805.626	28325
805.768	28356
805.91	28500
806.052	28519
806.194	28363
806.336	28683
806.478	28459
806.62	28519
806.762	28702
806.904	28782
807.046	28972
807.188	28892
807.33	28953
807.472	29067
807.614	28877
807.756	28885
807.898	28706
808.04	28641
808.182	28733
808.324	28759
808.465	29033
808.607	28972
808.749	29166
808.891	29337
809.033	29258
809.174	29277
809.316	29022
809.458	29178
809.6	29121
809.741	29239
809.883	29303
810.025	29520
810.166	29528
810.308	29471
810.45	29353
810.591	29299
810.733	29155
810.875	29170
811.016	29155
811.158	29200
811.299	29277
811.441	29395
811.582	29417
811.724	29227
811.865	29223
812.007	29204
812.148	29356
812.29	29212
812.431	29410
812.573	29528
812.714	29627
812.855	29859
812.997	29741
813.138	29840
813.279	29779
813.421	29939
813.562	29767
813.703	29433
813.845	29364
813.986	29159
814.127	28866
814.268	28862
814.41	28987
814.551	28778
814.692	28942
814.833	28968
814.974	28953
815.115	29018
815.256	28786
815.397	28679
815.539	28850
815.68	28577
815.821	28615
815.962	28812
816.103	28683
816.244	28527
816.385	28702
816.526	28550
816.666	28413
816.807	28219
816.948	28333
817.089	28226
817.23	28314
817.371	28261
817.512	28166
817.653	28150
817.793	28162
817.934	28131
818.075	28363
818.216	28295
818.356	28314
818.497	28128
818.638	27941
818.778	28029
818.919	28036
819.06	28059
819.2	28253
819.341	28303
819.481	28131
819.622	28398
819.762	28512
819.903	28367
820.043	28386
820.184	28443
820.324	28356
820.465	28497
820.605	28379
820.746	28325
820.886	28097
821.026	28291
821.167	28219
821.307	28356
821.447	28242
821.588	28169
821.728	27991
821.868	27972
822.008	27781
822.149	27869
822.289	27770
822.429	27462
822.569	27374
822.709	27348
822.849	27252
822.99	27256
823.13	27112
823.27	27123
823.41	26982
823.55	26952
823.69	26998
823.83	27055
823.97	27112
824.11	26948
824.25	26781
824.389	27058
824.529	26944
824.669	26891
824.809	27043
824.949	26933
825.089	27055
825.228	26937
825.368	26693
825.508	26773
825.648	26686
825.787	26872
825.927	26842
826.067	26880
826.206	26823
826.346	26804
826.485	26830
826.625	26834
826.765	26899
826.904	26830
827.044	26552
827.183	26552
827.323	26549
827.462	26644
827.601	26556
827.741	26465
827.88	26469
828.02	26347
828.159	26442
828.298	26511
828.437	26564
828.577	26431
828.716	26648
828.855	26408
828.994	26252
829.134	26161
829.273	26122
829.412	26145
829.551	26168
829.69	26263
829.829	26199
829.968	26248
830.107	26328
830.246	26081
830.385	26077
830.524	26206
830.663	26084
830.802	25997
830.941	25700
831.08	25662
831.219	25845
831.357	25928
831.496	25959
831.635	25719
831.774	25750
831.913	25605
832.051	25594
832.19	25597
832.329	25666
832.467	25571
832.606	25426
832.744	25430
832.883	25476
833.022	25491
833.16	25415
833.299	25472
833.437	25392
833.576	25597
833.714	25514
833.852	25609
833.991	25548
834.129	25552
834.267	25575
834.406	25308
834.544	25624
834.682	25460
834.821	25445
834.959	25628
835.097	25521
835.235	25605
835.373	25491
835.511	25540
835.65	25464
835.788	25476
835.926	25221
836.064	25217
836.202	25301
836.34	25255
836.478	25426
836.615	25343
836.753	25324
836.891	25411
837.029	25346
837.167	25270
837.305	25274
837.443	25213
837.58	25148
837.718	25213
837.856	25209
837.993	25065
838.131	25095
838.269	25046
838.406	25076
838.544	24913
838.681	24916
838.819	24787
838.956	24654
839.094	24696
839.231	24673
839.369	24852
839.506	25012
839.643	24840
839.781	24597
839.918	24566
840.055	24593
840.193	24612
840.33	24494
840.467	24544
840.604	24608
840.742	24768
840.879	24391
841.016	24494
841.153	24433
841.29	24669
841.427	24582
841.564	24604
841.701	24589
841.838	24403
841.975	24456
842.112	24445
842.249	24403
842.385	24258
842.522	24460
842.659	24330
842.796	24281
842.933	24178
843.069	24289
843.206	24182
843.343	24361
843.479	24254
843.616	24289
843.752	24129
843.889	24182
844.025	24319
844.162	24007
844.298	24068
844.435	23931
844.571	24064
844.708	24110
844.844	24220
844.98	24338
845.117	24266
845.253	24022
845.389	23954
845.525	24007
845.661	23965
845.798	23691
845.934	23805
846.07	23832
846.206	23813
846.342	23901
846.478	23798
846.614	23619
846.75	23337
846.886	23471
847.022	23562
847.158	23676
847.294	23509
847.429	23414
847.565	23490
847.701	23920
847.837	23307
847.972	23212
848.108	23315
848.244	23254
848.379	23052
848.515	23109
848.65	23227
848.786	23280
848.921	23246
849.057	23128
849.192	23223
849.328	23071
849.463	23155
849.598	23056
849.734	23037
849.869	22957
850.004	22824
850.14	22805
850.275	22816
850.41	22774
850.545	22831
850.68	22774
850.815	22850
850.95	22889
851.085	23018
851.22	23037
851.355	22824
851.49	22923
851.625	22782
851.76	22927
851.895	22805
852.03	22759
852.165	22786
852.299	22949
852.434	22809
852.569	22881
852.703	22904
852.838	23083
852.973	23044
853.107	23067
853.242	22873
853.376	22607
853.511	22706
853.645	22717
853.78	22774
853.914	22725
854.048	22733
854.183	22797
854.317	22599
854.451	22885
854.585	22672
854.72	22694
854.854	22767
854.988	22645
855.122	22649
855.256	22675
855.39	22634
855.524	22744
855.658	22797
855.792	22649
855.926	22763
856.06	22782
856.194	22763
856.327	22645
856.461	22649
856.595	22645
856.729	22721
856.862	22805
856.996	22771
857.13	22858
857.263	22797
857.397	22717
857.53	22607
857.664	22694
857.797	22679
857.931	22843
858.064	22729
858.197	22805
858.331	22580
858.464	22641
858.597	22512
858.731	22470
858.864	22588
858.997	22694
859.13	22607
859.263	22744
859.396	22713
859.529	22729
859.662	22637
859.795	22550
859.928	22672
860.061	22698
860.194	22946
860.327	22721
860.46	22763
860.592	22812
860.725	22774
860.858	22828
860.99	22630
861.123	22603
861.256	22550
861.388	22710
861.521	23433
861.653	22596
861.786	22478
861.918	22470
862.05	22489
862.183	22550
862.315	22554
862.447	22755
862.58	22527
862.712	22394
862.844	22462
862.976	22459
863.108	22527
863.24	22698
863.372	22409
863.504	22424
863.636	22432
863.768	22466
863.9	22398
864.032	22291
864.164	22257
864.296	22337
864.428	22382
864.559	22352
864.691	22531
864.823	22306
864.954	22462
865.086	22348
865.217	22265
865.349	22234
865.48	22196
865.612	22207
865.743	22375
865.875	22284
866.006	22333
866.137	22310
866.269	22211
866.4	22276
866.531	22280
866.662	22272
866.793	22173
866.924	22211
867.055	22101
867.186	22268
867.317	22169
867.448	22196
867.579	22097
867.71	22097
867.841	22169
867.972	22109
868.103	22097
868.233	22128
868.364	22154
868.495	22341
868.625	22413
868.756	22478
868.886	22337
869.017	22432
869.147	22500
869.278	22584
869.408	22424
869.539	22352
869.669	22607
869.799	22535
869.929	22569
870.06	22470
870.19	22824
870.32	22725
870.45	22839
870.58	22805
870.71	22889
870.84	22862
870.97	22885
871.1	22729
871.23	22980
871.36	23003
871.489	22904
871.619	23003
871.749	22953
871.879	22980
872.008	23124
872.138	23003
872.267	22984
872.397	22957
872.526	22858
872.656	22885
872.785	22927
872.915	23185
873.044	23113
873.173	23006
873.303	23162
873.432	23098
873.561	23235
873.69	23090
873.819	23075
873.948	23197
874.077	23056
874.206	23044
874.335	23033
874.464	23117
874.593	23212
874.722	23239
874.851	23311
874.979	23280
875.108	23292
875.237	23353
875.365	23166
875.494	23220
875.623	23368
875.751	23246
875.88	23345
876.008	23414
876.136	23497
876.265	23699
876.393	23745
876.521	23840
876.65	23695
876.778	23528
876.906	23577
877.034	23710
877.162	23699
877.29	23535
877.418	23608
877.546	23619
877.674	23600
877.802	23509
877.93	23596
878.058	23539
878.185	23425
878.313	23558
878.441	23581
878.568	23433
878.696	23562
878.824	23638
878.951	23741
879.079	23874
879.206	24007
879.333	23752
879.461	23524
879.588	23657
879.715	23630
879.842	23920
879.97	23710
880.097	23520
880.224	23436
880.351	23368
880.478	23436
880.605	23444
880.732	23402
880.859	23566
880.986	23391
881.112	23524
881.239	23204
881.366	23185
881.493	23006
881.619	23010
881.746	22976
881.872	22942
881.999	23018
882.125	22828
882.252	23136
882.378	22972
882.505	23071
882.631	22831
882.757	22687
882.883	22790
883.01	22656
883.136	22649
883.262	22622
883.388	22569
883.514	22694
883.64	22740
883.766	22523
883.892	22413
884.018	22519
884.143	22698
884.269	22717
884.395	22303
884.52	22181
884.646	22291
884.772	22109
884.897	22196
885.023	22219
885.148	22375
885.274	22405
885.399	22436
885.524	22249
885.65	22348
885.775	22306
885.9	22367
886.025	22257
886.15	22405
886.275	22249
886.4	22215
886.525	22268
886.65	22223
886.775	22158
886.9	22409
887.025	22611
887.149	22223
887.274	21972
887.399	21972
887.523	22070
887.648	22025
887.773	21945
887.897	22029
888.021	21998
888.146	22105
888.27	22284
888.395	22051
888.519	22032
888.643	22044
888.767	22059
888.891	22010
889.015	21899
889.139	21880
889.263	21793
889.387	21899
889.511	22143
889.635	22029
889.759	21842
889.883	21846
890.006	21869
890.13	21892
890.254	21747
890.377	21842
890.501	21488
890.624	21523
890.748	21622
890.871	21504
890.995	21462
891.118	21477
891.241	21317
891.364	21367
891.488	21515
891.611	21405
891.734	21450
891.857	21329
891.98	21416
892.103	21447
892.226	21283
892.349	21287
892.471	21260
892.594	21291
892.717	21389
892.839	21252
892.962	21252
893.085	21393
893.207	21336
893.33	21184
893.452	21207
893.575	21397
893.697	21176
893.819	21378
893.941	21496
894.064	21386
894.186	21184
894.308	21283
894.43	21344
894.552	21435
894.674	21214
894.796	21131
894.918	21165
895.04	21233
895.161	21233
895.283	21249
895.405	21230
895.526	21325
895.648	21245
895.769	21169
895.891	21260
896.012	21222
896.134	21264
896.255	21272
896.376	21245
896.498	21207
896.619	21287
896.74	21249
896.861	21294
896.982	21542
897.103	21629
897.224	21462
897.345	21458
897.466	21340
897.587	21340
897.708	21561
897.828	21386
897.949	21397
898.07	21233
898.19	21389
898.311	21492
898.431	21348
898.552	21389
898.672	21447
898.792	21325
898.913	21454
899.033	21214
899.153	21302
899.273	21096
899.393	21093
899.513	21161
899.633	21138
899.753	21264
899.873	21036
899.993	21116
900.113	21096
900.232	21032
900.352	21013
900.472	20815
900.591	20823
900.711	20944
900.83	20952
900.95	20929
901.069	20975
901.189	20773
901.308	20640
901.427	20465
901.546	20583
901.665	20583
901.784	20473
901.904	20450
902.023	20233
902.141	20001
902.26	19989
902.379	20039
902.498	19917
902.617	19887
902.735	20103
902.854	19993
902.973	19928
903.091	19689
903.21	19689
903.328	19601
903.446	19609
903.565	19422
903.683	19559
903.801	19217
903.919	19457
904.038	19369
904.156	19232
904.274	19331
904.392	19137
904.51	19175
904.627	19236
904.745	19213
904.863	19133
904.981	19099
905.098	18859
905.216	18741
905.334	18886
905.451	18920
905.569	18814
905.686	18894
905.803	18798
905.921	18608
906.038	18787
906.155	18700
906.272	18631
906.389	18658
906.506	18441
906.623	18445
906.74	18369
906.857	18296
906.974	18254
907.091	18471
907.208	18593
907.324	18414
907.441	18232
907.557	18098
907.674	18197
907.79	18110
907.907	18091
908.023	18098
908.139	18144
908.256	18030
908.372	17999
908.488	17973
908.604	17775
908.72	17783
908.836	17878
908.952	17847
909.068	17866
909.184	17885
909.3	17745
909.415	17832
909.531	17824
909.647	17642
909.762	17486
909.878	17440
909.993	17516
910.108	17414
910.224	17478
910.339	17444
910.454	17376
910.57	17330
910.685	17303
910.8	17596
910.915	17520
911.03	17235
911.145	17235
911.259	17140
911.374	17105
911.489	16991
911.604	16923
911.718	16843
911.833	16862
911.947	16752
912.062	16637
912.176	16915
912.291	16965
912.405	16843
912.519	17025
912.633	17052
912.748	16885
912.862	16801
912.976	16599
913.09	16538
913.204	16561
913.318	16558
913.431	16782
913.545	16668
913.659	16694
913.772	16607
913.886	16508
914	16390
914.113	16508
914.226	16535
914.34	16436
914.453	16375
914.566	16493
914.68	16409
914.793	16371
914.906	16086
915.019	16040
915.132	15964
915.245	16051
915.358	15873
915.47	15983
915.583	16051
915.696	16048
915.809	16166
915.921	16154
916.034	15865
916.146	15819
916.259	15918
916.371	16097
916.483	15930
916.595	15831
916.708	15793
916.82	15755
916.932	15785
917.044	15846
917.156	15739
917.268	15633
917.38	15663
917.491	15675
917.603	15538
917.715	15675
917.826	15641
917.938	15382
918.049	15439
918.161	15622
918.272	15701
918.384	15690
918.495	15614
918.606	15317
918.717	15382
918.828	15416
918.939	15447
919.05	15252
919.161	15370
919.272	15188
919.383	15184
919.494	15344
919.604	15568
919.715	15359
919.826	15165
919.936	15245
920.047	15405
920.157	15359
920.267	15401
920.378	15332
920.488	15245
920.598	15412
920.708	15557
920.818	15629
920.928	15412
921.038	15561
921.148	15545
921.258	15226
921.368	15062
921.477	15070
921.587	15024
921.697	14967
921.806	14956
921.916	14937
922.025	14792
922.134	14743
922.244	14617
922.353	14640
922.462	14530
922.571	14480
922.68	14332
922.789	14385
922.898	14393
923.007	14248
923.116	14400
923.224	14275
923.333	14221
923.442	14191
923.55	14027
923.659	14111
923.767	14119
923.876	14069
923.984	14107
924.092	14031
924.201	14065
924.309	14069
924.417	14035
924.525	13955
924.633	13993
924.741	14686
924.849	13746
924.956	13856
925.064	13727
925.172	13719
925.279	13677
925.387	13685
925.494	13658
925.602	13780
925.709	13753
925.816	13525
925.924	13605
926.031	13719
926.138	13567
926.245	13662
926.352	13502
926.459	13651
926.566	13689
926.673	13525
926.779	13419
926.886	13487
926.993	13282
927.099	13236
927.206	13194
927.312	13107
927.419	13240
927.525	13129
927.631	13194
927.737	13118
927.843	13042
927.95	13000
928.056	12935
928.162	13126
928.267	13065
928.373	13647
928.479	13091
928.585	12856
928.69	12954
928.796	13027
928.901	12821
929.007	12760
929.112	12897
929.218	12795
929.323	12719
929.428	12711
929.533	12768
929.638	12601
929.743	12722
929.848	12681
929.953	12642
930.058	12551
930.163	12429
930.267	12422
930.372	12566
930.477	12308
930.581	12608
930.685	12376
930.79	12292
930.894	12292
930.998	12319
931.103	12369
931.207	11973
931.311	11942
931.415	11828
931.519	11676
931.623	11676
