Data from test_V78500241_3220.txt Node
Date: Fri Mar 25 16:04:06 CST 2022
User: usil
Spectrometer: V785-0024
Trigger mode: 0
Integration Time (sec): 4.000000E-1
Scans to average: 1
Nonlinearity correction enabled: false
Boxcar width: 0
Storing dark spectrum: false
XAxis mode: Wavelengths
Number of Pixels in Spectrum: 1024
>>>>>Begin Spectral Data<<<<<
801.071	28656
801.214	28538
801.356	28367
801.499	28242
801.641	28196
801.783	28280
801.926	28291
802.068	28097
802.211	28116
802.353	28101
802.496	28021
802.638	28029
802.78	27808
802.923	27854
803.065	27789
803.208	27888
803.35	27934
803.492	28143
803.635	28154
803.777	28097
803.919	28067
804.061	28401
804.204	28143
804.346	28150
804.488	27857
804.63	28147
804.773	28074
804.915	28219
805.057	28280
805.199	28295
805.341	28185
805.483	28360
805.626	28314
805.768	28181
805.91	28287
806.052	28371
806.194	28295
806.336	28405
806.478	28306
806.62	28337
806.762	28421
806.904	28664
807.046	28694
807.188	28797
807.33	28793
807.472	28759
807.614	28729
807.756	28679
807.898	28550
808.04	28500
808.182	28656
808.324	28672
808.465	28577
808.607	28850
808.749	28987
808.891	29060
809.033	29235
809.174	28923
809.316	28839
809.458	28957
809.6	28923
809.741	29052
809.883	29136
810.025	29227
810.166	29227
810.308	29383
810.45	29242
810.591	29136
810.733	29048
810.875	28976
811.016	28968
811.158	28961
811.299	29189
811.441	29174
811.582	29155
811.724	28991
811.865	28900
812.007	28938
812.148	28953
812.29	29109
812.431	29102
812.573	29375
812.714	29375
812.855	29581
812.997	29661
813.138	29726
813.279	29497
813.421	29493
813.562	29604
813.703	29421
813.845	29181
813.986	28831
814.127	28763
814.268	28637
814.41	28923
814.551	28694
814.692	28812
814.833	28683
814.974	28759
815.115	28778
815.256	28656
815.397	28611
815.539	28641
815.68	28580
815.821	28554
815.962	28295
816.103	28527
816.244	28367
816.385	28409
816.526	28226
816.666	28097
816.807	27876
816.948	28040
817.089	28051
817.23	27979
817.371	27983
817.512	27949
817.653	28017
817.793	27964
817.934	27968
818.075	28044
818.216	28139
818.356	28063
818.497	27892
818.638	27827
818.778	27778
818.919	27743
819.06	27895
819.2	27846
819.341	27987
819.481	27945
819.622	28128
819.762	28428
819.903	28363
820.043	27991
820.184	28177
820.324	28150
820.465	28192
820.605	28226
820.746	28101
820.886	28017
821.026	28223
821.167	28192
821.307	28249
821.447	28021
821.588	27964
821.728	27880
821.868	27656
822.008	27557
822.149	27526
822.289	27469
822.429	27302
822.569	27104
822.709	27207
822.849	26891
822.99	27051
823.13	26937
823.27	27001
823.41	26868
823.55	26655
823.69	26864
823.83	26857
823.97	26769
824.11	26697
824.25	26602
824.389	26826
824.529	26724
824.669	26621
824.809	26750
824.949	26659
825.089	26644
825.228	26663
825.368	26533
825.508	26598
825.648	26568
825.787	26526
825.927	26701
826.067	26495
826.206	26526
826.346	26636
826.485	26579
826.625	26492
826.765	26750
826.904	26621
827.044	26423
827.183	26305
827.323	26187
827.462	26305
827.601	26229
827.741	26313
827.88	26336
828.02	26084
828.159	26229
828.298	26248
828.437	26263
828.577	26301
828.716	26358
828.855	26092
828.994	25932
829.134	26035
829.273	26073
829.412	26069
829.551	25909
829.69	25818
829.829	26050
829.968	25928
830.107	25887
830.246	25963
830.385	25932
830.524	25833
830.663	25860
830.802	25597
830.941	25578
831.08	25601
831.219	25658
831.357	25582
831.496	25864
831.635	25803
831.774	25483
831.913	25453
832.051	25263
832.19	25377
832.329	25327
832.467	25247
832.606	25308
832.744	25198
832.883	25244
833.022	25107
833.16	25179
833.299	25365
833.437	25312
833.576	25221
833.714	25190
833.852	25259
833.991	25396
834.129	25392
834.267	25384
834.406	25304
834.544	25381
834.682	25304
834.821	25240
834.959	25472
835.097	25145
835.235	25304
835.373	25213
835.511	25198
835.65	25088
835.788	25156
835.926	25133
836.064	24981
836.202	24916
836.34	25080
836.478	25255
836.615	24989
836.753	25148
836.891	25251
837.029	25114
837.167	25015
837.305	25057
837.443	25015
837.58	24905
837.718	25053
837.856	24977
837.993	24878
838.131	24973
838.269	24916
838.406	24768
838.544	24814
838.681	24696
838.819	24513
838.956	24281
839.094	24407
839.231	24490
839.369	24555
839.506	24776
839.643	24612
839.781	24353
839.918	24483
840.055	24418
840.193	24304
840.33	24220
840.467	24277
840.604	24418
840.742	24574
840.879	24155
841.016	24228
841.153	24178
841.29	24334
841.427	24372
841.564	24388
841.701	24350
841.838	24273
841.975	24194
842.112	24155
842.249	24174
842.385	23999
842.522	24319
842.659	24167
842.796	24136
842.933	24072
843.069	23984
843.206	24117
843.343	24152
843.479	24038
843.616	24148
843.752	23908
843.889	23843
844.025	24015
844.162	23771
844.298	23866
844.435	23920
844.571	23729
844.708	23843
844.844	24125
844.98	24053
845.117	23946
845.253	23855
845.389	23661
845.525	23676
845.661	23684
845.798	23653
845.934	23680
846.07	23486
846.206	23531
846.342	23779
846.478	23642
846.614	23376
846.75	23349
846.886	23170
847.022	23379
847.158	23330
847.294	23299
847.429	23334
847.565	23166
847.701	23718
847.837	22976
847.972	23086
848.108	23117
848.244	23170
848.379	22961
848.515	22850
848.65	22763
848.786	22927
848.921	22850
849.057	23041
849.192	23086
849.328	22972
849.463	22930
849.598	22774
849.734	22862
849.869	22698
850.004	22664
850.14	22717
850.275	22717
850.41	22683
850.545	22603
850.68	22611
850.815	22683
850.95	22664
851.085	22828
851.22	22778
851.355	22733
851.49	22706
851.625	22637
851.76	22626
851.895	22550
852.03	22599
852.165	22634
852.299	22630
852.434	22736
852.569	22759
852.703	22668
852.838	22771
852.973	22771
853.107	22759
853.242	22577
853.376	22557
853.511	22322
853.645	22493
853.78	22596
853.914	22531
854.048	22455
854.183	22508
854.317	22599
854.451	22603
854.585	22443
854.72	22519
854.854	22478
854.988	22352
855.122	22599
855.256	22291
855.39	22398
855.524	22546
855.658	22504
855.792	22436
855.926	22713
856.06	22565
856.194	22683
856.327	22531
856.461	22462
856.595	22421
856.729	22394
856.862	22519
856.996	22557
857.13	22527
857.263	22599
857.397	22630
857.53	22470
857.664	22398
857.797	22504
857.931	22672
858.064	22672
858.197	22542
858.331	22554
858.464	22470
858.597	22352
858.731	22421
858.864	22348
858.997	22382
859.13	22428
859.263	22516
859.396	22478
859.529	22523
859.662	22443
859.795	22363
859.928	22641
860.061	22664
860.194	22615
860.327	22557
860.46	22523
860.592	22668
860.725	22672
860.858	22592
860.99	22386
861.123	22512
861.256	22356
861.388	22554
861.521	23048
861.653	22249
861.786	22261
861.918	22223
862.05	22280
862.183	22394
862.315	22348
862.447	22428
862.58	22386
862.712	22154
862.844	22238
862.976	22234
863.108	22257
863.24	22519
863.372	22154
863.504	22185
863.636	22287
863.768	22211
863.9	22276
864.032	22169
864.164	22280
864.296	22306
864.428	22402
864.559	22272
864.691	22230
864.823	22200
864.954	22078
865.086	22128
865.217	22036
865.349	21972
865.48	21979
865.612	22124
865.743	22215
865.875	22135
866.006	22029
866.137	22116
866.269	22013
866.4	22002
866.531	22067
866.662	22048
866.793	21994
866.924	22040
867.055	22025
867.186	22006
867.317	21972
867.448	21835
867.579	21953
867.71	22044
867.841	21911
867.972	22025
868.103	21991
868.233	22070
868.364	21979
868.495	22112
868.625	22219
868.756	22333
868.886	22120
869.017	22295
869.147	22390
869.278	22238
869.408	22253
869.539	22204
869.669	22367
869.799	22356
869.929	22344
870.06	22333
870.19	22660
870.32	22523
870.45	22637
870.58	22577
870.71	22816
870.84	22725
870.97	22599
871.1	22668
871.23	22835
871.36	22911
871.489	22835
871.619	22904
871.749	22782
871.879	22904
872.008	22995
872.138	22885
872.267	22866
872.397	22660
872.526	22519
872.656	22607
872.785	22535
872.915	22782
873.044	22850
873.173	22831
873.303	22911
873.432	22953
873.561	22927
873.69	22896
873.819	22904
873.948	23022
874.077	22911
874.206	22725
874.335	22900
874.464	23014
874.593	23121
874.722	23006
874.851	23090
874.979	23022
875.108	23064
875.237	23124
875.365	22858
875.494	23064
875.623	23098
875.751	23090
875.88	23006
876.008	23174
876.136	23273
876.265	23573
876.393	23509
876.521	23497
876.65	23672
876.778	23414
876.906	23402
877.034	23345
877.162	23417
877.29	23414
877.418	23512
877.546	23421
877.674	23436
877.802	23455
877.93	23353
878.058	23444
878.185	23296
878.313	23334
878.441	23364
878.568	23292
878.696	23341
878.824	23406
878.951	23440
879.079	23619
879.206	23596
879.333	23695
879.461	23459
879.588	23581
879.715	23516
879.842	23672
879.97	23505
880.097	23151
880.224	23212
880.351	23341
880.478	23261
880.605	23277
880.732	23204
880.859	23315
880.986	23140
881.112	23242
881.239	22991
881.366	23003
881.493	22972
881.619	22793
881.746	22862
881.872	22869
881.999	22820
882.125	22885
882.252	22904
882.378	22702
882.505	22923
882.631	22641
882.757	22577
882.883	22542
883.01	22512
883.136	22489
883.262	22363
883.388	22333
883.514	22443
883.64	22474
883.766	22447
883.892	22356
884.018	22379
884.143	22394
884.269	22523
884.395	22120
884.52	21998
884.646	22261
884.772	22044
884.897	21846
885.023	22055
885.148	22318
885.274	22234
885.399	22101
885.524	22032
885.65	22124
885.775	22131
885.9	22139
886.025	22234
886.15	22150
886.275	22082
886.4	22101
886.525	22025
886.65	22105
886.775	21895
886.9	22181
887.025	22261
887.149	22112
887.274	21842
887.399	22017
887.523	21774
887.648	21819
887.773	21797
887.897	21956
888.021	21930
888.146	21774
888.27	21926
888.395	22029
888.519	21781
888.643	21972
888.767	21979
888.891	21850
889.015	21568
889.139	21755
889.263	21660
889.387	21831
889.511	21892
889.635	21876
889.759	21667
889.883	21701
890.006	21698
890.13	21618
890.254	21629
890.377	21496
890.501	21504
890.624	21416
890.748	21382
890.871	21382
890.995	21146
891.118	21237
891.241	21298
891.364	21222
891.488	21302
891.611	21214
891.734	21214
891.857	21329
891.98	21222
892.103	21344
892.226	21199
892.349	21176
892.471	20990
892.594	21028
892.717	20994
892.839	21089
892.962	21173
893.085	21131
893.207	21036
893.33	20979
893.452	21024
893.575	21173
893.697	21135
893.819	21211
893.941	21355
894.064	21264
894.186	20975
894.308	20910
894.43	21066
894.552	21188
894.674	21142
894.796	20994
894.918	21081
895.04	21051
895.161	21192
895.283	21138
895.405	21020
895.526	21123
895.648	20963
895.769	21036
895.891	21138
896.012	21233
896.134	21135
896.255	21131
896.376	20990
896.498	21100
896.619	21169
896.74	21119
896.861	21176
896.982	21359
897.103	21595
897.224	21249
897.345	21218
897.466	21336
897.587	21336
897.708	21355
897.828	21275
897.949	21298
898.07	21047
898.19	21154
898.311	21351
898.431	21169
898.552	21340
898.672	21249
898.792	21302
898.913	21199
899.033	21184
899.153	21108
899.273	20952
899.393	21047
899.513	21043
899.633	21055
899.753	20902
899.873	21009
899.993	20963
900.113	20998
900.232	20861
900.352	20876
900.472	20788
900.591	20765
900.711	20705
900.83	20705
900.95	20830
901.069	20948
901.189	20785
901.308	20469
901.427	20339
901.546	20290
901.665	20290
901.784	20355
901.904	20130
902.023	20073
902.141	19830
902.26	19864
902.379	19909
902.498	19807
902.617	19822
902.735	19894
902.854	19852
902.973	19727
903.091	19567
903.21	19392
903.328	19441
903.446	19415
903.565	19320
903.683	19320
903.801	19282
903.919	19293
904.038	19327
904.156	19038
904.274	19122
904.392	18996
904.51	19038
904.627	18981
904.745	19027
904.863	19053
904.981	18776
905.098	18757
905.216	18707
905.334	18734
905.451	18749
905.569	18795
905.686	18791
905.803	18646
905.921	18456
906.038	18601
906.155	18574
906.272	18376
906.389	18422
906.506	18190
906.623	18251
906.74	18213
906.857	18129
906.974	18216
907.091	18251
907.208	18304
907.324	18228
907.441	18155
907.557	18003
907.674	17965
907.79	17893
907.907	17961
908.023	17988
908.139	18011
908.256	17923
908.372	17767
908.488	17840
908.604	17665
908.72	17512
908.836	17638
908.952	17630
909.068	17642
909.184	17794
909.3	17623
909.415	17722
909.531	17524
909.647	17455
909.762	17360
909.878	17307
909.993	17368
910.108	17254
910.224	17296
910.339	17246
910.454	17166
910.57	17128
910.685	17117
910.8	17448
910.915	17284
911.03	17216
911.145	16953
911.259	16999
911.374	16919
911.489	16854
911.604	16896
911.718	16740
911.833	16797
911.947	16584
912.062	16527
912.176	16664
912.291	16641
912.405	16641
912.519	16877
912.633	16911
912.748	16809
912.862	16687
912.976	16462
913.09	16421
913.204	16421
913.318	16512
913.431	16592
913.545	16611
913.659	16603
913.772	16440
913.886	16295
914	16303
914.113	16299
914.226	16402
914.34	16306
914.453	16325
914.566	16291
914.68	16143
914.793	16086
914.906	15911
915.019	15869
915.132	15793
915.245	15854
915.358	15850
915.47	15850
915.583	15930
915.696	15895
915.809	15964
915.921	15960
916.034	15800
916.146	15823
916.259	15808
916.371	15876
916.483	15888
916.595	15701
916.708	15713
916.82	15663
916.932	15622
917.044	15648
917.156	15500
917.268	15500
917.38	15530
917.491	15435
917.603	15519
917.715	15488
917.826	15599
917.938	15450
918.049	15408
918.161	15488
918.272	15591
918.384	15580
918.495	15428
918.606	15222
918.717	15157
918.828	15275
918.939	15302
919.05	15169
919.161	15192
919.272	15036
919.383	15123
919.494	15211
919.604	15393
919.715	15211
919.826	15150
919.936	15176
920.047	15195
920.157	15306
920.267	15325
920.378	15211
920.488	15199
920.598	15408
920.708	15523
920.818	15310
920.928	15268
921.038	15462
921.148	15424
921.258	15146
921.368	15055
921.477	14857
921.587	14952
921.697	14849
921.806	14834
921.916	14819
922.025	14556
922.134	14530
922.244	14465
922.353	14610
922.462	14370
922.571	14396
922.68	14240
922.789	14282
922.898	14145
923.007	14161
923.116	14210
923.224	14096
923.333	14054
923.442	14054
923.55	14054
923.659	14008
923.767	14100
923.876	13913
923.984	13967
924.092	13925
924.201	13917
924.309	13818
924.417	13898
924.525	13795
924.633	13864
924.741	14629
924.849	13586
924.956	13818
925.064	13563
925.172	13476
925.279	13578
925.387	13540
925.494	13514
925.602	13708
925.709	13605
925.816	13449
925.924	13582
926.031	13548
926.138	13594
926.245	13594
926.352	13411
926.459	13533
926.566	13601
926.673	13472
926.779	13274
926.886	13304
926.993	13107
927.099	13114
927.206	13091
927.312	13069
927.419	13088
927.525	13050
927.631	13122
927.737	13019
927.843	12837
927.95	12844
928.056	12833
928.162	13000
928.267	12943
928.373	13499
928.479	12985
928.585	12764
928.69	12840
928.796	12943
928.901	12825
929.007	12654
929.112	12749
929.218	12692
929.323	12597
929.428	12631
929.533	12779
929.638	12456
929.743	12582
929.848	12673
929.953	12471
930.058	12376
930.163	12342
930.267	12262
930.372	12448
930.477	12266
930.581	12471
930.685	12308
930.79	12201
930.894	12178
930.998	12201
931.103	12262
931.207	11942
931.311	11893
931.415	11756
931.519	11532
931.623	11543
