Data from test_V78500241_617.txt Node
Date: Fri Mar 25 15:46:04 CST 2022
User: usil
Spectrometer: V785-0024
Trigger mode: 0
Integration Time (sec): 4.000000E-1
Scans to average: 1
Nonlinearity correction enabled: false
Boxcar width: 0
Storing dark spectrum: false
XAxis mode: Wavelengths
Number of Pixels in Spectrum: 1024
>>>>>Begin Spectral Data<<<<<
801.071	27979
801.214	27747
801.356	27507
801.499	27416
801.641	27450
801.783	27496
801.926	27405
802.068	27370
802.211	27241
802.353	27169
802.496	27058
802.638	26876
802.78	26982
802.923	27100
803.065	26975
803.208	26982
803.35	27169
803.492	27211
803.635	27207
803.777	27180
803.919	27146
804.061	27641
804.204	27427
804.346	27241
804.488	27287
804.63	27272
804.773	27085
804.915	27173
805.057	27340
805.199	27256
805.341	27287
805.483	27355
805.626	27245
805.768	27119
805.91	27389
806.052	27348
806.194	27294
806.336	27530
806.478	27325
806.62	27306
806.762	27450
806.904	27633
807.046	27934
807.188	27781
807.33	27686
807.472	27660
807.614	27682
807.756	27717
807.898	27564
808.04	27583
808.182	27496
808.324	27606
808.465	27713
808.607	27808
808.749	28013
808.891	28204
809.033	28181
809.174	28036
809.316	28040
809.458	28010
809.6	28051
809.741	28185
809.883	28181
810.025	28428
810.166	28226
810.308	28303
810.45	28219
810.591	28166
810.733	28044
810.875	28017
811.016	27956
811.158	27895
811.299	28063
811.441	28158
811.582	28185
811.724	28055
811.865	27972
812.007	28002
812.148	27956
812.29	28002
812.431	28173
812.573	28459
812.714	28474
812.855	28360
812.997	28645
813.138	28702
813.279	28523
813.421	28630
813.562	28592
813.703	28519
813.845	28337
813.986	27888
814.127	27781
814.268	27686
814.41	27663
814.551	27759
814.692	27743
814.833	27694
814.974	27633
815.115	27823
815.256	27603
815.397	27599
815.539	27587
815.68	27542
815.821	27405
815.962	27622
816.103	27572
816.244	27332
816.385	27237
816.526	27214
816.666	27024
816.807	26887
816.948	27024
817.089	27093
817.23	27043
817.371	26853
817.512	26906
817.653	26891
817.793	26861
817.934	26826
818.075	27017
818.216	26990
818.356	27116
818.497	26887
818.638	26769
818.778	26735
818.919	26746
819.06	26861
819.2	26811
819.341	26952
819.481	26933
819.622	27055
819.762	27298
819.903	27207
820.043	27135
820.184	26998
820.324	27070
820.465	27161
820.605	27104
820.746	27051
820.886	26933
821.026	26940
821.167	27131
821.307	27112
821.447	27051
821.588	26952
821.728	26705
821.868	26640
822.008	26400
822.149	26499
822.289	26492
822.429	26183
822.569	26199
822.709	26111
822.849	25997
822.99	25894
823.13	25936
823.27	26008
823.41	25712
823.55	25696
823.69	25731
823.83	25860
823.97	25731
824.11	25609
824.25	25613
824.389	25571
824.529	25731
824.669	25525
824.809	25616
824.949	25662
825.089	25632
825.228	25487
825.368	25460
825.508	25339
825.648	25525
825.787	25426
825.927	25537
826.067	25411
826.206	25552
826.346	25453
826.485	25525
826.625	25426
826.765	25556
826.904	25426
827.044	25244
827.183	25255
827.323	25198
827.462	25228
827.601	25202
827.741	25034
827.88	25225
828.02	24981
828.159	25160
828.298	25168
828.437	25270
828.577	25156
828.716	25198
828.855	24947
828.994	24859
829.134	24817
829.273	24863
829.412	24882
829.551	24909
829.69	24810
829.829	24867
829.968	24852
830.107	24939
830.246	24924
830.385	24802
830.524	24681
830.663	24726
830.802	24620
830.941	24513
831.08	24388
831.219	24582
831.357	24559
831.496	24692
831.635	24448
831.774	24384
831.913	24369
832.051	24235
832.19	24186
832.329	24273
832.467	24068
832.606	24205
832.744	24053
832.883	24140
833.022	24068
833.16	24194
833.299	24110
833.437	24106
833.576	24213
833.714	24117
833.852	24289
833.991	24152
834.129	24319
834.267	24327
834.406	24144
834.544	24289
834.682	24144
834.821	24003
834.959	24391
835.097	24095
835.235	24224
835.373	24167
835.511	24258
835.65	23946
835.788	24015
835.926	23927
836.064	23786
836.202	23855
836.34	24045
836.478	24049
836.615	24064
836.753	24034
836.891	24148
837.029	24022
837.167	23980
837.305	23961
837.443	23885
837.58	23882
837.718	23783
837.856	23897
837.993	23752
838.131	23843
838.269	23722
838.406	23745
838.544	23699
838.681	23543
838.819	23509
838.956	23212
839.094	23364
839.231	23387
839.369	23406
839.506	23695
839.643	23486
839.781	23322
839.918	23250
840.055	23376
840.193	23368
840.33	23231
840.467	23254
840.604	23299
840.742	23455
840.879	23200
841.016	23193
841.153	23067
841.29	23379
841.427	23227
841.564	23349
841.701	23254
841.838	23246
841.975	23098
842.112	23200
842.249	23071
842.385	22965
842.522	23166
842.659	22991
842.796	22965
842.933	22942
843.069	22930
843.206	23025
843.343	23083
843.479	22984
843.616	23010
843.752	22782
843.889	22839
844.025	22858
844.162	22805
844.298	22793
844.435	22713
844.571	22641
844.708	22721
844.844	22957
844.98	22820
845.117	22809
845.253	22634
845.389	22580
845.525	22603
845.661	22569
845.798	22497
845.934	22485
846.07	22508
846.206	22500
846.342	22584
846.478	22451
846.614	22333
846.75	22109
846.886	22162
847.022	22268
847.158	22394
847.294	22147
847.429	22341
847.565	22154
847.701	22413
847.837	22074
847.972	21968
848.108	22124
848.244	21964
848.379	21808
848.515	21823
848.65	21827
848.786	21819
848.921	21857
849.057	21953
849.192	21899
849.328	21876
849.463	21804
849.598	21732
849.734	21686
849.869	21686
850.004	21660
850.14	21644
850.275	21557
850.41	21523
850.545	21473
850.68	21526
850.815	21625
850.95	21462
851.085	21660
851.22	21701
851.355	21698
851.49	21523
851.625	21477
851.76	21526
851.895	21393
852.03	21564
852.165	21591
852.299	21587
852.434	21808
852.569	21701
852.703	21511
852.838	21682
852.973	21682
853.107	21698
853.242	21355
853.376	21424
853.511	21294
853.645	21310
853.78	21469
853.914	21500
854.048	21454
854.183	21393
854.317	21454
854.451	21526
854.585	21435
854.72	21321
854.854	21507
854.988	21374
855.122	21302
855.256	21397
855.39	21317
855.524	21488
855.658	21462
855.792	21359
855.926	21443
856.06	21416
856.194	21564
856.327	21504
856.461	21321
856.595	21287
856.729	21420
856.862	21603
856.996	21401
857.13	21443
857.263	21507
857.397	21382
857.53	21439
857.664	21473
857.797	21466
857.931	21572
858.064	21256
858.197	21443
858.331	21329
858.464	21306
858.597	21386
858.731	21420
858.864	21332
858.997	21382
859.13	21473
859.263	21595
859.396	21439
859.529	21389
859.662	21401
859.795	21420
859.928	21447
860.061	21523
860.194	21610
860.327	21443
860.46	21359
860.592	21473
860.725	21523
860.858	21595
860.99	21458
861.123	21412
861.256	21233
861.388	21428
861.521	21994
861.653	21241
861.786	21310
861.918	21218
862.05	21264
862.183	21260
862.315	21325
862.447	21443
862.58	21336
862.712	21066
862.844	21070
862.976	21176
863.108	21135
863.24	21496
863.372	21062
863.504	21154
863.636	21089
863.768	21131
863.9	21104
864.032	21108
864.164	21093
864.296	21127
864.428	21245
864.559	21192
864.691	21165
864.823	21203
864.954	21013
865.086	20982
865.217	21043
865.349	20994
865.48	21020
865.612	21005
865.743	21180
865.875	21028
866.006	20960
866.137	21028
866.269	20944
866.4	21028
866.531	20986
866.662	20857
866.793	20933
866.924	20918
867.055	20941
867.186	20937
867.317	20906
867.448	20933
867.579	20914
867.71	20921
867.841	20853
867.972	20952
868.103	20868
868.233	20914
868.364	20967
868.495	21039
868.625	21135
868.756	21287
868.886	20994
869.017	21207
869.147	21408
869.278	21203
869.408	21226
869.539	21211
869.669	21237
869.799	21199
869.929	21302
870.06	21355
870.19	21431
870.32	21435
870.45	21549
870.58	21610
870.71	21648
870.84	21637
870.97	21618
871.1	21614
871.23	21759
871.36	21686
871.489	21698
871.619	21907
871.749	21759
871.879	21827
872.008	21953
872.138	21751
872.267	21755
872.397	21652
872.526	21625
872.656	21553
872.785	21660
872.915	21808
873.044	21903
873.173	21835
873.303	21808
873.432	21930
873.561	21842
873.69	21861
873.819	21743
873.948	21911
874.077	21869
874.206	21759
874.335	21895
874.464	21934
874.593	22086
874.722	22116
874.851	22120
874.979	22074
875.108	22048
875.237	22029
875.365	21876
875.494	21892
875.623	22139
875.751	22025
875.88	22078
876.008	22166
876.136	22261
876.265	22516
876.393	22440
876.521	22592
876.65	22478
876.778	22367
876.906	22360
877.034	22325
877.162	22371
877.29	22249
877.418	22318
877.546	22348
877.674	22344
877.802	22500
877.93	22390
878.058	22211
878.185	22261
878.313	22337
878.441	22352
878.568	22177
878.696	22356
878.824	22413
878.951	22424
879.079	22451
879.206	22550
879.333	22485
879.461	22440
879.588	22485
879.715	22519
879.842	22660
879.97	22478
880.097	22109
880.224	22200
880.351	22219
880.478	22253
880.605	22261
880.732	22249
880.859	22398
880.986	22124
881.112	22162
881.239	21918
881.366	22021
881.493	21770
881.619	21922
881.746	21884
881.872	21774
881.999	21713
882.125	21770
882.252	21865
882.378	21671
882.505	21808
882.631	21656
882.757	21515
882.883	21553
883.01	21416
883.136	21458
883.262	21424
883.388	21454
883.514	21401
883.64	21549
883.766	21412
883.892	21169
884.018	21180
884.143	21393
884.269	21530
884.395	21173
884.52	21116
884.646	21142
884.772	21119
884.897	21001
885.023	21062
885.148	21173
885.274	21226
885.399	21142
885.524	21116
885.65	21066
885.775	21180
885.9	20952
886.025	21260
886.15	21116
886.275	21020
886.4	21039
886.525	20979
886.65	21081
886.775	21039
886.9	21287
887.025	21275
887.149	21123
887.274	20796
887.399	20804
887.523	20811
887.648	20861
887.773	20773
887.897	20967
888.021	20762
888.146	20819
888.27	20880
888.395	20948
888.519	20864
888.643	20902
888.767	20967
888.891	20864
889.015	20746
889.139	20792
889.263	20750
889.387	20792
889.511	20815
889.635	20792
889.759	20644
889.883	20663
890.006	20667
890.13	20777
890.254	20617
890.377	20560
890.501	20549
890.624	20427
890.748	20427
890.871	20240
890.995	20278
891.118	20202
891.241	20431
891.364	20366
891.488	20286
891.611	20225
891.734	20271
891.857	20294
891.98	20263
892.103	20336
892.226	20233
892.349	20221
892.471	20077
892.594	20237
892.717	20183
892.839	20119
892.962	20214
893.085	20149
893.207	20206
893.33	20005
893.452	20062
893.575	20157
893.697	20191
893.819	20339
893.941	20290
894.064	20221
894.186	19986
894.308	20073
894.43	20164
894.552	20256
894.674	20210
894.796	19989
894.918	19970
895.04	20043
895.161	20126
895.283	20164
895.405	20122
895.526	20138
895.648	20069
895.769	20202
895.891	20107
896.012	20320
896.134	20252
896.255	20126
896.376	20161
896.498	20183
896.619	20088
896.74	20130
896.861	20126
896.982	20556
897.103	20545
897.224	20568
897.345	20434
897.466	20320
897.587	20419
897.708	20530
897.828	20434
897.949	20343
898.07	20240
898.19	20278
898.311	20408
898.431	20221
898.552	20347
898.672	20298
898.792	20469
898.913	20427
899.033	20218
899.153	20149
899.273	19989
899.393	20107
899.513	20077
899.633	20111
899.753	20130
899.873	20001
899.993	20115
900.113	20050
900.232	20081
900.352	20005
900.472	19959
900.591	19856
900.711	20012
900.83	19887
900.95	19898
901.069	19963
901.189	19746
901.308	19582
901.427	19483
901.546	19392
901.665	19624
901.784	19548
901.904	19369
902.023	19297
902.141	19076
902.26	19034
902.379	18989
902.498	19031
902.617	18970
902.735	19076
902.854	18996
902.973	18882
903.091	18806
903.21	18673
903.328	18677
903.446	18597
903.565	18460
903.683	18426
903.801	18361
903.919	18441
904.038	18376
904.156	18270
904.274	18247
904.392	18289
904.51	18148
904.627	18289
904.745	18224
904.863	18262
904.981	18095
905.098	17893
905.216	17813
905.334	17889
905.451	18007
905.569	18019
905.686	17889
905.803	17897
905.921	17745
906.038	17847
906.155	17684
906.272	17554
906.389	17558
906.506	17482
906.623	17486
906.74	17471
906.857	17227
906.974	17406
907.091	17471
907.208	17592
907.324	17444
907.441	17463
907.557	17212
907.674	17143
907.79	17098
907.907	17090
908.023	17132
908.139	17200
908.256	17048
908.372	17067
908.488	16987
908.604	16957
908.72	16862
908.836	16881
908.952	16782
909.068	16949
909.184	17033
909.3	16847
909.415	16793
909.531	16710
909.647	16649
909.762	16615
909.878	16497
909.993	16588
910.108	16626
910.224	16535
910.339	16497
910.454	16493
910.57	16451
910.685	16314
910.8	16580
910.915	16489
911.03	16325
911.145	16135
911.259	16135
911.374	16200
911.489	16105
911.604	16032
911.718	15899
911.833	16013
911.947	15743
912.062	15720
912.176	15842
912.291	15945
912.405	15835
912.519	16154
912.633	16124
912.748	15937
912.862	15842
912.976	15819
913.09	15599
913.204	15686
913.318	15739
913.431	15785
913.545	15789
913.659	15812
913.772	15736
913.886	15671
914	15507
914.113	15568
914.226	15633
914.34	15644
914.453	15428
914.566	15614
914.68	15447
914.793	15336
914.906	15256
915.019	15188
915.132	15066
915.245	15089
915.358	15081
915.47	15188
915.583	15112
915.696	15097
915.809	15222
915.921	15272
916.034	15157
916.146	15077
916.259	15017
916.371	15028
916.483	15032
916.595	15020
916.708	14868
916.82	14990
916.932	14895
917.044	14906
917.156	14910
917.268	14788
917.38	14777
917.491	14861
917.603	14739
917.715	14804
917.826	14853
917.938	14670
918.049	14678
918.161	14781
918.272	14891
918.384	14838
918.495	14769
918.606	14644
918.717	14438
918.828	14594
918.939	14571
919.05	14473
919.161	14568
919.272	14366
919.383	14503
919.494	14587
919.604	14754
919.715	14522
919.826	14476
919.936	14488
920.047	14648
920.157	14583
920.267	14758
920.378	14590
920.488	14518
920.598	14773
920.708	14864
920.818	14667
920.928	14739
921.038	14857
921.148	14750
921.258	14488
921.368	14488
921.477	14282
921.587	14324
921.697	14259
921.806	14320
921.916	14157
922.025	14043
922.134	14001
922.244	13868
922.353	13917
922.462	13845
922.571	13818
922.68	13597
922.789	13491
922.898	13597
923.007	13594
923.116	13609
923.224	13529
923.333	13540
923.442	13518
923.55	13407
923.659	13343
923.767	13441
923.876	13377
923.984	13441
924.092	13266
924.201	13381
924.309	13240
924.417	13320
924.525	13282
924.633	13152
924.741	14164
924.849	13008
924.956	13194
925.064	13057
925.172	12920
925.279	12996
925.387	12989
925.494	13012
925.602	13103
925.709	13023
925.816	12890
925.924	12916
926.031	13012
926.138	12882
926.245	12989
926.352	12833
926.459	12924
926.566	13019
926.673	12814
926.779	12814
926.886	12589
926.993	12608
927.099	12490
927.206	12532
927.312	12490
927.419	12620
927.525	12563
927.631	12566
927.737	12429
927.843	12422
927.95	12304
928.056	12361
928.162	12311
928.267	12433
928.373	13046
928.479	12464
928.585	12224
928.69	12277
928.796	12327
928.901	12243
929.007	12045
929.112	12167
929.218	12186
929.323	12152
929.428	12114
929.533	12205
929.638	11999
929.743	12087
929.848	12060
929.953	11988
930.058	12034
930.163	11726
930.267	11790
930.372	11954
930.477	11779
930.581	12026
930.685	11794
930.79	11710
930.894	11684
930.998	11775
931.103	11764
931.207	11463
931.311	11356
931.415	11193
931.519	11098
931.623	11136
