Data from test_V78500241_3166.txt Node
Date: Fri Mar 25 16:03:43 CST 2022
User: usil
Spectrometer: V785-0024
Trigger mode: 0
Integration Time (sec): 4.000000E-1
Scans to average: 1
Nonlinearity correction enabled: false
Boxcar width: 0
Storing dark spectrum: false
XAxis mode: Wavelengths
Number of Pixels in Spectrum: 1024
>>>>>Begin Spectral Data<<<<<
801.071	28599
801.214	28512
801.356	28257
801.499	28318
801.641	28150
801.783	28166
801.926	28234
802.068	28173
802.211	28139
802.353	28078
802.496	27979
802.638	27964
802.78	27793
802.923	27682
803.065	27587
803.208	27690
803.35	27926
803.492	28017
803.635	27987
803.777	27911
803.919	28139
804.061	28356
804.204	27987
804.346	27960
804.488	27941
804.63	27934
804.773	27911
804.915	28147
805.057	28185
805.199	28059
805.341	28040
805.483	28424
805.626	28112
805.768	28097
805.91	28105
806.052	28162
806.194	28173
806.336	28234
806.478	28131
806.62	28207
806.762	28421
806.904	28516
807.046	28698
807.188	28428
807.33	28691
807.472	28691
807.614	28725
807.756	28596
807.898	28451
808.04	28360
808.182	28333
808.324	28561
808.465	28413
808.607	28637
808.749	28850
808.891	28972
809.033	29094
809.174	29014
809.316	28816
809.458	29014
809.6	28850
809.741	29048
809.883	29124
810.025	29025
810.166	29147
810.308	29155
810.45	29159
810.591	29033
810.733	29029
810.875	28839
811.016	28752
811.158	28816
811.299	28946
811.441	28949
811.582	29048
811.724	28923
811.865	28908
812.007	28809
812.148	28892
812.29	28984
812.431	29239
812.573	29280
812.714	29337
812.855	29509
812.997	29558
813.138	29642
813.279	29459
813.421	29490
813.562	29417
813.703	29337
813.845	29079
813.986	28866
814.127	28790
814.268	28615
814.41	28607
814.551	28630
814.692	28698
814.833	28573
814.974	28512
815.115	28577
815.256	28352
815.397	28455
815.539	28447
815.68	28367
815.821	28318
815.962	28394
816.103	28401
816.244	28226
816.385	28257
816.526	28169
816.666	27895
816.807	27960
816.948	28051
817.089	28029
817.23	27911
817.371	27892
817.512	27831
817.653	27831
817.793	27819
817.934	27895
818.075	27903
818.216	27911
818.356	27816
818.497	27736
818.638	27679
818.778	27656
818.919	27603
819.06	27656
819.2	27747
819.341	28048
819.481	27736
819.622	28093
819.762	28280
819.903	28074
820.043	28154
820.184	28013
820.324	27922
820.465	27998
820.605	28040
820.746	27968
820.886	27937
821.026	28090
821.167	27876
821.307	28097
821.447	27987
821.588	27838
821.728	27583
821.868	27622
822.008	27458
822.149	27325
822.289	27355
822.429	26990
822.569	27062
822.709	27062
822.849	26940
822.99	26849
823.13	26800
823.27	26979
823.41	26743
823.55	26526
823.69	26682
823.83	26693
823.97	26655
824.11	26450
824.25	26442
824.389	26438
824.529	26579
824.669	26514
824.809	26651
824.949	26552
825.089	26564
825.228	26545
825.368	26446
825.508	26423
825.648	26355
825.787	26473
825.927	26533
826.067	26355
826.206	26309
826.346	26469
826.485	26579
826.625	26370
826.765	26541
826.904	26381
827.044	26233
827.183	26062
827.323	26229
827.462	26149
827.601	26100
827.741	26077
827.88	26172
828.02	25993
828.159	26111
828.298	26187
828.437	26191
828.577	26012
828.716	26290
828.855	26050
828.994	25788
829.134	25791
829.273	25856
829.412	25860
829.551	25769
829.69	25689
829.829	25883
829.968	25769
830.107	25879
830.246	25860
830.385	25871
830.524	25670
830.663	25613
830.802	25525
830.941	25457
831.08	25297
831.219	25533
831.357	25365
831.496	25681
831.635	25506
831.774	25190
831.913	25259
832.051	25255
832.19	25255
832.329	25304
832.467	25187
832.606	25126
832.744	25046
832.883	25065
833.022	25065
833.16	25072
833.299	25164
833.437	25175
833.576	25080
833.714	25099
833.852	25202
833.991	25369
834.129	25198
834.267	25164
834.406	25301
834.544	25129
834.682	25217
834.821	25088
834.959	25392
835.097	25015
835.235	25179
835.373	25015
835.511	25152
835.65	24962
835.788	25000
835.926	24977
836.064	24840
836.202	24783
836.34	25000
836.478	25145
836.615	24992
836.753	24973
836.891	25000
837.029	24989
837.167	24932
837.305	24802
837.443	24852
837.58	24798
837.718	24913
837.856	24726
837.993	24814
838.131	24802
838.269	24593
838.406	24730
838.544	24601
838.681	24570
838.819	24399
838.956	24357
839.094	24296
839.231	24391
839.369	24285
839.506	24570
839.643	24593
839.781	24311
839.918	24110
840.055	24178
840.193	24220
840.33	24270
840.467	24213
840.604	24155
840.742	24566
840.879	24106
841.016	24114
841.153	24133
841.29	24228
841.427	24163
841.564	24148
841.701	24136
841.838	24163
841.975	24057
842.112	24087
842.249	23992
842.385	24003
842.522	24064
842.659	24068
842.796	23950
842.933	23859
843.069	23916
843.206	23901
843.343	24022
843.479	23920
843.616	23840
843.752	23832
843.889	23592
844.025	23920
844.162	23608
844.298	23760
844.435	23547
844.571	23634
844.708	23767
844.844	23988
844.98	23824
845.117	23813
845.253	23718
845.389	23570
845.525	23608
845.661	23646
845.798	23402
845.934	23516
846.07	23509
846.206	23414
846.342	23619
846.478	23414
846.614	23231
846.75	23102
846.886	23128
847.022	23174
847.158	23235
847.294	23220
847.429	23147
847.565	23136
847.701	23398
847.837	22987
847.972	22915
848.108	22961
848.244	22946
848.379	22755
848.515	22805
848.65	22736
848.786	22778
848.921	22812
849.057	22790
849.192	22687
849.328	22702
849.463	22839
849.598	22611
849.734	22774
849.869	22607
850.004	22615
850.14	22557
850.275	22565
850.41	22497
850.545	22421
850.68	22474
850.815	22611
850.95	22550
851.085	22694
851.22	22687
851.355	22455
851.49	22569
851.625	22466
851.76	22485
851.895	22440
852.03	22466
852.165	22565
852.299	22630
852.434	22592
852.569	22634
852.703	22580
852.838	22428
852.973	22603
853.107	22626
853.242	22394
853.376	22295
853.511	22257
853.645	22192
853.78	22390
853.914	22375
854.048	22287
854.183	22322
854.317	22447
854.451	22584
854.585	22382
854.72	22356
854.854	22424
854.988	22261
855.122	22363
855.256	22287
855.39	22363
855.524	22459
855.658	22409
855.792	22424
855.926	22367
856.06	22527
856.194	22421
856.327	22356
856.461	22284
856.595	22466
856.729	22303
856.862	22508
856.996	22310
857.13	22436
857.263	22527
857.397	22375
857.53	22325
857.664	22386
857.797	22295
857.931	22348
858.064	22432
858.197	22554
858.331	22295
858.464	22390
858.597	22154
858.731	22299
858.864	22181
858.997	22162
859.13	22265
859.263	22398
859.396	22424
859.529	22333
859.662	22322
859.795	22333
859.928	22436
860.061	22565
860.194	22573
860.327	22489
860.46	22360
860.592	22519
860.725	22428
860.858	22493
860.99	22325
861.123	22257
861.256	22272
861.388	22322
861.521	23033
861.653	22272
861.786	22128
861.918	22131
862.05	22211
862.183	22306
862.315	22413
862.447	22363
862.58	22314
862.712	22124
862.844	22036
862.976	22169
863.108	22154
863.24	22447
863.372	21907
863.504	22082
863.636	22040
863.768	22067
863.9	22013
864.032	21987
864.164	22135
864.296	22124
864.428	22192
864.559	21983
864.691	22090
864.823	22131
864.954	22082
865.086	22166
865.217	21991
865.349	21808
865.48	21949
865.612	21994
865.743	22086
865.875	22002
866.006	21869
866.137	21899
866.269	21979
866.4	21994
866.531	21861
866.662	21918
866.793	21892
866.924	21926
867.055	21865
867.186	21842
867.317	21857
867.448	21743
867.579	21873
867.71	21724
867.841	21827
867.972	21892
868.103	21884
868.233	21857
868.364	21899
868.495	21972
868.625	22188
868.756	22078
868.886	22086
869.017	22048
869.147	22116
869.278	22265
869.408	22109
869.539	22185
869.669	22333
869.799	22234
869.929	22257
870.06	22154
870.19	22421
870.32	22367
870.45	22436
870.58	22538
870.71	22649
870.84	22622
870.97	22535
871.1	22493
871.23	22774
871.36	22721
871.489	22577
871.619	22668
871.749	22729
871.879	22858
872.008	22824
872.138	22618
872.267	22713
872.397	22675
872.526	22577
872.656	22607
872.785	22588
872.915	22721
873.044	22748
873.173	22713
873.303	22786
873.432	22683
873.561	22869
873.69	22755
873.819	22733
873.948	22809
874.077	22767
874.206	22672
874.335	22740
874.464	22915
874.593	22927
874.722	22965
874.851	22999
874.979	22866
875.108	22999
875.237	22862
875.365	22850
875.494	22957
875.623	22927
875.751	22919
875.88	22991
876.008	23105
876.136	23147
876.265	23345
876.393	23551
876.521	23391
876.65	23436
876.778	23395
876.906	23440
877.034	23185
877.162	23337
877.29	23322
877.418	23326
877.546	23387
877.674	23303
877.802	23372
877.93	23349
878.058	23303
878.185	23155
878.313	23269
878.441	23269
878.568	23132
878.696	23143
878.824	23284
878.951	23284
879.079	23402
879.206	23577
879.333	23573
879.461	23277
879.588	23459
879.715	23467
879.842	23680
879.97	23337
880.097	23075
880.224	23166
880.351	23220
880.478	23109
880.605	23090
880.732	23204
880.859	23284
880.986	23060
881.112	23208
881.239	23014
881.366	22908
881.493	22752
881.619	22687
881.746	22740
881.872	22611
881.999	22618
882.125	22474
882.252	22740
882.378	22637
882.505	22630
882.631	22512
882.757	22325
882.883	22557
883.01	22367
883.136	22329
883.262	22211
883.388	22211
883.514	22306
883.64	22322
883.766	22291
883.892	22166
884.018	22188
884.143	22276
884.269	22398
884.395	22116
884.52	21975
884.646	21968
884.772	22002
884.897	21934
885.023	21937
885.148	22154
885.274	22074
885.399	21998
885.524	22074
885.65	22002
885.775	21907
885.9	21972
886.025	22131
886.15	22032
886.275	22074
886.4	21949
886.525	21861
886.65	21895
886.775	21850
886.9	22109
887.025	22093
887.149	21983
887.274	21819
887.399	21797
887.523	21759
887.648	21812
887.773	21644
887.897	21823
888.021	21823
888.146	21675
888.27	21861
888.395	21835
888.519	21846
888.643	21793
888.767	21770
888.891	21660
889.015	21553
889.139	21561
889.263	21603
889.387	21705
889.511	21717
889.635	21568
889.759	21450
889.883	21519
890.006	21614
890.13	21644
890.254	21587
890.377	21462
890.501	21306
890.624	21214
890.748	21306
890.871	21272
890.995	21096
891.118	20804
891.241	21104
891.364	21039
891.488	21169
891.611	21062
891.734	21112
891.857	21070
891.98	20986
892.103	21100
892.226	21093
892.349	21142
892.471	20876
892.594	21131
892.717	20956
892.839	20948
892.962	20880
893.085	21020
893.207	20937
893.33	21036
893.452	20872
893.575	21055
893.697	20864
893.819	21074
893.941	21157
894.064	21142
894.186	20853
894.308	20929
894.43	21047
894.552	21096
894.674	21096
894.796	20914
894.918	20975
895.04	21058
895.161	21024
895.283	20937
895.405	20891
895.526	20876
895.648	20990
895.769	20948
895.891	20990
896.012	21100
896.134	21047
896.255	20963
896.376	20971
896.498	20929
896.619	20918
896.74	20956
896.861	21077
896.982	21294
897.103	21424
897.224	21123
897.345	21173
897.466	21211
897.587	21169
897.708	21344
897.828	21268
897.949	21093
898.07	20975
898.19	21024
898.311	21230
898.431	21009
898.552	21074
898.672	21226
898.792	21252
898.913	21096
899.033	21039
899.153	21074
899.273	20811
899.393	20925
899.513	20963
899.633	20910
899.753	20975
899.873	20883
899.993	21005
900.113	20804
900.232	20891
900.352	20769
900.472	20682
900.591	20625
900.711	20720
900.83	20609
900.95	20648
901.069	20788
901.189	20625
901.308	20286
901.427	20278
901.546	20301
901.665	20301
901.784	20191
901.904	20107
902.023	20145
902.141	19788
902.26	19753
902.379	19856
902.498	19704
902.617	19814
902.735	19757
902.854	19567
902.973	19632
903.091	19510
903.21	19441
903.328	19476
903.446	19411
903.565	19263
903.683	19194
903.801	19126
903.919	19236
904.038	19057
904.156	18875
904.274	19046
904.392	19012
904.51	18958
904.627	18962
904.745	18894
904.863	18973
904.981	18696
905.098	18616
905.216	18578
905.334	18753
905.451	18703
905.569	18532
905.686	18620
905.803	18642
905.921	18460
906.038	18574
906.155	18464
906.272	18346
906.389	18296
906.506	18163
906.623	18220
906.74	18117
906.857	18026
906.974	18060
907.091	18201
907.208	18251
907.324	18144
907.441	17996
907.557	17927
907.674	17760
907.79	17805
907.907	17939
908.023	17817
908.139	17874
908.256	17786
908.372	17783
908.488	17710
908.604	17718
908.72	17497
908.836	17672
908.952	17566
909.068	17535
909.184	17600
909.3	17646
909.415	17486
909.531	17596
909.647	17337
909.762	17277
909.878	17292
909.993	17311
910.108	17185
910.224	17269
910.339	17193
910.454	17155
910.57	17159
910.685	17113
910.8	17288
910.915	17128
911.03	17121
911.145	16877
911.259	16850
911.374	16908
911.489	16805
911.604	16733
911.718	16546
911.833	16691
911.947	16497
912.062	16386
912.176	16512
912.291	16588
912.405	16599
912.519	16786
912.633	16691
912.748	16664
912.862	16519
912.976	16382
913.09	16363
913.204	16325
913.318	16466
913.431	16489
913.545	16386
913.659	16569
913.772	16440
913.886	16162
914	16238
914.113	16287
914.226	16200
914.34	16329
914.453	16139
914.566	16287
914.68	16051
914.793	16029
914.906	15899
915.019	15842
915.132	15698
915.245	15762
915.358	15808
915.47	15823
915.583	15789
915.696	15808
915.809	15964
915.921	15892
916.034	15766
916.146	15793
916.259	15705
916.371	15861
916.483	15660
916.595	15648
916.708	15618
916.82	15595
916.932	15481
917.044	15549
917.156	15473
917.268	15450
917.38	15416
917.491	15420
917.603	15416
917.715	15466
917.826	15481
917.938	15321
918.049	15203
918.161	15355
918.272	15477
918.384	15428
918.495	15374
918.606	15100
918.717	15127
918.828	15119
918.939	15195
919.05	15097
919.161	15161
919.272	14960
919.383	14979
919.494	15173
919.604	15340
919.715	15169
919.826	15142
919.936	15131
920.047	15116
920.157	15074
920.267	15348
920.378	15104
920.488	15070
920.598	15252
920.708	15325
920.818	15245
920.928	15245
921.038	15412
921.148	15439
921.258	15062
921.368	14963
921.477	14857
921.587	14834
921.697	14651
921.806	14891
921.916	14724
922.025	14533
922.134	14507
922.244	14431
922.353	14552
922.462	14362
922.571	14305
922.68	14039
922.789	14111
922.898	14157
923.007	14172
923.116	14084
923.224	14001
923.333	14020
923.442	13940
923.55	13879
923.659	13928
923.767	14031
923.876	13898
923.984	14058
924.092	13803
924.201	13898
924.309	13887
924.417	13856
924.525	13818
924.633	13772
924.741	14507
924.849	13502
924.956	13704
925.064	13506
925.172	13415
925.279	13575
925.387	13544
925.494	13502
925.602	13559
925.709	13472
925.816	13384
925.924	13499
926.031	13441
926.138	13506
926.245	13396
926.352	13365
926.459	13491
926.566	13487
926.673	13381
926.779	13304
926.886	13137
926.993	13080
927.099	13012
927.206	12973
927.312	13038
927.419	13042
927.525	12981
927.631	13031
927.737	12920
927.843	12913
927.95	12753
928.056	12958
928.162	12787
928.267	12939
928.373	13506
928.479	12966
928.585	12730
928.69	12825
928.796	12795
928.901	12669
929.007	12566
929.112	12726
929.218	12662
929.323	12540
929.428	12551
929.533	12593
929.638	12555
929.743	12426
929.848	12509
929.953	12464
930.058	12342
930.163	12186
930.267	12308
930.372	12357
930.477	12243
930.581	12486
930.685	12251
930.79	12121
930.894	12106
930.998	12087
931.103	12175
931.207	11908
931.311	11821
931.415	11729
931.519	11478
931.623	11471
