Data from test_V78500241_2293.txt Node
Date: Fri Mar 25 15:57:41 CST 2022
User: usil
Spectrometer: V785-0024
Trigger mode: 0
Integration Time (sec): 4.000000E-1
Scans to average: 1
Nonlinearity correction enabled: false
Boxcar width: 0
Storing dark spectrum: false
XAxis mode: Wavelengths
Number of Pixels in Spectrum: 1024
>>>>>Begin Spectral Data<<<<<
801.071	29128
801.214	29079
801.356	28774
801.499	28763
801.641	28694
801.783	28828
801.926	28733
802.068	28805
802.211	28565
802.353	28599
802.496	28531
802.638	28322
802.78	28363
802.923	28234
803.065	28257
803.208	28375
803.35	28390
803.492	28443
803.635	28664
803.777	28512
803.919	28786
804.061	29056
804.204	28694
804.346	28698
804.488	28554
804.63	28778
804.773	28653
804.915	28645
805.057	28771
805.199	28740
805.341	28805
805.483	28866
805.626	28839
805.768	28717
805.91	28927
806.052	28831
806.194	28557
806.336	29136
806.478	28790
806.62	28892
806.762	28915
806.904	29094
807.046	29436
807.188	29239
807.33	29315
807.472	29535
807.614	29102
807.756	29265
807.898	29143
808.04	29200
808.182	29105
808.324	29197
808.465	29261
808.607	29303
808.749	29474
808.891	29779
809.033	29695
809.174	29554
809.316	29440
809.458	29733
809.6	29562
809.741	29726
809.883	29729
810.025	29821
810.166	29939
810.308	29794
810.45	29779
810.591	29733
810.733	29600
810.875	29657
811.016	29505
811.158	29600
811.299	29703
811.441	29657
811.582	29699
811.724	29600
811.865	29623
812.007	29554
812.148	29661
812.29	29531
812.431	29722
812.573	29817
812.714	29984
812.855	30030
812.997	30167
813.138	30429
813.279	30273
813.421	30098
813.562	30011
813.703	29977
813.845	29718
813.986	29551
814.127	29497
814.268	29410
814.41	29326
814.551	29193
814.692	29284
814.833	29227
814.974	29307
815.115	29383
815.256	29140
815.397	29261
815.539	29189
815.68	29067
815.821	28904
815.962	29060
816.103	29014
816.244	28965
816.385	28908
816.526	28843
816.666	28691
816.807	28649
816.948	28592
817.089	28649
817.23	28679
817.371	28618
817.512	28634
817.653	28637
817.793	28580
817.934	28622
818.075	28569
818.216	28527
818.356	28512
818.497	28493
818.638	28409
818.778	28440
818.919	28371
819.06	28421
819.2	28637
819.341	28519
819.481	28626
819.622	28835
819.762	28888
819.903	29006
820.043	28843
820.184	28763
820.324	28672
820.465	28698
820.605	28824
820.746	28782
820.886	28649
821.026	28790
821.167	28717
821.307	28797
821.447	28687
821.588	28637
821.728	28344
821.868	28379
822.008	28158
822.149	28185
822.289	28188
822.429	27812
822.569	27778
822.709	27907
822.849	27644
822.99	27576
823.13	27606
823.27	27534
823.41	27370
823.55	27348
823.69	27477
823.83	27549
823.97	27279
824.11	27272
824.25	27226
824.389	27256
824.529	27355
824.669	27146
824.809	27370
824.949	27332
825.089	27321
825.228	27344
825.368	27081
825.508	27165
825.648	27146
825.787	27298
825.927	27348
826.067	27077
826.206	27264
826.346	27188
826.485	27169
826.625	27173
826.765	27169
826.904	27211
827.044	26994
827.183	26796
827.323	26868
827.462	26944
827.601	26929
827.741	26762
827.88	26925
828.02	26735
828.159	26899
828.298	26845
828.437	26845
828.577	26735
828.716	26902
828.855	26762
828.994	26609
829.134	26587
829.273	26609
829.412	26457
829.551	26377
829.69	26579
829.829	26552
829.968	26625
830.107	26621
830.246	26564
830.385	26442
830.524	26492
830.663	26484
830.802	26233
830.941	26020
831.08	26016
831.219	26244
831.357	26240
831.496	26381
831.635	26229
831.774	26202
831.913	25982
832.051	25978
832.19	25951
832.329	25868
832.467	25936
832.606	25738
832.744	25811
832.883	25864
833.022	25784
833.16	25784
833.299	25913
833.437	25868
833.576	25928
833.714	25822
833.852	25868
833.991	26005
834.129	25970
834.267	26035
834.406	25807
834.544	25963
834.682	25849
834.821	25860
834.959	25887
835.097	25875
835.235	25852
835.373	25727
835.511	25734
835.65	25822
835.788	25666
835.926	25597
836.064	25548
836.202	25533
836.34	25674
836.478	25921
836.615	25681
836.753	25708
836.891	25921
837.029	25753
837.167	25723
837.305	25647
837.443	25628
837.58	25392
837.718	25647
837.856	25533
837.993	25476
838.131	25491
838.269	25445
838.406	25373
838.544	25244
838.681	25164
838.819	25053
838.956	24985
839.094	25057
839.231	24951
839.369	25236
839.506	25476
839.643	25266
839.781	24958
839.918	24901
840.055	24901
840.193	24856
840.33	24810
840.467	24905
840.604	24966
840.742	25084
840.879	24585
841.016	24787
841.153	24829
841.29	24985
841.427	24787
841.564	24954
841.701	24913
841.838	24856
841.975	24779
842.112	24757
842.249	24730
842.385	24703
842.522	24916
842.659	24711
842.796	24585
842.933	24570
843.069	24604
843.206	24445
843.343	24551
843.479	24635
843.616	24544
843.752	24330
843.889	24555
844.025	24582
844.162	24422
844.298	24513
844.435	24369
844.571	24578
844.708	24403
844.844	24700
844.98	24563
845.117	24502
845.253	24395
845.389	24266
845.525	24273
845.661	24239
845.798	24064
845.934	24174
846.07	24064
846.206	24102
846.342	24239
846.478	24125
846.614	23980
846.75	23824
846.886	23748
847.022	23977
847.158	23942
847.294	23805
847.429	23859
847.565	23859
847.701	24053
847.837	23562
847.972	23493
848.108	23764
848.244	23665
848.379	23455
848.515	23417
848.65	23406
848.786	23493
848.921	23452
849.057	23528
849.192	23482
849.328	23417
849.463	23372
849.598	23345
849.734	23303
849.869	23292
850.004	23151
850.14	23086
850.275	23117
850.41	23037
850.545	23025
850.68	23132
850.815	23197
850.95	23239
851.085	23368
851.22	23265
851.355	23200
851.49	23174
851.625	23102
851.76	23185
851.895	23185
852.03	23094
852.165	23151
852.299	23254
852.434	23223
852.569	23212
852.703	23185
852.838	23197
852.973	23360
853.107	23231
853.242	23022
853.376	23117
853.511	23025
853.645	23109
853.78	23166
853.914	23014
854.048	22908
854.183	23060
854.317	23014
854.451	23208
854.585	23067
854.72	22938
854.854	23231
854.988	22892
855.122	23029
855.256	23003
855.39	22923
855.524	22927
855.658	23121
855.792	23037
855.926	23010
856.06	23029
856.194	23071
856.327	23098
856.461	22938
856.595	22999
856.729	22984
856.862	23044
856.996	23014
857.13	23003
857.263	23166
857.397	23033
857.53	23033
857.664	23014
857.797	23071
857.931	23174
858.064	22995
858.197	23128
858.331	23022
858.464	23025
858.597	22831
858.731	22999
858.864	23124
858.997	23018
859.13	22904
859.263	23155
859.396	23140
859.529	23064
859.662	22904
859.795	23033
859.928	22927
860.061	23231
860.194	23299
860.327	23010
860.46	23025
860.592	23105
860.725	23128
860.858	23132
860.99	23018
861.123	23048
861.256	22927
861.388	22976
861.521	23779
861.653	22866
861.786	22816
861.918	22858
862.05	22911
862.183	22858
862.315	22900
862.447	23006
862.58	22873
862.712	22710
862.844	22698
862.976	22812
863.108	22755
863.24	23132
863.372	22611
863.504	22797
863.636	22717
863.768	22774
863.9	22809
864.032	22721
864.164	22618
864.296	22675
864.428	22896
864.559	22729
864.691	22790
864.823	22668
864.954	22664
865.086	22790
865.217	22557
865.349	22478
865.48	22641
865.612	22622
865.743	22698
865.875	22500
866.006	22592
866.137	22546
866.269	22557
866.4	22527
866.531	22527
866.662	22516
866.793	22451
866.924	22618
867.055	22512
867.186	22546
867.317	22462
867.448	22470
867.579	22519
867.71	22424
867.841	22386
867.972	22615
868.103	22573
868.233	22542
868.364	22523
868.495	22546
868.625	22740
868.756	22793
868.886	22672
869.017	22706
869.147	22805
869.278	22820
869.408	22748
869.539	22908
869.669	22702
869.799	22713
869.929	22980
870.06	22793
870.19	22995
870.32	23052
870.45	23071
870.58	23014
870.71	23273
870.84	23128
870.97	23174
871.1	23296
871.23	23303
871.36	23235
871.489	23349
871.619	23277
871.749	23330
871.879	23307
872.008	23482
872.138	23364
872.267	23372
872.397	23292
872.526	23143
872.656	23200
872.785	23041
872.915	23307
873.044	23372
873.173	23387
873.303	23433
873.432	23318
873.561	23440
873.69	23193
873.819	23372
873.948	23444
874.077	23349
874.206	23261
874.335	23296
874.464	23490
874.593	23642
874.722	23505
874.851	23558
874.979	23570
875.108	23615
875.237	23596
875.365	23444
875.494	23551
875.623	23493
875.751	23592
875.88	23592
876.008	23623
876.136	23741
876.265	24133
876.393	24045
876.521	24057
876.65	24030
876.778	23897
876.906	23889
877.034	23996
877.162	23931
877.29	23939
877.418	23923
877.546	23958
877.674	23958
877.802	23882
877.93	23878
878.058	23942
878.185	23767
878.313	23786
878.441	23946
878.568	23718
878.696	23703
878.824	23901
878.951	23954
879.079	24034
879.206	24182
879.333	24007
879.461	23893
879.588	24049
879.715	24034
879.842	24232
879.97	23992
880.097	23680
880.224	23627
880.351	23874
880.478	23764
880.605	23619
880.732	23794
880.859	23946
880.986	23566
881.112	23707
881.239	23649
881.366	23433
881.493	23490
881.619	23292
881.746	23296
881.872	23269
881.999	23200
882.125	23174
882.252	23318
882.378	23170
882.505	23334
882.631	23136
882.757	23022
882.883	22972
883.01	22995
883.136	22976
883.262	22862
883.388	22679
883.514	22984
883.64	23022
883.766	22911
883.892	22687
884.018	22660
884.143	23006
884.269	22862
884.395	22508
884.52	22478
884.646	22607
884.772	22542
884.897	22538
885.023	22535
885.148	22649
885.274	22569
885.399	22596
885.524	22637
885.65	22618
885.775	22561
885.9	22668
886.025	22763
886.15	22573
886.275	22580
886.4	22306
886.525	22580
886.65	22447
886.775	22523
886.9	22733
887.025	22656
887.149	22611
887.274	22291
887.399	22413
887.523	22272
887.648	22295
887.773	22257
887.897	22363
888.021	22257
888.146	22242
888.27	22402
888.395	22424
888.519	22367
888.643	22360
888.767	22280
888.891	22147
889.015	22173
889.139	22280
889.263	21991
889.387	22192
889.511	22356
889.635	22295
889.759	22044
889.883	22120
890.006	22135
890.13	22238
890.254	22036
890.377	21895
890.501	21812
890.624	21800
890.748	21911
890.871	21694
890.995	21682
891.118	21690
891.241	21675
891.364	21633
891.488	21793
891.611	21686
891.734	21667
891.857	21701
891.98	21641
892.103	21595
892.226	21663
892.349	21610
892.471	21428
892.594	21564
892.717	21542
892.839	21526
892.962	21633
893.085	21595
893.207	21625
893.33	21530
893.452	21329
893.575	21492
893.697	21435
893.819	21743
893.941	21644
894.064	21739
894.186	21420
894.308	21488
894.43	21614
894.552	21641
894.674	21614
894.796	21462
894.918	21477
895.04	21549
895.161	21587
895.283	21545
895.405	21462
895.526	21477
895.648	21458
895.769	21416
895.891	21610
896.012	21553
896.134	21462
896.255	21545
896.376	21454
896.498	21504
896.619	21580
896.74	21466
896.861	21542
896.982	21869
897.103	21884
897.224	21812
897.345	21717
897.466	21720
897.587	21781
897.708	21789
897.828	21778
897.949	21637
898.07	21511
898.19	21717
898.311	21812
898.431	21614
898.552	21759
898.672	21724
898.792	21838
898.913	21774
899.033	21458
899.153	21580
899.273	21496
899.393	21310
899.513	21447
899.633	21416
899.753	21450
899.873	21268
899.993	21492
900.113	21313
900.232	21538
900.352	21302
900.472	21233
900.591	21245
900.711	21161
900.83	21028
900.95	21279
901.069	21348
901.189	20906
901.308	20902
901.427	20712
901.546	20743
901.665	20750
901.784	20689
901.904	20568
902.023	20560
902.141	20278
902.26	20267
902.379	20343
902.498	20301
902.617	20237
902.735	20229
902.854	20187
902.973	20111
903.091	19917
903.21	19947
903.328	19890
903.446	19856
903.565	19666
903.683	19666
903.801	19616
903.919	19685
904.038	19563
904.156	19487
904.274	19544
904.392	19518
904.51	19480
904.627	19499
904.745	19430
904.863	19533
904.981	19194
905.098	19107
905.216	19057
905.334	19202
905.451	19069
905.569	19129
905.686	19179
905.803	19004
905.921	18913
906.038	18958
906.155	18833
906.272	18741
906.389	18829
906.506	18604
906.623	18593
906.74	18677
906.857	18502
906.974	18536
907.091	18661
907.208	18787
907.324	18620
907.441	18540
907.557	18467
907.674	18315
907.79	18201
907.907	18296
908.023	18338
908.139	18277
908.256	18277
908.372	18140
908.488	18201
908.604	18167
908.72	18015
908.836	18068
908.952	17946
909.068	18114
909.184	18155
909.3	17996
909.415	17996
909.531	17980
909.647	17741
909.762	17699
909.878	17767
909.993	17615
910.108	17764
910.224	17726
910.339	17524
910.454	17474
910.57	17532
910.685	17414
910.8	17775
910.915	17596
911.03	17425
911.145	17345
911.259	17383
911.374	17299
911.489	17178
911.604	17178
911.718	17010
911.833	17010
911.947	16923
912.062	16930
912.176	17048
912.291	17071
912.405	17071
912.519	17200
912.633	17162
912.748	17056
912.862	17010
912.976	16824
913.09	16744
913.204	16771
913.318	16839
913.431	16919
913.545	17022
913.659	16942
913.772	16790
913.886	16603
914	16531
914.113	16668
914.226	16752
914.34	16713
914.453	16535
914.566	16664
914.68	16519
914.793	16481
914.906	16299
915.019	16196
915.132	16192
915.245	16128
915.358	16185
915.47	16181
915.583	16135
915.696	16207
915.809	16234
915.921	16318
916.034	16204
916.146	16120
916.259	16093
916.371	16211
916.483	16143
916.595	16029
916.708	15964
916.82	16006
916.932	16002
917.044	16017
917.156	15922
917.268	15888
917.38	15812
917.491	15823
917.603	15884
917.715	15899
917.826	15873
917.938	15736
918.049	15633
918.161	15698
918.272	15861
918.384	15857
918.495	15747
918.606	15576
918.717	15492
918.828	15542
918.939	15557
919.05	15443
919.161	15492
919.272	15268
919.383	15344
919.494	15530
919.604	15701
919.715	15530
919.826	15367
919.936	15454
920.047	15553
920.157	15488
920.267	15675
920.378	15538
920.488	15389
920.598	15686
920.708	15766
920.818	15572
920.928	15656
921.038	15793
921.148	15671
921.258	15378
921.368	15302
921.477	15233
921.587	15230
921.697	15070
921.806	15241
921.916	15047
922.025	14819
922.134	14899
922.244	14686
922.353	14887
922.462	14743
922.571	14545
922.68	14446
922.789	14465
922.898	14461
923.007	14347
923.116	14568
923.224	14423
923.333	14511
923.442	14298
923.55	14282
923.659	14332
923.767	14305
923.876	14210
923.984	14415
924.092	14149
924.201	14138
924.309	14248
924.417	14202
924.525	14138
924.633	14020
924.741	15028
924.849	13951
924.956	14005
925.064	13772
925.172	13765
925.279	13864
925.387	13913
925.494	13742
925.602	13959
925.709	13871
925.816	13704
925.924	13753
926.031	13814
926.138	13731
926.245	13761
926.352	13700
926.459	13890
926.566	13712
926.673	13700
926.779	13540
926.886	13609
926.993	13453
927.099	13343
927.206	13343
927.312	13339
927.419	13377
927.525	13392
927.631	13407
927.737	13225
927.843	13217
927.95	13076
928.056	13175
928.162	13244
928.267	13217
928.373	13822
928.479	13209
928.585	12973
928.69	12958
928.796	13164
928.901	13034
929.007	12901
929.112	13004
929.218	13053
929.323	12871
929.428	12890
929.533	12993
929.638	12772
929.743	12817
929.848	12856
929.953	12749
930.058	12806
930.163	12612
930.267	12471
930.372	12639
930.477	12532
930.581	12726
930.685	12486
930.79	12502
930.894	12403
930.998	12467
931.103	12429
931.207	12182
931.311	12068
931.415	12015
931.519	11866
931.623	11775
