Data from test_V78500241_3720.txt Node
Date: Fri Mar 25 16:07:34 CST 2022
User: usil
Spectrometer: V785-0024
Trigger mode: 0
Integration Time (sec): 4.000000E-1
Scans to average: 1
Nonlinearity correction enabled: false
Boxcar width: 0
Storing dark spectrum: false
XAxis mode: Wavelengths
Number of Pixels in Spectrum: 1024
>>>>>Begin Spectral Data<<<<<
801.071	28329
801.214	28318
801.356	28040
801.499	27953
801.641	27960
801.783	27876
801.926	27899
802.068	27789
802.211	27865
802.353	27743
802.496	27553
802.638	27583
802.78	27500
802.923	27450
803.065	27355
803.208	27492
803.35	27538
803.492	27629
803.635	27819
803.777	27690
803.919	27842
804.061	27987
804.204	27850
804.346	27827
804.488	27732
804.63	27778
804.773	27667
804.915	27812
805.057	27838
805.199	27819
805.341	27827
805.483	27922
805.626	27785
805.768	27934
805.91	27926
806.052	27899
806.194	27884
806.336	28166
806.478	27922
806.62	28017
806.762	28067
806.904	28169
807.046	28481
807.188	28417
807.33	28333
807.472	28382
807.614	28276
807.756	28116
807.898	28238
808.04	28177
808.182	28086
808.324	28082
808.465	28188
808.607	28322
808.749	28577
808.891	28713
809.033	28790
809.174	28573
809.316	28577
809.458	28831
809.6	28538
809.741	28763
809.883	28828
810.025	28828
810.166	28873
810.308	28927
810.45	28805
810.591	28767
810.733	28679
810.875	28679
811.016	28561
811.158	28622
811.299	28748
811.441	28672
811.582	28839
811.724	28641
811.865	28459
812.007	28603
812.148	28489
812.29	28577
812.431	28672
812.573	28812
812.714	29143
812.855	29124
812.997	29197
813.138	29406
813.279	29318
813.421	29071
813.562	29105
813.703	28923
813.845	28721
813.986	28436
814.127	28405
814.268	28493
814.41	28257
814.551	28204
814.692	28421
814.833	28215
814.974	28128
815.115	28200
815.256	28226
815.397	28219
815.539	28234
815.68	28128
815.821	28090
815.962	28063
816.103	28242
816.244	28040
816.385	27941
816.526	27865
816.666	27652
816.807	27549
816.948	27701
817.089	27686
817.23	27690
817.371	27625
817.512	27633
817.653	27610
817.793	27599
817.934	27587
818.075	27564
818.216	27523
818.356	27549
818.497	27454
818.638	27481
818.778	27458
818.919	27496
819.06	27408
819.2	27473
819.341	27641
819.481	27724
819.622	27827
819.762	28010
819.903	27789
820.043	27728
820.184	27755
820.324	27812
820.465	27789
820.605	27728
820.746	27633
820.886	27545
821.026	27663
821.167	27614
821.307	27857
821.447	27481
821.588	27603
821.728	27367
821.868	27222
822.008	27070
822.149	27096
822.289	27062
822.429	26826
822.569	26716
822.709	26788
822.849	26617
822.99	26514
823.13	26701
823.27	26480
823.41	26351
823.55	26290
823.69	26465
823.83	26415
823.97	26336
824.11	26214
824.25	26259
824.389	26149
824.529	26317
824.669	26221
824.809	26332
824.949	26324
825.089	26324
825.228	26218
825.368	26062
825.508	26161
825.648	26046
825.787	26202
825.927	26058
826.067	26073
826.206	26081
826.346	26081
826.485	26145
826.625	26142
826.765	26130
826.904	26111
827.044	25826
827.183	25822
827.323	25753
827.462	25841
827.601	25906
827.741	25833
827.88	25811
828.02	25845
828.159	25837
828.298	25970
828.437	25902
828.577	25868
828.716	25955
828.855	25826
828.994	25502
829.134	25537
829.273	25445
829.412	25559
829.551	25487
829.69	25575
829.829	25525
829.968	25677
830.107	25613
830.246	25518
830.385	25445
830.524	25430
830.663	25343
830.802	25247
830.941	25114
831.08	24954
831.219	25091
831.357	25244
831.496	25388
831.635	25122
831.774	25046
831.913	25126
832.051	24970
832.19	24973
832.329	24817
832.467	24757
832.606	24726
832.744	24749
832.883	24745
833.022	24753
833.16	24757
833.299	24783
833.437	24825
833.576	24817
833.714	24863
833.852	24837
833.991	24817
834.129	24875
834.267	24905
834.406	24875
834.544	24856
834.682	24741
834.821	24852
834.959	25152
835.097	24772
835.235	24783
835.373	24810
835.511	24707
835.65	24661
835.788	24772
835.926	24536
836.064	24479
836.202	24479
836.34	24764
836.478	24753
836.615	24589
836.753	24741
836.891	24749
837.029	24692
837.167	24635
837.305	24585
837.443	24627
837.58	24475
837.718	24582
837.856	24582
837.993	24486
838.131	24536
838.269	24254
838.406	24563
838.544	24342
838.681	24174
838.819	24083
838.956	23977
839.094	23996
839.231	23969
839.369	24133
839.506	24372
839.643	24121
839.781	23882
839.918	23885
840.055	23965
840.193	23893
840.33	23958
840.467	23916
840.604	23984
840.742	24239
840.879	23809
841.016	23866
841.153	23642
841.29	23977
841.427	23809
841.564	23908
841.701	23809
841.838	23859
841.975	23779
842.112	23733
842.249	23748
842.385	23668
842.522	23882
842.659	23611
842.796	23501
842.933	23573
843.069	23672
843.206	23497
843.343	23767
843.479	23611
843.616	23585
843.752	23364
843.889	23398
844.025	23558
844.162	23444
844.298	23482
844.435	23493
844.571	23387
844.708	23448
844.844	23493
844.98	23577
845.117	23501
845.253	23353
845.389	23368
845.525	23318
845.661	23326
845.798	23128
845.934	23189
846.07	23174
846.206	23170
846.342	23254
846.478	23136
846.614	22999
846.75	22812
846.886	22957
847.022	23048
847.158	22847
847.294	22809
847.429	22953
847.565	22869
847.701	23075
847.837	22771
847.972	22607
848.108	22721
848.244	22702
848.379	22489
848.515	22519
848.65	22440
848.786	22462
848.921	22504
849.057	22622
849.192	22569
849.328	22504
849.463	22550
849.598	22455
849.734	22402
849.869	22447
850.004	22363
850.14	22211
850.275	22322
850.41	22291
850.545	22185
850.68	22333
850.815	22459
850.95	22249
851.085	22504
851.22	22382
851.355	22131
851.49	22325
851.625	22299
851.76	22211
851.895	22143
852.03	22093
852.165	22295
852.299	22257
852.434	22352
852.569	22223
852.703	22261
852.838	22200
852.973	22443
853.107	22310
853.242	22139
853.376	22109
853.511	22021
853.645	22067
853.78	22051
853.914	22105
854.048	22055
854.183	22013
854.317	22029
854.451	22128
854.585	22040
854.72	22044
854.854	22116
854.988	22029
855.122	21949
855.256	21907
855.39	22013
855.524	22124
855.658	21953
855.792	22082
855.926	22147
856.06	22105
856.194	22055
856.327	22105
856.461	22040
856.595	22063
856.729	21922
856.862	22215
856.996	22067
857.13	22166
857.263	22112
857.397	22124
857.53	21998
857.664	22147
857.797	22051
857.931	22097
858.064	22048
858.197	22101
858.331	22097
858.464	21888
858.597	21892
858.731	22120
858.864	22055
858.997	21861
859.13	22055
859.263	22109
859.396	22067
859.529	22246
859.662	22067
859.795	21960
859.928	22124
860.061	22268
860.194	22177
860.327	22200
860.46	22082
860.592	22249
860.725	22287
860.858	22211
860.99	22135
861.123	22036
861.256	21949
861.388	22074
861.521	22653
861.653	21930
861.786	21766
861.918	21956
862.05	21823
862.183	21934
862.315	21953
862.447	22090
862.58	21972
862.712	21876
862.844	21766
862.976	21892
863.108	21892
863.24	22147
863.372	21713
863.504	21759
863.636	21831
863.768	21892
863.9	21743
864.032	21652
864.164	21648
864.296	21743
864.428	21930
864.559	21842
864.691	21854
864.823	21785
864.954	21808
865.086	21751
865.217	21701
865.349	21663
865.48	21667
865.612	21778
865.743	21808
865.875	21682
866.006	21705
866.137	21580
866.269	21644
866.4	21549
866.531	21603
866.662	21526
866.793	21564
866.924	21572
867.055	21656
867.186	21610
867.317	21523
867.448	21576
867.579	21603
867.71	21428
867.841	21519
867.972	21618
868.103	21587
868.233	21580
868.364	21652
868.495	21644
868.625	21800
868.756	21907
868.886	21770
869.017	21827
869.147	21899
869.278	21956
869.408	21895
869.539	21789
869.669	21911
869.799	21873
869.929	21968
870.06	21918
870.19	22200
870.32	22093
870.45	22246
870.58	22173
870.71	22257
870.84	22440
870.97	22223
871.1	22242
871.23	22447
871.36	22485
871.489	22325
871.619	22413
871.749	22440
871.879	22428
872.008	22588
872.138	22493
872.267	22489
872.397	22295
872.526	22249
872.656	22325
872.785	22265
872.915	22443
873.044	22485
873.173	22493
873.303	22531
873.432	22554
873.561	22508
873.69	22546
873.819	22447
873.948	22508
874.077	22382
874.206	22375
874.335	22466
874.464	22599
874.593	22615
874.722	22679
874.851	22649
874.979	22782
875.108	22729
875.237	22584
875.365	22546
875.494	22664
875.623	22683
875.751	22664
875.88	22691
876.008	22809
876.136	22858
876.265	23159
876.393	23117
876.521	23132
876.65	23124
876.778	23147
876.906	22934
877.034	22965
877.162	23052
877.29	23075
877.418	22961
877.546	23075
877.674	22961
877.802	22999
877.93	23037
878.058	22995
878.185	22915
878.313	23006
878.441	23025
878.568	22805
878.696	23010
878.824	22984
878.951	23132
879.079	23242
879.206	23330
879.333	23174
879.461	23128
879.588	23037
879.715	23143
879.842	23288
879.97	23151
880.097	22866
880.224	22630
880.351	22801
880.478	22991
880.605	22854
880.732	22942
880.859	23162
880.986	22847
881.112	22889
881.239	22687
881.366	22519
881.493	22497
881.619	22360
881.746	22440
881.872	22462
881.999	22436
882.125	22428
882.252	22348
882.378	22333
882.505	22443
882.631	22242
882.757	22154
882.883	22257
883.01	22154
883.136	22017
883.262	21918
883.388	21880
883.514	22112
883.64	22173
883.766	22070
883.892	21857
884.018	21842
884.143	22032
884.269	22150
884.395	21759
884.52	21751
884.646	21816
884.772	21583
884.897	21682
885.023	21698
885.148	21800
885.274	21842
885.399	21846
885.524	21781
885.65	21660
885.775	21709
885.9	21656
886.025	21838
886.15	21686
886.275	21694
886.4	21500
886.525	21713
886.65	21618
886.775	21686
886.9	21812
887.025	21808
887.149	21595
887.274	21504
887.399	21549
887.523	21405
887.648	21530
887.773	21488
887.897	21591
888.021	21743
888.146	21435
888.27	21603
888.395	21511
888.519	21447
888.643	21591
888.767	21572
888.891	21367
889.015	21351
889.139	21275
889.263	21287
889.387	21454
889.511	21313
889.635	21401
889.759	21249
889.883	21237
890.006	21275
890.13	21389
890.254	21260
890.377	21173
890.501	21135
890.624	20864
890.748	20994
890.871	20883
890.995	20925
891.118	20773
891.241	20876
891.364	20887
891.488	20883
891.611	20883
891.734	20792
891.857	20861
891.98	20849
892.103	20834
892.226	20918
892.349	20849
892.471	20659
892.594	20792
892.717	20845
892.839	20777
892.962	20853
893.085	20743
893.207	20796
893.33	20629
893.452	20686
893.575	20849
893.697	20845
893.819	20849
893.941	20960
894.064	20750
894.186	20670
894.308	20651
894.43	20868
894.552	20929
894.674	20765
894.796	20788
894.918	20644
895.04	20693
895.161	20902
895.283	20792
895.405	20701
895.526	20716
895.648	20796
895.769	20724
895.891	20800
896.012	20758
896.134	20686
896.255	20667
896.376	20697
896.498	20686
896.619	20743
896.74	20708
896.861	20823
896.982	20990
897.103	21127
897.224	20918
897.345	20880
897.466	20746
897.587	20982
897.708	21100
897.828	21055
897.949	20883
898.07	20807
898.19	20956
898.311	20998
898.431	20921
898.552	20960
898.672	21024
898.792	20910
898.913	20963
899.033	20819
899.153	20655
899.273	20613
899.393	20667
899.513	20769
899.633	20762
899.753	20640
899.873	20644
899.993	20659
900.113	20651
900.232	20613
900.352	20590
900.472	20583
900.591	20473
900.711	20450
900.83	20313
900.95	20537
901.069	20655
901.189	20259
901.308	20161
901.427	20016
901.546	20012
901.665	19928
901.784	19959
901.904	19932
902.023	19769
902.141	19632
902.26	19514
902.379	19639
902.498	19632
902.617	19552
902.735	19499
902.854	19529
902.973	19320
903.091	19213
903.21	19225
903.328	19164
903.446	19114
903.565	18943
903.683	19012
903.801	18863
903.919	18981
904.038	18939
904.156	18825
904.274	18817
904.392	18867
904.51	18661
904.627	18757
904.745	18681
904.863	18711
904.981	18498
905.098	18350
905.216	18540
905.334	18422
905.451	18327
905.569	18338
905.686	18445
905.803	18437
905.921	18186
906.038	18296
906.155	18201
906.272	18087
906.389	18110
906.506	17996
906.623	17901
906.74	17847
906.857	17756
906.974	17874
907.091	17946
907.208	18068
907.324	17965
907.441	17817
907.557	17722
907.674	17611
907.79	17676
907.907	17547
908.023	17562
908.139	17672
908.256	17592
908.372	17554
908.488	17516
908.604	17372
908.72	17330
908.836	17353
908.952	17433
909.068	17246
909.184	17509
909.3	17406
909.415	17429
909.531	17250
909.647	17140
909.762	17048
909.878	17079
909.993	17102
910.108	17094
910.224	16938
910.339	17022
910.454	16915
910.57	16885
910.685	16675
910.8	17083
910.915	16957
911.03	16793
911.145	16748
911.259	16740
911.374	16763
911.489	16637
911.604	16485
911.718	16386
911.833	16424
911.947	16371
912.062	16223
912.176	16295
912.291	16470
912.405	16318
912.519	16618
912.633	16615
912.748	16436
912.862	16352
912.976	16257
913.09	16078
913.204	16143
913.318	16265
913.431	16287
913.545	16200
913.659	16268
913.772	16071
913.886	16051
914	16044
914.113	16169
914.226	16128
914.34	16097
914.453	15819
914.566	16090
914.68	15911
914.793	15838
914.906	15679
915.019	15614
915.132	15561
915.245	15519
915.358	15545
915.47	15564
915.583	15644
915.696	15641
915.809	15759
915.921	15759
916.034	15538
916.146	15507
916.259	15393
916.371	15591
916.483	15614
916.595	15370
916.708	15313
916.82	15416
916.932	15382
917.044	15363
917.156	15283
917.268	15230
917.38	15256
917.491	15272
917.603	15302
917.715	15298
917.826	15332
917.938	15047
918.049	15116
918.161	15127
918.272	15203
918.384	15252
918.495	15233
918.606	15020
918.717	14982
918.828	15028
918.939	15024
919.05	14891
919.161	14899
919.272	14716
919.383	14872
919.494	14998
919.604	15077
919.715	14967
919.826	14826
919.936	14838
920.047	14979
920.157	14952
920.267	15100
920.378	14963
920.488	14853
920.598	15005
920.708	15222
920.818	15070
920.928	15051
921.038	15249
921.148	15184
921.258	14944
921.368	14811
921.477	14636
921.587	14659
921.697	14568
921.806	14727
921.916	14533
922.025	14408
922.134	14244
922.244	14221
922.353	14366
922.462	14130
922.571	14111
922.68	13959
922.789	13932
922.898	13967
923.007	13887
923.116	13974
923.224	13967
923.333	13947
923.442	13757
923.55	13830
923.659	13803
923.767	13750
923.876	13674
923.984	13788
924.092	13628
924.201	13674
924.309	13594
924.417	13628
924.525	13483
924.633	13571
924.741	14370
924.849	13453
924.956	13499
925.064	13392
925.172	13236
925.279	13350
925.387	13419
925.494	13320
925.602	13400
925.709	13304
925.816	13225
925.924	13190
926.031	13293
926.138	13270
926.245	13369
926.352	13133
926.459	13339
926.566	13320
926.673	13129
926.779	13114
926.886	13141
926.993	12954
927.099	12951
927.206	12901
927.312	12871
927.419	12947
927.525	12863
927.631	13019
927.737	12764
927.843	12677
927.95	12677
928.056	12734
928.162	12692
928.267	12730
928.373	13354
928.479	12684
928.585	12532
928.69	12703
928.796	12707
928.901	12544
929.007	12407
929.112	12608
929.218	12517
929.323	12426
929.428	12486
929.533	12566
929.638	12353
929.743	12437
929.848	12388
929.953	12429
930.058	12220
930.163	12057
930.267	12087
930.372	12125
930.477	12072
930.581	12342
930.685	12110
930.79	11946
930.894	11958
930.998	11904
931.103	12190
931.207	11688
931.311	11554
931.415	11516
931.519	11349
931.623	11334
