Data from test_V78500241_435.txt Node
Date: Fri Mar 25 15:44:48 CST 2022
User: usil
Spectrometer: V785-0024
Trigger mode: 0
Integration Time (sec): 4.000000E-1
Scans to average: 1
Nonlinearity correction enabled: false
Boxcar width: 0
Storing dark spectrum: false
XAxis mode: Wavelengths
Number of Pixels in Spectrum: 1024
>>>>>Begin Spectral Data<<<<<
801.071	27937
801.214	27922
801.356	27751
801.499	27785
801.641	27663
801.783	27500
801.926	27705
802.068	27530
802.211	27431
802.353	27367
802.496	27256
802.638	27230
802.78	27233
802.923	27184
803.065	27062
803.208	27146
803.35	27336
803.492	27264
803.635	27336
803.777	27222
803.919	27355
804.061	27549
804.204	27389
804.346	27294
804.488	27291
804.63	27336
804.773	27180
804.915	27336
805.057	27329
805.199	27245
805.341	27374
805.483	27473
805.626	27370
805.768	27408
805.91	27427
806.052	27405
806.194	27283
806.336	27408
806.478	27462
806.62	27450
806.762	27622
806.904	27637
807.046	27892
807.188	27922
807.33	27857
807.472	27907
807.614	27759
807.756	27812
807.898	27591
808.04	27583
808.182	27515
808.324	27614
808.465	27701
808.607	27720
808.749	27956
808.891	28116
809.033	28257
809.174	28143
809.316	27975
809.458	28006
809.6	27953
809.741	28196
809.883	28128
810.025	28268
810.166	28253
810.308	28234
810.45	28295
810.591	28284
810.733	28097
810.875	27994
811.016	27911
811.158	28051
811.299	28082
811.441	28192
811.582	28226
811.724	28010
811.865	27941
812.007	27983
812.148	28040
812.29	28051
812.431	28177
812.573	28166
812.714	28508
812.855	28531
812.997	28386
813.138	28748
813.279	28493
813.421	28588
813.562	28451
813.703	28226
813.845	28196
813.986	27884
814.127	27850
814.268	27720
814.41	27519
814.551	27549
814.692	27717
814.833	27473
814.974	27622
815.115	27504
815.256	27477
815.397	27469
815.539	27603
815.68	27530
815.821	27363
815.962	27386
816.103	27431
816.244	27154
816.385	27211
816.526	27127
816.666	26925
816.807	26845
816.948	26918
817.089	27123
817.23	26998
817.371	26940
817.512	26876
817.653	26788
817.793	26876
817.934	26899
818.075	26914
818.216	26887
818.356	26670
818.497	26819
818.638	26552
818.778	26530
818.919	26590
819.06	26663
819.2	26693
819.341	26632
819.481	26804
819.622	26956
819.762	27116
819.903	27062
820.043	27055
820.184	26948
820.324	26963
820.465	26960
820.605	27085
820.746	26914
820.886	26830
821.026	26845
821.167	26781
821.307	26967
821.447	26819
821.588	26655
821.728	26655
821.868	26381
822.008	26157
822.149	26244
822.289	26221
822.429	25841
822.569	26027
822.709	25879
822.849	25750
822.99	25704
823.13	25712
823.27	25651
823.41	25632
823.55	25388
823.69	25548
823.83	25506
823.97	25411
824.11	25403
824.25	25240
824.389	25312
824.529	25525
824.669	25312
824.809	25506
824.949	25434
825.089	25525
825.228	25324
825.368	25247
825.508	25259
825.648	25217
825.787	25381
825.927	25263
826.067	25270
826.206	25217
826.346	25156
826.485	25183
826.625	25190
826.765	25247
826.904	25202
827.044	24947
827.183	25019
827.323	24863
827.462	25012
827.601	25027
827.741	24897
827.88	24977
828.02	24715
828.159	24810
828.298	24886
828.437	24886
828.577	24833
828.716	25076
828.855	24848
828.994	24547
829.134	24582
829.273	24570
829.412	24639
829.551	24593
829.69	24688
829.829	24688
829.968	24582
830.107	24574
830.246	24578
830.385	24601
830.524	24410
830.663	24365
830.802	24304
830.941	24186
831.08	24197
831.219	24300
831.357	24216
831.496	24456
831.635	24068
831.774	24129
831.913	24068
832.051	24045
832.19	23908
832.329	23920
832.467	23897
832.606	23866
832.744	23707
832.883	23699
833.022	23786
833.16	23802
833.299	23969
833.437	23874
833.576	23855
833.714	23916
833.852	23931
833.991	23779
834.129	23843
834.267	24022
834.406	23942
834.544	23939
834.682	24011
834.821	23904
834.959	24030
835.097	23904
835.235	23897
835.373	23863
835.511	23916
835.65	23718
835.788	23722
835.926	23627
836.064	23482
836.202	23436
836.34	23802
836.478	23828
836.615	23642
836.753	23729
836.891	23779
837.029	23775
837.167	23687
837.305	23608
837.443	23566
837.58	23448
837.718	23634
837.856	23490
837.993	23417
838.131	23497
838.269	23353
838.406	23379
838.544	23387
838.681	23159
838.819	23220
838.956	23014
839.094	23067
839.231	22919
839.369	23170
839.506	23455
839.643	23102
839.781	23003
839.918	22900
840.055	22984
840.193	22949
840.33	22816
840.467	22881
840.604	22812
840.742	23197
840.879	22774
841.016	22793
841.153	22793
841.29	23071
841.427	22877
841.564	22934
841.701	22637
841.838	22725
841.975	22755
842.112	22793
842.249	22679
842.385	22577
842.522	22782
842.659	22675
842.796	22618
842.933	22440
843.069	22481
843.206	22500
843.343	22554
843.479	22626
843.616	22599
843.752	22428
843.889	22280
844.025	22447
844.162	22314
844.298	22405
844.435	22337
844.571	22249
844.708	22363
844.844	22382
844.98	22447
845.117	22504
845.253	22234
845.389	22185
845.525	22230
845.661	22226
845.798	22139
845.934	22131
846.07	22139
846.206	22074
846.342	22158
846.478	22112
846.614	21922
846.75	21793
846.886	21804
847.022	21884
847.158	21876
847.294	21819
847.429	21770
847.565	21823
847.701	22051
847.837	21648
847.972	21542
848.108	21625
848.244	21572
848.379	21420
848.515	21412
848.65	21351
848.786	21344
848.921	21439
849.057	21408
849.192	21534
849.328	21389
849.463	21477
849.598	21329
849.734	21291
849.869	21142
850.004	21214
850.14	21241
850.275	21150
850.41	21176
850.545	21066
850.68	21009
850.815	21165
850.95	21131
851.085	21329
851.22	21211
851.355	21138
851.49	21108
851.625	21089
851.76	21089
851.895	21142
852.03	21131
852.165	21051
852.299	21249
852.434	21291
852.569	21081
852.703	21138
852.838	21150
852.973	21287
853.107	21218
853.242	21119
853.376	20952
853.511	20895
853.645	20883
853.78	21108
853.914	20880
854.048	20857
854.183	20902
854.317	21062
854.451	21077
854.585	20807
854.72	20921
854.854	21013
854.988	20925
855.122	20944
855.256	20883
855.39	20834
855.524	21089
855.658	20921
855.792	20902
855.926	20952
856.06	20880
856.194	20937
856.327	20880
856.461	20887
856.595	20960
856.729	21024
856.862	21062
856.996	20902
857.13	21100
857.263	21055
857.397	21058
857.53	20941
857.664	20960
857.797	21017
857.931	21028
858.064	21047
858.197	21036
858.331	20925
858.464	20769
858.597	20815
858.731	20868
858.864	20872
858.997	20849
859.13	20975
859.263	20883
859.396	21047
859.529	20849
859.662	20777
859.795	20838
859.928	20921
860.061	21055
860.194	21119
860.327	20979
860.46	20944
860.592	20998
860.725	21112
860.858	20998
860.99	20921
861.123	20796
861.256	20868
861.388	20902
861.521	21599
861.653	20678
861.786	20750
861.918	20731
862.05	20777
862.183	20956
862.315	20838
862.447	21039
862.58	20921
862.712	20735
862.844	20594
862.976	20762
863.108	20670
863.24	21104
863.372	20541
863.504	20697
863.636	20640
863.768	20613
863.9	20727
864.032	20568
864.164	20514
864.296	20621
864.428	20670
864.559	20689
864.691	20663
864.823	20564
864.954	20640
865.086	20720
865.217	20480
865.349	20469
865.48	20408
865.612	20583
865.743	20712
865.875	20495
866.006	20575
866.137	20484
866.269	20667
866.4	20522
866.531	20374
866.662	20389
866.793	20450
866.924	20377
867.055	20457
867.186	20518
867.317	20431
867.448	20202
867.579	20404
867.71	20256
867.841	20343
867.972	20427
868.103	20454
868.233	20400
868.364	20499
868.495	20473
868.625	20594
868.756	20674
868.886	20602
869.017	20674
869.147	20807
869.278	20887
869.408	20739
869.539	20705
869.669	20758
869.799	20720
869.929	20830
870.06	20823
870.19	21169
870.32	21013
870.45	21032
870.58	21074
870.71	21264
870.84	21161
870.97	21062
871.1	21138
871.23	21306
871.36	21252
871.489	21222
871.619	21203
871.749	21188
871.879	21386
872.008	21370
872.138	21431
872.267	21207
872.397	21058
872.526	21131
872.656	21112
872.785	21150
872.915	21329
873.044	21340
873.173	21249
873.303	21370
873.432	21359
873.561	21378
873.69	21412
873.819	21310
873.948	21363
874.077	21435
874.206	21218
874.335	21355
874.464	21462
874.593	21572
874.722	21420
874.851	21652
874.979	21576
875.108	21545
875.237	21477
875.365	21511
875.494	21462
875.623	21568
875.751	21534
875.88	21599
876.008	21599
876.136	21789
876.265	22025
876.393	22051
876.521	21998
876.65	21907
876.778	21956
876.906	21903
877.034	21800
877.162	21869
877.29	21854
877.418	21831
877.546	21979
877.674	21979
877.802	21956
877.93	21918
878.058	21857
878.185	21846
878.313	21781
878.441	21922
878.568	21751
878.696	21827
878.824	21778
878.951	21941
879.079	22128
879.206	22200
879.333	22124
879.461	21846
879.588	21911
879.715	21968
879.842	22325
879.97	22021
880.097	21629
880.224	21701
880.351	21656
880.478	21652
880.605	21679
880.732	21743
880.859	22032
880.986	21663
881.112	21705
881.239	21637
881.366	21412
881.493	21416
881.619	21237
881.746	21374
881.872	21310
881.999	21252
882.125	21256
882.252	21344
882.378	21382
882.505	21507
882.631	21275
882.757	21017
882.883	21028
883.01	21161
883.136	20952
883.262	20895
883.388	20967
883.514	20921
883.64	21077
883.766	20883
883.892	20796
884.018	20853
884.143	20960
884.269	20971
884.395	20750
884.52	20720
884.646	20720
884.772	20579
884.897	20571
885.023	20629
885.148	20746
885.274	20880
885.399	20826
885.524	20800
885.65	20670
885.775	20777
885.9	20560
886.025	20731
886.15	20727
886.275	20545
886.4	20427
886.525	20564
886.65	20514
886.775	20651
886.9	20819
887.025	20731
887.149	20613
887.274	20476
887.399	20473
887.523	20377
887.648	20370
887.773	20229
887.897	20511
888.021	20434
888.146	20324
888.27	20514
888.395	20480
888.519	20461
888.643	20480
888.767	20454
888.891	20320
889.015	20183
889.139	20183
889.263	20233
889.387	20332
889.511	20438
889.635	20244
889.759	20240
889.883	20119
890.006	20336
890.13	20233
890.254	20039
890.377	20153
890.501	19947
890.624	19944
890.748	20046
890.871	19852
890.995	19750
891.118	19696
891.241	19769
891.364	19879
891.488	19860
891.611	19811
891.734	19731
891.857	19917
891.98	19852
892.103	19795
892.226	19772
892.349	19799
892.471	19575
892.594	19780
892.717	19746
892.839	19761
892.962	19772
893.085	19700
893.207	19620
893.33	19537
893.452	19655
893.575	19719
893.697	19689
893.819	19868
893.941	19947
894.064	19765
894.186	19628
894.308	19594
894.43	19708
894.552	19864
894.674	19715
894.796	19624
894.918	19655
895.04	19712
895.161	19814
895.283	19723
895.405	19632
895.526	19780
895.648	19761
895.769	19715
895.891	19753
896.012	19852
896.134	19841
896.255	19704
896.376	19742
896.498	19738
896.619	19750
896.74	19795
896.861	19791
896.982	20069
897.103	20153
897.224	19936
897.345	19978
897.466	19909
897.587	19932
897.708	20111
897.828	20012
897.949	19978
898.07	19780
898.19	20046
898.311	20065
898.431	19875
898.552	19898
898.672	20130
898.792	20020
898.913	19951
899.033	19898
899.153	19658
899.273	19628
899.393	19731
899.513	19788
899.633	19582
899.753	19727
899.873	19628
899.993	19643
900.113	19708
900.232	19757
900.352	19647
900.472	19544
900.591	19495
900.711	19457
900.83	19419
900.95	19533
901.069	19647
901.189	19449
901.308	19190
901.427	19027
901.546	19118
901.665	19202
901.784	19012
901.904	18954
902.023	18901
902.141	18631
902.26	18608
902.379	18753
902.498	18566
902.617	18422
902.735	18601
902.854	18623
902.973	18597
903.091	18323
903.21	18243
903.328	18190
903.446	18163
903.565	18095
903.683	18030
903.801	17904
903.919	18114
904.038	17992
904.156	17790
904.274	17923
904.392	17828
904.51	17832
904.627	17859
904.745	17920
904.863	17878
904.981	17630
905.098	17433
905.216	17535
905.334	17592
905.451	17512
905.569	17505
905.686	17551
905.803	17471
905.921	17356
906.038	17368
906.155	17261
906.272	17334
906.389	17216
906.506	17147
906.623	17117
906.74	16949
906.857	16965
906.974	17041
907.091	17185
907.208	17140
907.324	17102
907.441	16911
907.557	16881
907.674	16771
907.79	16683
907.907	16797
908.023	16782
908.139	16748
908.256	16660
908.372	16729
908.488	16592
908.604	16592
908.72	16462
908.836	16440
908.952	16382
909.068	16523
909.184	16577
909.3	16462
909.415	16523
909.531	16489
909.647	16192
909.762	16135
909.878	16143
909.993	16150
910.108	16192
910.224	16154
910.339	16147
910.454	16021
910.57	15956
910.685	15991
910.8	16139
910.915	16101
911.03	16040
911.145	15717
911.259	15797
911.374	15846
911.489	15622
911.604	15633
911.718	15542
911.833	15553
911.947	15408
912.062	15431
912.176	15580
912.291	15599
912.405	15519
912.519	15637
912.633	15709
912.748	15599
912.862	15504
912.976	15412
913.09	15294
913.204	15363
913.318	15351
913.431	15363
913.545	15386
913.659	15420
913.772	15233
913.886	15131
914	15127
914.113	15272
914.226	15230
914.34	15298
914.453	15039
914.566	15203
914.68	14975
914.793	15062
914.906	14853
915.019	14765
915.132	14705
915.245	14754
915.358	14807
915.47	14838
915.583	14819
915.696	14823
915.809	14941
915.921	14902
916.034	14651
916.146	14655
916.259	14644
916.371	14769
916.483	14701
916.595	14651
916.708	14617
916.82	14590
916.932	14655
917.044	14587
917.156	14568
917.268	14393
917.38	14351
917.491	14408
917.603	14362
917.715	14560
917.826	14568
917.938	14301
918.049	14240
918.161	14366
918.272	14564
918.384	14511
918.495	14324
918.606	14244
918.717	14142
918.828	14286
918.939	14244
919.05	14115
919.161	14183
919.272	13940
919.383	14073
919.494	14244
919.604	14305
919.715	14187
919.826	14069
919.936	14126
920.047	14290
920.157	14107
920.267	14366
920.378	14161
920.488	14096
920.598	14328
920.708	14343
920.818	14252
920.928	14256
921.038	14427
921.148	14298
921.258	14206
921.368	14035
921.477	13940
921.587	13833
921.697	13837
921.806	13909
921.916	13753
922.025	13567
922.134	13632
922.244	13521
922.353	13662
922.462	13445
922.571	13358
922.68	13198
922.789	13160
922.898	13137
923.007	13133
923.116	13171
923.224	13171
923.333	13149
923.442	13038
923.55	13015
923.659	13015
923.767	12981
923.876	12947
923.984	13099
924.092	12810
924.201	12981
924.309	12924
924.417	12962
924.525	12837
924.633	12852
924.741	13620
924.849	12684
924.956	12848
925.064	12639
925.172	12639
925.279	12612
925.387	12631
925.494	12589
925.602	12787
925.709	12726
925.816	12528
925.924	12574
926.031	12601
926.138	12566
926.245	12544
926.352	12540
926.459	12650
926.566	12589
926.673	12494
926.779	12460
926.886	12388
926.993	12216
927.099	12254
927.206	12175
927.312	12083
927.419	12243
927.525	12129
927.631	12186
927.737	12095
927.843	12072
927.95	11870
928.056	12057
928.162	12072
928.267	12041
928.373	12677
928.479	12068
928.585	11805
928.69	12034
928.796	11980
928.901	11832
929.007	11775
929.112	11882
929.218	11840
929.323	11798
929.428	11722
929.533	11809
929.638	11726
929.743	11699
929.848	11726
929.953	11729
930.058	11661
930.163	11410
930.267	11471
930.372	11589
930.477	11516
930.581	11646
930.685	11497
930.79	11330
930.894	11368
930.998	11299
931.103	11486
931.207	11064
931.311	10995
931.415	10889
931.519	10839
931.623	10634
