Data from test_V78500241_1524.txt Node
Date: Fri Mar 25 15:52:21 CST 2022
User: usil
Spectrometer: V785-0024
Trigger mode: 0
Integration Time (sec): 4.000000E-1
Scans to average: 1
Nonlinearity correction enabled: false
Boxcar width: 0
Storing dark spectrum: false
XAxis mode: Wavelengths
Number of Pixels in Spectrum: 1024
>>>>>Begin Spectral Data<<<<<
801.071	27987
801.214	28082
801.356	27739
801.499	27660
801.641	27846
801.783	27458
801.926	27739
802.068	27618
802.211	27485
802.353	27488
802.496	27370
802.638	27313
802.78	27306
802.923	27294
803.065	27279
803.208	27005
803.35	27378
803.492	27332
803.635	27332
803.777	27287
803.919	27530
804.061	27774
804.204	27507
804.346	27431
804.488	27351
804.63	27389
804.773	27321
804.915	27401
805.057	27568
805.199	27348
805.341	27443
805.483	27572
805.626	27587
805.768	27492
805.91	27553
806.052	27576
806.194	27496
806.336	27774
806.478	27679
806.62	27587
806.762	27838
806.904	27892
807.046	28139
807.188	28093
807.33	27953
807.472	28166
807.614	27979
807.756	28032
807.898	28021
808.04	27956
808.182	27804
808.324	27835
808.465	27918
808.607	28139
808.749	28185
808.891	28280
809.033	28310
809.174	28249
809.316	28325
809.458	28379
809.6	28169
809.741	28329
809.883	28436
810.025	28573
810.166	28573
810.308	28451
810.45	28436
810.591	28428
810.733	28360
810.875	28219
811.016	28211
811.158	28086
811.299	28379
811.441	28398
811.582	28409
811.724	28253
811.865	28029
812.007	28303
812.148	28325
812.29	28287
812.431	28390
812.573	28668
812.714	28626
812.855	28759
812.997	28679
813.138	28778
813.279	28786
813.421	28733
813.562	28687
813.703	28630
813.845	28443
813.986	28105
814.127	28082
814.268	28021
814.41	28105
814.551	27892
814.692	28120
814.833	27892
814.974	27793
815.115	27922
815.256	27656
815.397	27842
815.539	27766
815.68	27698
815.821	27618
815.962	27743
816.103	27732
816.244	27576
816.385	27568
816.526	27477
816.666	27496
816.807	27214
816.948	27340
817.089	27268
817.23	27313
817.371	27344
817.512	27325
817.653	27070
817.793	27009
817.934	27169
818.075	27222
818.216	27135
818.356	27142
818.497	26925
818.638	26804
818.778	26986
818.919	26956
819.06	27017
819.2	27043
819.341	27176
819.481	27317
819.622	27359
819.762	27348
819.903	27431
820.043	27481
820.184	27283
820.324	27367
820.465	27424
820.605	27332
820.746	27370
820.886	27138
821.026	27260
821.167	27310
821.307	27526
821.447	27173
821.588	27222
821.728	26963
821.868	26902
822.008	26712
822.149	26659
822.289	26739
822.429	26499
822.569	26415
822.709	26408
822.849	26275
822.99	26210
823.13	26100
823.27	26043
823.41	25932
823.55	25974
823.69	26088
823.83	25986
823.97	25898
824.11	25833
824.25	25818
824.389	25906
824.529	25986
824.669	25906
824.809	26024
824.949	25887
825.089	25940
825.228	25837
825.368	25696
825.508	25830
825.648	25795
825.787	25871
825.927	25856
826.067	25731
826.206	25674
826.346	25845
826.485	25670
826.625	25567
826.765	25917
826.904	25753
827.044	25521
827.183	25491
827.323	25419
827.462	25445
827.601	25419
827.741	25365
827.88	25529
828.02	25266
828.159	25438
828.298	25411
828.437	25605
828.577	25365
828.716	25556
828.855	25362
828.994	25023
829.134	25137
829.273	25213
829.412	25061
829.551	25076
829.69	25091
829.829	25133
829.968	25289
830.107	25110
830.246	25107
830.385	25202
830.524	25050
830.663	24856
830.802	24871
830.941	24745
831.08	24703
831.219	24726
831.357	24894
831.496	24954
831.635	24696
831.774	24749
831.913	24566
832.051	24547
832.19	24589
832.329	24582
832.467	24365
832.606	24323
832.744	24315
832.883	24342
833.022	24334
833.16	24429
833.299	24471
833.437	24441
833.576	24464
833.714	24384
833.852	24433
833.991	24342
834.129	24521
834.267	24570
834.406	24464
834.544	24483
834.682	24467
834.821	24517
834.959	24608
835.097	24319
835.235	24479
835.373	24376
835.511	24452
835.65	24372
835.788	24281
835.926	24171
836.064	24053
836.202	24083
836.34	24254
836.478	24365
836.615	24323
836.753	24273
836.891	24258
837.029	24346
837.167	24155
837.305	24247
837.443	24174
837.58	24159
837.718	24239
837.856	24129
837.993	24106
838.131	24057
838.269	24015
838.406	24053
838.544	23942
838.681	23828
838.819	23760
838.956	23630
839.094	23463
839.231	23775
839.369	23703
839.506	24026
839.643	23878
839.781	23627
839.918	23520
840.055	23566
840.193	23627
840.33	23573
840.467	23547
840.604	23516
840.742	23805
840.879	23406
841.016	23395
841.153	23448
841.29	23718
841.427	23497
841.564	23638
841.701	23383
841.838	23372
841.975	23356
842.112	23288
842.249	23261
842.385	23337
842.522	23448
842.659	23360
842.796	23185
842.933	23353
843.069	23261
843.206	23273
843.343	23296
843.479	23246
843.616	23261
843.752	23086
843.889	23067
844.025	23204
844.162	23052
844.298	23140
844.435	23010
844.571	23041
844.708	23140
844.844	23223
844.98	23056
845.117	23075
845.253	22946
845.389	22858
845.525	22980
845.661	22847
845.798	22721
845.934	22881
846.07	22828
846.206	22873
846.342	22850
846.478	22862
846.614	22481
846.75	22409
846.886	22542
847.022	22561
847.158	22527
847.294	22577
847.429	22565
847.565	22561
847.701	22828
847.837	22192
847.972	22234
848.108	22280
848.244	22272
848.379	22124
848.515	22162
848.65	22188
848.786	22040
848.921	22078
849.057	22150
849.192	22162
849.328	22082
849.463	22181
849.598	22036
849.734	21960
849.869	22070
850.004	21915
850.14	21899
850.275	21880
850.41	21915
850.545	21857
850.68	21797
850.815	21941
850.95	21709
851.085	22010
851.22	22029
851.355	21907
851.49	21922
851.625	21842
851.76	21915
851.895	21781
852.03	21789
852.165	21953
852.299	21892
852.434	21895
852.569	21876
852.703	21823
852.838	21835
852.973	22010
853.107	22067
853.242	21854
853.376	21679
853.511	21542
853.645	21694
853.78	21812
853.914	21633
854.048	21671
854.183	21652
854.317	21652
854.451	21895
854.585	21576
854.72	21633
854.854	21705
854.988	21622
855.122	21644
855.256	21542
855.39	21652
855.524	21724
855.658	21774
855.792	21720
855.926	21675
856.06	21656
856.194	21698
856.327	21606
856.461	21701
856.595	21599
856.729	21648
856.862	21808
856.996	21675
857.13	21800
857.263	21785
857.397	21778
857.53	21770
857.664	21850
857.797	21663
857.931	21842
858.064	21701
858.197	21903
858.331	21652
858.464	21675
858.597	21618
858.731	21591
858.864	21667
858.997	21625
859.13	21622
859.263	21770
859.396	21793
859.529	21667
859.662	21568
859.795	21762
859.928	21675
860.061	21884
860.194	21918
860.327	21694
860.46	21629
860.592	21838
860.725	21778
860.858	21857
860.99	21724
861.123	21553
861.256	21629
861.388	21637
861.521	22268
861.653	21572
861.786	21492
861.918	21568
862.05	21583
862.183	21610
862.315	21652
862.447	21694
862.58	21648
862.712	21458
862.844	21386
862.976	21542
863.108	21469
863.24	21846
863.372	21283
863.504	21272
863.636	21336
863.768	21435
863.9	21424
864.032	21405
864.164	21367
864.296	21378
864.428	21397
864.559	21428
864.691	21424
864.823	21363
864.954	21359
865.086	21374
865.217	21317
865.349	21112
865.48	21279
865.612	21230
865.743	21367
865.875	21249
866.006	21119
866.137	21214
866.269	21298
866.4	21222
866.531	21344
866.662	21218
866.793	21249
866.924	21131
867.055	21222
867.186	21192
867.317	21180
867.448	21195
867.579	21192
867.71	21127
867.841	21100
867.972	21188
868.103	21176
868.233	21302
868.364	21138
868.495	21260
868.625	21450
868.756	21538
868.886	21275
869.017	21412
869.147	21622
869.278	21496
869.408	21477
869.539	21519
869.669	21447
869.799	21580
869.929	21507
870.06	21447
870.19	21800
870.32	21660
870.45	21873
870.58	21800
870.71	21911
870.84	21899
870.97	21736
871.1	21888
871.23	21873
871.36	22093
871.489	21838
871.619	21941
871.749	22040
871.879	22177
872.008	22200
872.138	21991
872.267	21934
872.397	21979
872.526	21884
872.656	21907
872.785	21972
872.915	22169
873.044	22173
873.173	22032
873.303	22112
873.432	22207
873.561	22280
873.69	22097
873.819	22078
873.948	22295
874.077	22162
874.206	22109
874.335	22112
874.464	22268
874.593	22386
874.722	22314
874.851	22386
874.979	22306
875.108	22352
875.237	22272
875.365	22074
875.494	22322
875.623	22268
875.751	22253
875.88	22322
876.008	22424
876.136	22489
876.265	22748
876.393	22767
876.521	22843
876.65	22771
876.778	22740
876.906	22554
877.034	22656
877.162	22713
877.29	22580
877.418	22660
877.546	22634
877.674	22588
877.802	22740
877.93	22630
878.058	22592
878.185	22508
878.313	22630
878.441	22675
878.568	22554
878.696	22443
878.824	22656
878.951	22786
879.079	22900
879.206	22942
879.333	22748
879.461	22679
879.588	22786
879.715	22812
879.842	22767
879.97	22660
880.097	22497
880.224	22584
880.351	22489
880.478	22443
880.605	22443
880.732	22470
880.859	22660
880.986	22421
881.112	22379
881.239	22344
881.366	22135
881.493	22192
881.619	21983
881.746	22036
881.872	22017
881.999	21953
882.125	21956
882.252	22086
882.378	22185
882.505	22135
882.631	21861
882.757	21743
882.883	21812
883.01	21876
883.136	21759
883.262	21580
883.388	21553
883.514	21743
883.64	21743
883.766	21717
883.892	21477
884.018	21492
884.143	21679
884.269	21774
884.395	21466
884.52	21348
884.646	21481
884.772	21329
884.897	21283
885.023	21344
885.148	21454
885.274	21500
885.399	21405
885.524	21382
885.65	21351
885.775	21408
885.9	21237
886.025	21393
886.15	21386
886.275	21317
886.4	21332
886.525	21233
886.65	21150
886.775	21256
886.9	21454
887.025	21591
887.149	21370
887.274	21123
887.399	21096
887.523	21184
887.648	21036
887.773	21020
887.897	21154
888.021	21241
888.146	21184
888.27	21180
888.395	21256
888.519	21275
888.643	21203
888.767	21169
888.891	21028
889.015	20994
889.139	21058
889.263	20868
889.387	21051
889.511	21051
889.635	21058
889.759	20952
889.883	20895
890.006	21017
890.13	21047
890.254	20853
890.377	20773
890.501	20762
890.624	20674
890.748	20712
890.871	20609
890.995	20431
891.118	20518
891.241	20423
891.364	20602
891.488	20609
891.611	20484
891.734	20438
891.857	20522
891.98	20412
892.103	20541
892.226	20495
892.349	20541
892.471	20282
892.594	20400
892.717	20454
892.839	20400
892.962	20343
893.085	20549
893.207	20362
893.33	20191
893.452	20240
893.575	20415
893.697	20347
893.819	20518
893.941	20609
894.064	20415
894.186	20278
894.308	20381
894.43	20434
894.552	20579
894.674	20461
894.796	20336
894.918	20282
895.04	20259
895.161	20492
895.283	20442
895.405	20263
895.526	20358
895.648	20393
895.769	20503
895.891	20473
896.012	20465
896.134	20511
896.255	20404
896.376	20275
896.498	20442
896.619	20423
896.74	20434
896.861	20495
896.982	20735
897.103	20758
897.224	20720
897.345	20716
897.466	20545
897.587	20739
897.708	20636
897.828	20648
897.949	20514
898.07	20446
898.19	20579
898.311	20560
898.431	20655
898.552	20533
898.672	20613
898.792	20754
898.913	20686
899.033	20587
899.153	20499
899.273	20415
899.393	20404
899.513	20412
899.633	20347
899.753	20442
899.873	20393
899.993	20408
900.113	20267
900.232	20313
900.352	20218
900.472	20202
900.591	20138
900.711	20111
900.83	20103
900.95	20225
901.069	20142
901.189	19967
901.308	19734
901.427	19723
901.546	19887
901.665	19677
901.784	19651
901.904	19601
902.023	19400
902.141	19362
902.26	19240
902.379	19346
902.498	19194
902.617	19187
902.735	19285
902.854	19244
902.973	19114
903.091	18970
903.21	18909
903.328	18890
903.446	18749
903.565	18852
903.683	18696
903.801	18574
903.919	18673
904.038	18623
904.156	18414
904.274	18475
904.392	18437
904.51	18448
904.627	18407
904.745	18452
904.863	18547
904.981	18330
905.098	18083
905.216	18076
905.334	18125
905.451	18163
905.569	18140
905.686	18213
905.803	18034
905.921	17897
906.038	17901
906.155	17889
906.272	17630
906.389	17874
906.506	17680
906.623	17638
906.74	17661
906.857	17581
906.974	17554
907.091	17737
907.208	17710
907.324	17741
907.441	17524
907.557	17303
907.674	17360
907.79	17261
907.907	17341
908.023	17395
908.139	17376
908.256	17200
908.372	17349
908.488	17212
908.604	17174
908.72	17014
908.836	17117
908.952	17045
909.068	17102
909.184	17132
909.3	17014
909.415	17075
909.531	17067
909.647	16797
909.762	16694
909.878	16816
909.993	16729
910.108	16816
910.224	16736
910.339	16816
910.454	16645
910.57	16641
910.685	16531
910.8	16774
910.915	16668
911.03	16569
911.145	16333
911.259	16287
911.374	16424
911.489	16318
911.604	16257
911.718	16116
911.833	16006
911.947	16166
912.062	15922
912.176	16059
912.291	16013
912.405	16063
912.519	16329
912.633	16276
912.748	16105
912.862	16101
912.976	15949
913.09	15876
913.204	15873
913.318	15991
913.431	15975
913.545	16002
913.659	16128
913.772	15907
913.886	15800
914	15778
914.113	15755
914.226	15831
914.34	15781
914.453	15644
914.566	15793
914.68	15622
914.793	15564
914.906	15458
915.019	15370
915.132	15325
915.245	15405
915.358	15283
915.47	15447
915.583	15348
915.696	15389
915.809	15416
915.921	15363
916.034	15325
916.146	15165
916.259	15222
916.371	15321
916.483	15249
916.595	15207
916.708	15108
916.82	15104
916.932	15154
917.044	15233
917.156	15104
917.268	14906
917.38	15058
917.491	14937
917.603	14918
917.715	15024
917.826	15039
917.938	15013
918.049	14785
918.161	14960
918.272	14994
918.384	15062
918.495	14857
918.606	14750
918.717	14682
918.828	14800
918.939	14762
919.05	14629
919.161	14712
919.272	14530
919.383	14488
919.494	14853
919.604	14929
919.715	14651
919.826	14537
919.936	14655
920.047	14788
920.157	14606
920.267	14819
920.378	14750
920.488	14720
920.598	14765
920.708	14948
920.818	14769
920.928	14750
921.038	14979
921.148	14929
921.258	14693
921.368	14537
921.477	14499
921.587	14404
921.697	14263
921.806	14465
921.916	14244
922.025	14115
922.134	14084
922.244	13993
922.353	14065
922.462	13871
922.571	13906
922.68	13727
922.789	13696
922.898	13590
923.007	13693
923.116	13677
923.224	13746
923.333	13666
923.442	13518
923.55	13571
923.659	13540
923.767	13571
923.876	13502
923.984	13487
924.092	13449
924.201	13415
924.309	13502
924.417	13540
924.525	13312
924.633	13396
924.741	14324
924.849	13156
924.956	13285
925.064	13019
925.172	13110
925.279	13110
925.387	13118
925.494	13126
925.602	13209
925.709	13247
925.816	12939
925.924	13034
926.031	13118
926.138	13141
926.245	13008
926.352	12871
926.459	13053
926.566	13050
926.673	12905
926.779	12806
926.886	12985
926.993	12787
927.099	12642
927.206	12490
927.312	12707
927.419	12738
927.525	12639
927.631	12681
927.737	12563
927.843	12540
927.95	12399
928.056	12532
928.162	12494
928.267	12597
928.373	13141
928.479	12540
928.585	12372
928.69	12467
928.796	12437
928.901	12350
929.007	12235
929.112	12342
929.218	12300
929.323	12247
929.428	12171
929.533	12311
929.638	12121
929.743	12197
929.848	12258
929.953	12197
930.058	12167
930.163	11798
930.267	11904
930.372	12053
930.477	11874
930.581	12049
930.685	11939
930.79	11707
930.894	11817
930.998	11771
931.103	11866
931.207	11535
931.311	11455
931.415	11398
931.519	11181
931.623	11155
