Data from test_V78500241_3579.txt Node
Date: Fri Mar 25 16:06:35 CST 2022
User: usil
Spectrometer: V785-0024
Trigger mode: 0
Integration Time (sec): 4.000000E-1
Scans to average: 1
Nonlinearity correction enabled: false
Boxcar width: 0
Storing dark spectrum: false
XAxis mode: Wavelengths
Number of Pixels in Spectrum: 1024
>>>>>Begin Spectral Data<<<<<
801.071	28736
801.214	28721
801.356	28432
801.499	28390
801.641	28246
801.783	28257
801.926	28455
802.068	28481
802.211	28261
802.353	28230
802.496	28036
802.638	27945
802.78	27781
802.923	27873
803.065	27895
803.208	27956
803.35	27987
803.492	28147
803.635	28154
803.777	28154
803.919	28101
804.061	28470
804.204	28192
804.346	28116
804.488	28143
804.63	28333
804.773	28219
804.915	28318
805.057	28485
805.199	28215
805.341	28367
805.483	28440
805.626	28405
805.768	28303
805.91	28356
806.052	28451
806.194	28287
806.336	28577
806.478	28561
806.62	28466
806.762	28481
806.904	28668
807.046	28908
807.188	28748
807.33	28809
807.472	28858
807.614	28771
807.756	28866
807.898	28706
808.04	28668
808.182	28668
808.324	28687
808.465	28908
808.607	29025
808.749	29151
808.891	29227
809.033	29250
809.174	29105
809.316	29044
809.458	29159
809.6	28961
809.741	29254
809.883	29162
810.025	29345
810.166	29440
810.308	29398
810.45	29334
810.591	29288
810.733	29109
810.875	29105
811.016	29064
811.158	28991
811.299	29124
811.441	29368
811.582	29303
811.724	29220
811.865	29033
812.007	28976
812.148	29140
812.29	29265
812.431	29261
812.573	29379
812.714	29482
812.855	29642
812.997	29608
813.138	29745
813.279	29771
813.421	29707
813.562	29649
813.703	29368
813.845	29383
813.986	28987
814.127	28900
814.268	28763
814.41	28850
814.551	28725
814.692	28942
814.833	28793
814.974	28736
815.115	28854
815.256	28691
815.397	28733
815.539	28649
815.68	28577
815.821	28489
815.962	28592
816.103	28599
816.244	28618
816.385	28443
816.526	28314
816.666	28177
816.807	28143
816.948	28352
817.089	28337
817.23	28268
817.371	28101
817.512	28097
817.653	28025
817.793	28158
817.934	28021
818.075	28230
818.216	28086
818.356	28101
818.497	28044
818.638	27854
818.778	28025
818.919	27895
819.06	27956
819.2	28055
819.341	28143
819.481	28147
819.622	28310
819.762	28474
819.903	28424
820.043	28238
820.184	28177
820.324	28192
820.465	28287
820.605	28105
820.746	28356
820.886	28131
821.026	28325
821.167	28299
821.307	28280
821.447	28143
821.588	28116
821.728	27964
821.868	27827
822.008	27606
822.149	27637
822.289	27583
822.429	27359
822.569	27233
822.709	27405
822.849	27176
822.99	27230
823.13	27123
823.27	27157
823.41	26940
823.55	26800
823.69	26944
823.83	26986
823.97	26864
824.11	26735
824.25	26762
824.389	26777
824.529	26788
824.669	26765
824.809	26705
824.949	26811
825.089	26887
825.228	26705
825.368	26625
825.508	26636
825.648	26716
825.787	26750
825.927	26701
826.067	26678
826.206	26617
826.346	26613
826.485	26621
826.625	26613
826.765	26693
826.904	26636
827.044	26396
827.183	26419
827.323	26298
827.462	26438
827.601	26267
827.741	26358
827.88	26313
828.02	26225
828.159	26328
828.298	26381
828.437	26377
828.577	26305
828.716	26518
828.855	26298
828.994	26020
829.134	26046
829.273	26005
829.412	25993
829.551	25974
829.69	25928
829.829	25966
829.968	26081
830.107	26027
830.246	26046
830.385	25940
830.524	25966
830.663	25788
830.802	25712
830.941	25719
831.08	25601
831.219	25681
831.357	25696
831.496	25974
831.635	25537
831.774	25765
831.913	25445
832.051	25514
832.19	25514
832.329	25384
832.467	25335
832.606	25331
832.744	25339
832.883	25365
833.022	25263
833.16	25434
833.299	25441
833.437	25468
833.576	25518
833.714	25350
833.852	25445
833.991	25571
834.129	25434
834.267	25388
834.406	25426
834.544	25415
834.682	25388
834.821	25247
834.959	25548
835.097	25282
835.235	25339
835.373	25460
835.511	25373
835.65	25285
835.788	25183
835.926	25126
836.064	25072
836.202	25110
836.34	25076
836.478	25343
836.615	25122
836.753	25187
836.891	25274
837.029	25282
837.167	25194
837.305	25148
837.443	25148
837.58	25034
837.718	25069
837.856	25012
837.993	24954
838.131	24951
838.269	25008
838.406	24966
838.544	24871
838.681	24707
838.819	24601
838.956	24547
839.094	24456
839.231	24601
839.369	24544
839.506	24973
839.643	24749
839.781	24490
839.918	24376
840.055	24410
840.193	24471
840.33	24467
840.467	24456
840.604	24376
840.742	24745
840.879	24197
841.016	24350
841.153	24311
841.29	24342
841.427	24311
841.564	24448
841.701	24353
841.838	24289
841.975	24270
842.112	24292
842.249	24129
842.385	24289
842.522	24418
842.659	24190
842.796	24068
842.933	24201
843.069	24148
843.206	24117
843.343	24281
843.479	24152
843.616	24125
843.752	24022
843.889	23935
844.025	24083
844.162	23859
844.298	24041
844.435	24011
844.571	23893
844.708	23904
844.844	24015
844.98	24091
845.117	24060
845.253	23786
845.389	23783
845.525	23836
845.661	23802
845.798	23672
845.934	23756
846.07	23638
846.206	23703
846.342	23764
846.478	23497
846.614	23486
846.75	23330
846.886	23364
847.022	23398
847.158	23444
847.294	23452
847.429	23444
847.565	23372
847.701	23509
847.837	23121
847.972	23022
848.108	23246
848.244	23208
848.379	23113
848.515	23014
848.65	22942
848.786	22919
848.921	23189
849.057	23159
849.192	23166
849.328	23025
849.463	22991
849.598	22869
849.734	22908
849.869	22679
850.004	22744
850.14	22835
850.275	22885
850.41	22672
850.545	22687
850.68	22759
850.815	22839
850.95	22816
851.085	22995
851.22	22862
851.355	22725
851.49	22850
851.625	22774
851.76	22702
851.895	22611
852.03	22672
852.165	22691
852.299	22847
852.434	22816
852.569	22771
852.703	22797
852.838	22748
852.973	22824
853.107	22949
853.242	22706
853.376	22550
853.511	22367
853.645	22470
853.78	22763
853.914	22618
854.048	22630
854.183	22481
854.317	22710
854.451	22850
854.585	22531
854.72	22546
854.854	22733
854.988	22554
855.122	22584
855.256	22527
855.39	22603
855.524	22736
855.658	22592
855.792	22599
855.926	22599
856.06	22554
856.194	22713
856.327	22489
856.461	22516
856.595	22485
856.729	22535
856.862	22615
856.996	22660
857.13	22626
857.263	22683
857.397	22713
857.53	22645
857.664	22653
857.797	22634
857.931	22778
858.064	22580
858.197	22702
858.331	22634
858.464	22493
858.597	22508
858.731	22474
858.864	22592
858.997	22580
859.13	22607
859.263	22535
859.396	22649
859.529	22508
859.662	22580
859.795	22478
859.928	22557
860.061	22725
860.194	22835
860.327	22599
860.46	22660
860.592	22668
860.725	22710
860.858	22691
860.99	22634
861.123	22443
861.256	22542
861.388	22603
861.521	23299
861.653	22382
861.786	22246
861.918	22409
862.05	22447
862.183	22455
862.315	22599
862.447	22580
862.58	22538
862.712	22318
862.844	22253
862.976	22390
863.108	22310
863.24	22809
863.372	22295
863.504	22272
863.636	22287
863.768	22265
863.9	22360
864.032	22200
864.164	22284
864.296	22276
864.428	22447
864.559	22337
864.691	22303
864.823	22303
864.954	22280
865.086	22204
865.217	22154
865.349	22147
865.48	22207
865.612	22226
865.743	22261
865.875	22143
866.006	22128
866.137	22166
866.269	22173
866.4	22128
866.531	22070
866.662	22067
866.793	22044
866.924	22158
867.055	22082
867.186	22040
867.317	22051
867.448	21979
867.579	22101
867.71	22131
867.841	22006
867.972	21941
868.103	22078
868.233	22070
868.364	22101
868.495	22013
868.625	22405
868.756	22462
868.886	22135
869.017	22348
869.147	22447
869.278	22519
869.408	22371
869.539	22348
869.669	22531
869.799	22303
869.929	22478
870.06	22341
870.19	22592
870.32	22660
870.45	22599
870.58	22744
870.71	22816
870.84	22721
870.97	22793
871.1	22668
871.23	22889
871.36	22904
871.489	22717
871.619	22911
871.749	22965
871.879	23037
872.008	23064
872.138	22911
872.267	22904
872.397	22721
872.526	22694
872.656	22752
872.785	22824
872.915	22965
873.044	22976
873.173	22869
873.303	22930
873.432	22968
873.561	22915
873.69	23006
873.819	22908
873.948	23025
874.077	22904
874.206	22824
874.335	22995
874.464	23090
874.593	23197
874.722	23189
874.851	23212
874.979	23155
875.108	23204
875.237	22980
875.365	23094
875.494	23075
875.623	23181
875.751	23239
875.88	23185
876.008	23197
876.136	23387
876.265	23562
876.393	23733
876.521	23684
876.65	23531
876.778	23619
876.906	23425
877.034	23436
877.162	23402
877.29	23421
877.418	23474
877.546	23417
877.674	23505
877.802	23604
877.93	23452
878.058	23471
878.185	23402
878.313	23459
878.441	23433
878.568	23299
878.696	23440
878.824	23634
878.951	23672
879.079	23604
879.206	23699
879.333	23726
879.461	23482
879.588	23573
879.715	23646
879.842	23775
879.97	23573
880.097	23444
880.224	23364
880.351	23376
880.478	23402
880.605	23318
880.732	23307
880.859	23455
880.986	23330
881.112	23372
881.239	23227
881.366	23060
881.493	22942
881.619	22866
881.746	23014
881.872	22869
881.999	22949
882.125	22778
882.252	22839
882.378	22816
882.505	22930
882.631	22733
882.757	22668
882.883	22577
883.01	22554
883.136	22470
883.262	22398
883.388	22325
883.514	22550
883.64	22577
883.766	22527
883.892	22249
884.018	22322
884.143	22417
884.269	22527
884.395	22154
884.52	22192
884.646	22261
884.772	22105
884.897	22196
885.023	22223
885.148	22287
885.274	22306
885.399	22230
885.524	22322
885.65	22318
885.775	22139
885.9	22257
886.025	22344
886.15	22306
886.275	22120
886.4	21991
886.525	22166
886.65	22135
886.775	22070
886.9	22249
887.025	22466
887.149	22173
887.274	21911
887.399	22006
887.523	21899
887.648	21994
887.773	21892
887.897	22010
888.021	21968
888.146	21793
888.27	22021
888.395	22105
888.519	21937
888.643	21937
888.767	21892
888.891	21953
889.015	21663
889.139	21804
889.263	21652
889.387	21785
889.511	21941
889.635	21827
889.759	21701
889.883	21633
890.006	21759
890.13	21686
890.254	21675
890.377	21675
890.501	21492
890.624	21462
890.748	21431
890.871	21329
890.995	21363
891.118	21237
891.241	21344
891.364	21336
891.488	21272
891.611	21222
891.734	21226
891.857	21332
891.98	21233
892.103	21233
892.226	21199
892.349	21165
892.471	20990
892.594	21344
892.717	21245
892.839	21184
892.962	21287
893.085	21260
893.207	21112
893.33	21028
893.452	21070
893.575	21256
893.697	21089
893.819	21355
893.941	21325
894.064	21279
894.186	21047
894.308	21081
894.43	21317
894.552	21382
894.674	21268
894.796	21077
894.918	21028
895.04	21096
895.161	21214
895.283	21207
895.405	21085
895.526	21325
895.648	21131
895.769	21195
895.891	21173
896.012	21256
896.134	21154
896.255	21108
896.376	21043
896.498	21252
896.619	21070
896.74	21127
896.861	21237
896.982	21466
897.103	21477
897.224	21393
897.345	21298
897.466	21165
897.587	21203
897.708	21492
897.828	21405
897.949	21291
898.07	21260
898.19	21256
898.311	21428
898.431	21260
898.552	21294
898.672	21336
898.792	21332
898.913	21363
899.033	21302
899.153	21184
899.273	20982
899.393	21100
899.513	21119
899.633	21093
899.753	21138
899.873	20963
899.993	21203
900.113	21017
900.232	21039
900.352	20754
900.472	20819
900.591	20830
900.711	20826
900.83	20678
900.95	20975
901.069	20986
901.189	20857
901.308	20537
901.427	20336
901.546	20389
901.665	20400
901.784	20377
901.904	20275
902.023	20153
902.141	20096
902.26	19864
902.379	19989
902.498	19909
902.617	19955
902.735	19982
902.854	19864
902.973	19818
903.091	19624
903.21	19464
903.328	19518
903.446	19453
903.565	19445
903.683	19350
903.801	19232
903.919	19251
904.038	19339
904.156	19133
904.274	19198
904.392	19168
904.51	19126
904.627	19057
904.745	19126
904.863	19179
904.981	18909
905.098	18798
905.216	18738
905.334	18753
905.451	18825
905.569	18810
905.686	18783
905.803	18715
905.921	18525
906.038	18681
906.155	18597
906.272	18388
906.389	18441
906.506	18388
906.623	18281
906.74	18285
906.857	18171
906.974	18220
907.091	18452
907.208	18464
907.324	18391
907.441	18140
907.557	17996
907.674	18114
907.79	17897
907.907	18121
908.023	18060
908.139	18026
908.256	17935
908.372	17824
908.488	17969
908.604	17908
908.72	17691
908.836	17859
908.952	17726
909.068	17726
909.184	17802
909.3	17653
909.415	17790
909.531	17726
909.647	17490
909.762	17429
909.878	17433
909.993	17444
910.108	17376
910.224	17356
910.339	17395
910.454	17296
910.57	17315
910.685	17250
910.8	17493
910.915	17383
911.03	17136
911.145	17010
911.259	16889
911.374	16866
911.489	16919
911.604	16972
911.718	16759
911.833	16752
911.947	16706
912.062	16607
912.176	16778
912.291	16706
912.405	16752
912.519	16915
912.633	16892
912.748	16759
912.862	16729
912.976	16592
913.09	16402
913.204	16519
913.318	16516
913.431	16672
913.545	16607
913.659	16721
913.772	16447
913.886	16356
914	16257
914.113	16485
914.226	16447
914.34	16284
914.453	16242
914.566	16409
914.68	16200
914.793	16268
914.906	16017
915.019	16010
915.132	15899
915.245	15884
915.358	15956
915.47	15953
915.583	15884
915.696	15960
915.809	16021
915.921	16029
916.034	15949
916.146	15869
916.259	15701
916.371	15846
916.483	16002
916.595	15717
916.708	15694
916.82	15751
916.932	15637
917.044	15686
917.156	15656
917.268	15545
917.38	15580
917.491	15443
917.603	15477
917.715	15629
917.826	15648
917.938	15386
918.049	15359
918.161	15526
918.272	15542
918.384	15572
918.495	15386
918.606	15329
918.717	15325
918.828	15340
918.939	15279
919.05	15268
919.161	15268
919.272	15062
919.383	15241
919.494	15298
919.604	15405
919.715	15287
919.826	15188
919.936	15218
920.047	15272
920.157	15195
920.267	15374
920.378	15256
920.488	15195
920.598	15378
920.708	15519
920.818	15344
920.928	15298
921.038	15488
921.148	15481
921.258	15089
921.368	15074
921.477	15001
921.587	15024
921.697	14731
921.806	14960
921.916	14823
922.025	14644
922.134	14613
922.244	14575
922.353	14663
922.462	14488
922.571	14393
922.68	14301
922.789	14294
922.898	14263
923.007	14130
923.116	14267
923.224	14161
923.333	14172
923.442	14130
923.55	14084
923.659	14046
923.767	14126
923.876	13951
923.984	13978
924.092	13959
924.201	13928
924.309	13860
924.417	13955
924.525	13871
924.633	13871
924.741	14785
924.849	13655
924.956	13757
925.064	13643
925.172	13445
925.279	13567
925.387	13613
925.494	13620
925.602	13788
925.709	13674
925.816	13441
925.924	13586
926.031	13563
926.138	13636
926.245	13544
926.352	13472
926.459	13559
926.566	13575
926.673	13434
926.779	13331
926.886	13293
926.993	13175
927.099	13175
927.206	13084
927.312	13126
927.419	13190
927.525	13164
927.631	13053
927.737	13061
927.843	12928
927.95	12814
928.056	12894
928.162	12920
928.267	13015
928.373	13594
928.479	13004
928.585	12817
928.69	12943
928.796	12962
928.901	12810
929.007	12673
929.112	12681
929.218	12783
929.323	12646
929.428	12650
929.533	12779
929.638	12532
929.743	12642
929.848	12574
929.953	12570
930.058	12525
930.163	12372
930.267	12399
930.372	12483
930.477	12281
930.581	12620
930.685	12357
930.79	12209
930.894	12205
930.998	12159
931.103	12281
931.207	11916
931.311	11939
931.415	11874
931.519	11611
931.623	11554
