Data from test_V78500241_3173.txt Node
Date: Fri Mar 25 16:03:46 CST 2022
User: usil
Spectrometer: V785-0024
Trigger mode: 0
Integration Time (sec): 4.000000E-1
Scans to average: 1
Nonlinearity correction enabled: false
Boxcar width: 0
Storing dark spectrum: false
XAxis mode: Wavelengths
Number of Pixels in Spectrum: 1024
>>>>>Begin Spectral Data<<<<<
801.071	28565
801.214	28531
801.356	28337
801.499	28306
801.641	28188
801.783	28242
801.926	28253
802.068	28268
802.211	28105
802.353	28169
802.496	27808
802.638	27808
802.78	27873
802.923	27812
803.065	27690
803.208	27831
803.35	27850
803.492	27956
803.635	28162
803.777	28017
803.919	27991
804.061	28417
804.204	28154
804.346	28139
804.488	28078
804.63	28025
804.773	28055
804.915	28166
805.057	28150
805.199	28268
805.341	28223
805.483	28375
805.626	28154
805.768	28181
805.91	28268
806.052	28310
806.194	28341
806.336	28466
806.478	28204
806.62	28284
806.762	28337
806.904	28626
807.046	28843
807.188	28831
807.33	28634
807.472	28717
807.614	28626
807.756	28771
807.898	28599
808.04	28421
808.182	28535
808.324	28596
808.465	28675
808.607	28835
808.749	29025
808.891	29132
809.033	29147
809.174	29159
809.316	28961
809.458	28915
809.6	28835
809.741	28965
809.883	29025
810.025	29379
810.166	29204
810.308	29261
810.45	29254
810.591	29212
810.733	29075
810.875	28934
811.016	28991
811.158	28885
811.299	28942
811.441	29117
811.582	29136
811.724	29003
811.865	29113
812.007	28946
812.148	28995
812.29	29090
812.431	29143
812.573	29474
812.714	29375
812.855	29531
812.997	29676
813.138	29657
813.279	29646
813.421	29619
813.562	29337
813.703	29410
813.845	29337
813.986	28968
814.127	28767
814.268	28748
814.41	28561
814.551	28679
814.692	28725
814.833	28615
814.974	28706
815.115	28733
815.256	28679
815.397	28580
815.539	28508
815.68	28550
815.821	28322
815.962	28485
816.103	28603
816.244	28284
816.385	28363
816.526	28188
816.666	28116
816.807	27884
816.948	28044
817.089	28101
817.23	27949
817.371	27968
817.512	28029
817.653	28021
817.793	27953
817.934	27972
818.075	28017
818.216	27926
818.356	27998
818.497	27766
818.638	27823
818.778	27873
818.919	27732
819.06	27819
819.2	27835
819.341	28090
819.481	28063
819.622	28124
819.762	28455
819.903	28257
820.043	28139
820.184	28268
820.324	28131
820.465	28169
820.605	28040
820.746	28063
820.886	28044
821.026	28143
821.167	28128
821.307	28067
821.447	28017
821.588	28013
821.728	27861
821.868	27652
822.008	27477
822.149	27534
822.289	27568
822.429	27226
822.569	27173
822.709	27233
822.849	27089
822.99	26979
823.13	26929
823.27	26906
823.41	26807
823.55	26606
823.69	26830
823.83	26876
823.97	26826
824.11	26549
824.25	26777
824.389	26587
824.529	26701
824.669	26625
824.809	26663
824.949	26765
825.089	26788
825.228	26625
825.368	26556
825.508	26549
825.648	26587
825.787	26499
825.927	26609
826.067	26495
826.206	26549
826.346	26568
826.485	26583
826.625	26625
826.765	26511
826.904	26453
827.044	26415
827.183	26377
827.323	26271
827.462	26408
827.601	26202
827.741	26180
827.88	26301
828.02	26225
828.159	26145
828.298	26088
828.437	26271
828.577	26206
828.716	26423
828.855	25982
828.994	25875
829.134	26024
829.273	26020
829.412	25917
829.551	25902
829.69	25959
829.829	25936
829.968	26035
830.107	26126
830.246	26043
830.385	25788
830.524	25906
830.663	25704
830.802	25719
830.941	25441
831.08	25521
831.219	25491
831.357	25700
831.496	25833
831.635	25358
831.774	25381
831.913	25392
832.051	25422
832.19	25228
832.329	25343
832.467	25209
832.606	24947
832.744	25107
832.883	25126
833.022	25160
833.16	25126
833.299	25327
833.437	25244
833.576	25236
833.714	25228
833.852	25392
833.991	25381
834.129	25350
834.267	25282
834.406	25274
834.544	25320
834.682	25221
834.821	25236
834.959	25270
835.097	25217
835.235	25244
835.373	25312
835.511	25426
835.65	25255
835.788	25194
835.926	25008
836.064	24909
836.202	24844
836.34	24985
836.478	25171
836.615	25168
836.753	25038
836.891	25129
837.029	25145
837.167	25065
837.305	25015
837.443	24962
837.58	24989
837.718	24875
837.856	24954
837.993	24992
838.131	24966
838.269	24829
838.406	24707
838.544	24669
838.681	24601
838.819	24448
838.956	24410
839.094	24399
839.231	24513
839.369	24566
839.506	24688
839.643	24684
839.781	24410
839.918	24418
840.055	24422
840.193	24224
840.33	24273
840.467	24304
840.604	24346
840.742	24559
840.879	24182
841.016	24270
841.153	24098
841.29	24277
841.427	24281
841.564	24365
841.701	24330
841.838	24262
841.975	24213
842.112	24235
842.249	24079
842.385	24091
842.522	24315
842.659	24072
842.796	24083
842.933	24087
843.069	23973
843.206	23904
843.343	24209
843.479	24011
843.616	24114
843.752	23851
843.889	23851
844.025	23996
844.162	23912
844.298	23973
844.435	23783
844.571	23802
844.708	23866
844.844	24018
844.98	23923
845.117	23870
845.253	23798
845.389	23634
845.525	23592
845.661	23726
845.798	23592
845.934	23649
846.07	23509
846.206	23710
846.342	23665
846.478	23531
846.614	23299
846.75	23265
846.886	23337
847.022	23284
847.158	23231
847.294	23318
847.429	23322
847.565	23231
847.701	23425
847.837	22961
847.972	22972
848.108	23204
848.244	23060
848.379	22946
848.515	22923
848.65	22733
848.786	22839
848.921	22949
849.057	23014
849.192	22968
849.328	22885
849.463	22790
849.598	22805
849.734	22774
849.869	22744
850.004	22691
850.14	22744
850.275	22660
850.41	22527
850.545	22569
850.68	22641
850.815	22736
850.95	22546
851.085	22889
851.22	22668
851.355	22580
851.49	22679
851.625	22649
851.76	22584
851.895	22603
852.03	22561
852.165	22672
852.299	22706
852.434	22702
852.569	22752
852.703	22630
852.838	22580
852.973	22771
853.107	22733
853.242	22626
853.376	22443
853.511	22341
853.645	22360
853.78	22440
853.914	22519
854.048	22405
854.183	22493
854.317	22462
854.451	22694
854.585	22500
854.72	22485
854.854	22481
854.988	22413
855.122	22489
855.256	22303
855.39	22443
855.524	22561
855.658	22546
855.792	22466
855.926	22371
856.06	22599
856.194	22603
856.327	22443
856.461	22432
856.595	22428
856.729	22481
856.862	22527
856.996	22481
857.13	22542
857.263	22557
857.397	22538
857.53	22451
857.664	22493
857.797	22668
857.931	22580
858.064	22455
858.197	22538
858.331	22333
858.464	22367
858.597	22371
858.731	22436
858.864	22523
858.997	22284
859.13	22565
859.263	22622
859.396	22596
859.529	22382
859.662	22485
859.795	22493
859.928	22516
860.061	22649
860.194	22675
860.327	22504
860.46	22577
860.592	22588
860.725	22698
860.858	22599
860.99	22291
861.123	22398
861.256	22481
861.388	22497
861.521	23277
861.653	22375
861.786	22249
861.918	22211
862.05	22356
862.183	22291
862.315	22478
862.447	22474
862.58	22440
862.712	22272
862.844	22185
862.976	22322
863.108	22299
863.24	22649
863.372	22268
863.504	22344
863.636	22177
863.768	22173
863.9	22112
864.032	22200
864.164	22169
864.296	22185
864.428	22261
864.559	22287
864.691	22139
864.823	22196
864.954	22177
865.086	22238
865.217	22112
865.349	22090
865.48	22112
865.612	21991
865.743	22238
865.875	22185
866.006	22097
866.137	22048
866.269	22112
866.4	22101
866.531	22036
866.662	22074
866.793	21991
866.924	21991
867.055	22051
867.186	22070
867.317	22021
867.448	21876
867.579	21937
867.71	21960
867.841	21949
867.972	22139
868.103	22013
868.233	21994
868.364	22051
868.495	22154
868.625	22128
868.756	22230
868.886	22207
869.017	22162
869.147	22344
869.278	22409
869.408	22238
869.539	22181
869.669	22303
869.799	22348
869.929	22440
870.06	22329
870.19	22550
870.32	22478
870.45	22611
870.58	22599
870.71	22721
870.84	22729
870.97	22725
871.1	22607
871.23	22869
871.36	22858
871.489	22786
871.619	22771
871.749	22809
871.879	22904
872.008	22923
872.138	22965
872.267	22927
872.397	22721
872.526	22649
872.656	22752
872.785	22812
872.915	22885
873.044	22873
873.173	22881
873.303	22942
873.432	22995
873.561	23006
873.69	22866
873.819	22881
873.948	22949
874.077	22828
874.206	22911
874.335	22862
874.464	22938
874.593	22972
874.722	23022
874.851	23105
874.979	23151
875.108	23143
875.237	23056
875.365	22923
875.494	22923
875.623	23208
875.751	23067
875.88	23140
876.008	23315
876.136	23254
876.265	23459
876.393	23672
876.521	23524
876.65	23516
876.778	23562
876.906	23410
877.034	23379
877.162	23455
877.29	23356
877.418	23383
877.546	23402
877.674	23577
877.802	23421
877.93	23448
878.058	23254
878.185	23414
878.313	23452
878.441	23383
878.568	23269
878.696	23398
878.824	23463
878.951	23505
879.079	23627
879.206	23703
879.333	23516
879.461	23490
879.588	23406
879.715	23623
879.842	23722
879.97	23535
880.097	23242
880.224	23246
880.351	23208
880.478	23159
880.605	23090
880.732	23334
880.859	23414
880.986	23265
881.112	23197
881.239	23083
881.366	22976
881.493	22946
881.619	22816
881.746	22961
881.872	22824
881.999	22733
882.125	22706
882.252	22869
882.378	22869
882.505	22778
882.631	22687
882.757	22443
882.883	22512
883.01	22554
883.136	22417
883.262	22413
883.388	22318
883.514	22470
883.64	22546
883.766	22352
883.892	22207
884.018	22375
884.143	22500
884.269	22367
884.395	22173
884.52	22150
884.646	22135
884.772	22082
884.897	22051
885.023	22112
885.148	22192
885.274	22341
885.399	22295
885.524	22128
885.65	22139
885.775	22109
885.9	22150
886.025	22200
886.15	22150
886.275	22002
886.4	22021
886.525	22059
886.65	22002
886.775	22059
886.9	22112
887.025	22223
887.149	22086
887.274	21953
887.399	21911
887.523	21892
887.648	21751
887.773	21781
887.897	21899
888.021	21880
888.146	21842
888.27	22097
888.395	21915
888.519	22002
888.643	21949
888.767	21797
888.891	21766
889.015	21759
889.139	21751
889.263	21587
889.387	21732
889.511	21903
889.635	21880
889.759	21583
889.883	21713
890.006	21755
890.13	21778
890.254	21580
890.377	21583
890.501	21367
890.624	21344
890.748	21477
890.871	21344
890.995	21176
891.118	21066
891.241	21287
891.364	21256
891.488	21279
891.611	21256
891.734	21218
891.857	21260
891.98	21203
892.103	21176
892.226	21241
892.349	21043
892.471	21108
892.594	21131
892.717	21161
892.839	21112
892.962	21211
893.085	21070
893.207	21123
893.33	21036
893.452	21005
893.575	21089
893.697	21066
893.819	21272
893.941	21363
894.064	21165
894.186	20982
894.308	21005
894.43	21283
894.552	21279
894.674	21192
894.796	21077
894.918	20971
895.04	21047
895.161	21138
895.283	21116
895.405	20990
895.526	21184
895.648	21104
895.769	21138
895.891	21085
896.012	21104
896.134	21077
896.255	21077
896.376	21112
896.498	21085
896.619	20975
896.74	21104
896.861	21127
896.982	21469
897.103	21408
897.224	21420
897.345	21351
897.466	21332
897.587	21222
897.708	21439
897.828	21321
897.949	21085
898.07	21077
898.19	21252
898.311	21420
898.431	21241
898.552	21317
898.672	21329
898.792	21393
898.913	21348
899.033	21146
899.153	21062
899.273	20998
899.393	20975
899.513	20952
899.633	21001
899.753	21047
899.873	20971
899.993	21005
900.113	20960
900.232	20990
900.352	21028
900.472	20864
900.591	20762
900.711	20769
900.83	20815
900.95	20941
901.069	20800
901.189	20590
901.308	20404
901.427	20256
901.546	20396
901.665	20381
901.784	20358
901.904	20187
902.023	20199
902.141	19936
902.26	19921
902.379	19986
902.498	19902
902.617	19887
902.735	19871
902.854	19875
902.973	19811
903.091	19575
903.21	19327
903.328	19506
903.446	19377
903.565	19365
903.683	19251
903.801	19251
903.919	19362
904.038	19377
904.156	19190
904.274	19126
904.392	18993
904.51	19084
904.627	18954
904.745	19095
904.863	19034
904.981	18932
905.098	18867
905.216	18821
905.334	18783
905.451	18783
905.569	18635
905.686	18745
905.803	18601
905.921	18623
906.038	18536
906.155	18544
906.272	18414
906.389	18365
906.506	18216
906.623	18262
906.74	18216
906.857	18060
906.974	18155
907.091	18334
907.208	18414
907.324	18224
907.441	18129
907.557	17958
907.674	17942
907.79	17927
907.907	17843
908.023	17999
908.139	17828
908.256	17897
908.372	17832
908.488	17813
908.604	17729
908.72	17638
908.836	17718
908.952	17627
909.068	17703
909.184	17779
909.3	17680
909.415	17707
909.531	17604
909.647	17474
909.762	17395
909.878	17349
909.993	17341
910.108	17284
910.224	17417
910.339	17425
910.454	17159
910.57	17204
910.685	17117
910.8	17372
910.915	17368
911.03	17140
911.145	17052
911.259	17060
911.374	16896
911.489	16896
911.604	16782
911.718	16694
911.833	16717
911.947	16527
912.062	16538
912.176	16675
912.291	16721
912.405	16653
912.519	16824
912.633	16911
912.748	16668
912.862	16615
912.976	16508
913.09	16424
913.204	16462
913.318	16558
913.431	16462
913.545	16694
913.659	16641
913.772	16474
913.886	16325
914	16257
914.113	16306
914.226	16363
914.34	16337
914.453	16200
914.566	16234
914.68	16124
914.793	16101
914.906	15968
915.019	16017
915.132	15736
915.245	15949
915.358	15755
915.47	15880
915.583	15892
915.696	15865
915.809	15899
915.921	15888
916.034	15903
916.146	15842
916.259	15770
916.371	15915
916.483	15846
916.595	15675
916.708	15667
916.82	15625
916.932	15549
917.044	15686
917.156	15709
917.268	15462
917.38	15545
917.491	15492
917.603	15500
917.715	15606
917.826	15492
917.938	15370
918.049	15306
918.161	15500
918.272	15504
918.384	15515
918.495	15443
918.606	15279
918.717	15199
918.828	15275
918.939	15226
919.05	15173
919.161	15294
919.272	14963
919.383	15100
919.494	15241
919.604	15443
919.715	15180
919.826	15131
919.936	15108
920.047	15214
920.157	15214
920.267	15408
920.378	15192
920.488	15199
920.598	15359
920.708	15507
920.818	15306
920.928	15340
921.038	15424
921.148	15389
921.258	15226
921.368	15070
921.477	14857
921.587	14895
921.697	14762
921.806	14986
921.916	14686
922.025	14579
922.134	14590
922.244	14499
922.353	14625
922.462	14465
922.571	14298
922.68	14286
922.789	14233
922.898	14115
923.007	14191
923.116	14161
923.224	14115
923.333	14119
923.442	13986
923.55	14062
923.659	13970
923.767	14142
923.876	13932
923.984	13974
924.092	13925
924.201	13871
924.309	13837
924.417	13879
924.525	13826
924.633	13761
924.741	14587
924.849	13578
924.956	13620
925.064	13643
925.172	13537
925.279	13548
925.387	13594
925.494	13556
925.602	13811
925.709	13609
925.816	13491
925.924	13567
926.031	13620
926.138	13514
926.245	13578
926.352	13381
926.459	13533
926.566	13499
926.673	13403
926.779	13304
926.886	13297
926.993	13133
927.099	13122
927.206	13107
927.312	13065
927.419	13175
927.525	13103
927.631	13114
927.737	13008
927.843	13000
927.95	12776
928.056	12905
928.162	12973
928.267	12901
928.373	13563
928.479	13057
928.585	12764
928.69	12837
928.796	12939
928.901	12776
929.007	12662
929.112	12848
929.218	12768
929.323	12730
929.428	12734
929.533	12749
929.638	12639
929.743	12589
929.848	12627
929.953	12646
930.058	12513
930.163	12304
930.267	12338
930.372	12490
930.477	12304
930.581	12506
930.685	12376
930.79	12270
930.894	12197
930.998	12163
931.103	12346
931.207	11954
931.311	11851
931.415	11805
931.519	11596
931.623	11482
