Data from test_V78500241_2950.txt Node
Date: Fri Mar 25 16:02:14 CST 2022
User: usil
Spectrometer: V785-0024
Trigger mode: 0
Integration Time (sec): 4.000000E-1
Scans to average: 1
Nonlinearity correction enabled: false
Boxcar width: 0
Storing dark spectrum: false
XAxis mode: Wavelengths
Number of Pixels in Spectrum: 1024
>>>>>Begin Spectral Data<<<<<
801.071	28778
801.214	28786
801.356	28523
801.499	28470
801.641	28485
801.783	28295
801.926	28462
802.068	28440
802.211	28413
802.353	28158
802.496	28188
802.638	28139
802.78	28059
802.923	27926
803.065	27907
803.208	28044
803.35	28188
803.492	28207
803.635	28314
803.777	28215
803.919	28207
804.061	28622
804.204	28382
804.346	28363
804.488	28196
804.63	28280
804.773	28421
804.915	28504
805.057	28478
805.199	28348
805.341	28401
805.483	28500
805.626	28516
805.768	28386
805.91	28356
806.052	28588
806.194	28356
806.336	28679
806.478	28573
806.62	28531
806.762	28675
806.904	28809
807.046	29071
807.188	28949
807.33	28866
807.472	28995
807.614	28755
807.756	28854
807.898	28790
808.04	28759
808.182	28847
808.324	28793
808.465	28873
808.607	29044
808.749	29140
808.891	29189
809.033	29463
809.174	29181
809.316	29254
809.458	29098
809.6	29212
809.741	29273
809.883	29132
810.025	29414
810.166	29474
810.308	29478
810.45	29345
810.591	29387
810.733	29181
810.875	29280
811.016	29041
811.158	29086
811.299	29265
811.441	29326
811.582	29345
811.724	29235
811.865	29162
812.007	29254
812.148	29216
812.29	29155
812.431	29604
812.573	29570
812.714	29661
812.855	29882
812.997	29703
813.138	29859
813.279	29885
813.421	29684
813.562	29802
813.703	29589
813.845	29398
813.986	29105
814.127	29056
814.268	28934
814.41	29014
814.551	28828
814.692	28965
814.833	28984
814.974	28771
815.115	29014
815.256	28812
815.397	28793
815.539	28843
815.68	28771
815.821	28653
815.962	28588
816.103	28675
816.244	28535
816.385	28497
816.526	28485
816.666	28413
816.807	28135
816.948	28390
817.089	28234
817.23	28314
817.371	28276
817.512	28234
817.653	28173
817.793	28112
817.934	28185
818.075	28287
818.216	28306
818.356	28147
818.497	28055
818.638	27964
818.778	28010
818.919	28044
819.06	28002
819.2	28185
819.341	28188
819.481	28284
819.622	28401
819.762	28577
819.903	28554
820.043	28497
820.184	28470
820.324	28382
820.465	28413
820.605	28360
820.746	28390
820.886	28143
821.026	28295
821.167	28261
821.307	28371
821.447	28196
821.588	28021
821.728	28063
821.868	27968
822.008	27728
822.149	27698
822.289	27778
822.429	27500
822.569	27473
822.709	27435
822.849	27218
822.99	27165
823.13	27146
823.27	27150
823.41	26998
823.55	27028
823.69	27093
823.83	27039
823.97	27009
824.11	26819
824.25	26853
824.389	26994
824.529	26990
824.669	26921
824.809	27028
824.949	26940
825.089	26979
825.228	26849
825.368	26750
825.508	26644
825.648	26815
825.787	26857
825.927	26788
826.067	26746
826.206	26648
826.346	26750
826.485	26765
826.625	26739
826.765	26944
826.904	26899
827.044	26560
827.183	26473
827.323	26453
827.462	26629
827.601	26514
827.741	26461
827.88	26476
828.02	26225
828.159	26385
828.298	26419
828.437	26621
828.577	26385
828.716	26366
828.855	26415
828.994	26157
829.134	26164
829.273	26225
829.412	26016
829.551	26153
829.69	26107
829.829	26001
829.968	26187
830.107	26252
830.246	26130
830.385	26081
830.524	26103
830.663	26012
830.802	25986
830.941	25932
831.08	25753
831.219	25894
831.357	25776
831.496	26050
831.635	25761
831.774	25715
831.913	25620
832.051	25651
832.19	25510
832.329	25525
832.467	25548
832.606	25441
832.744	25331
832.883	25388
833.022	25521
833.16	25533
833.299	25373
833.437	25483
833.576	25525
833.714	25525
833.852	25578
833.991	25575
834.129	25658
834.267	25613
834.406	25544
834.544	25479
834.682	25533
834.821	25464
834.959	25635
835.097	25392
835.235	25578
835.373	25525
835.511	25438
835.65	25327
835.788	25396
835.926	25141
836.064	25129
836.202	25137
836.34	25304
836.478	25460
836.615	25335
836.753	25354
836.891	25339
837.029	25270
837.167	25236
837.305	25171
837.443	25133
837.58	25050
837.718	25183
837.856	25221
837.993	25118
838.131	25190
838.269	24935
838.406	25099
838.544	25023
838.681	24928
838.819	24768
838.956	24661
839.094	24661
839.231	24627
839.369	24837
839.506	24958
839.643	24882
839.781	24570
839.918	24563
840.055	24578
840.193	24646
840.33	24642
840.467	24547
840.604	24563
840.742	24844
840.879	24422
841.016	24509
841.153	24311
841.29	24597
841.427	24551
841.564	24635
841.701	24547
841.838	24483
841.975	24330
842.112	24479
842.249	24289
842.385	24213
842.522	24612
842.659	24445
842.796	24315
842.933	24266
843.069	24220
843.206	24235
843.343	24353
843.479	24201
843.616	24304
843.752	24060
843.889	24083
844.025	24144
844.162	24174
844.298	24194
844.435	24057
844.571	23912
844.708	24007
844.844	24136
844.98	24194
845.117	24144
845.253	23973
845.389	23870
845.525	23969
845.661	23897
845.798	23718
845.934	23885
846.07	23767
846.206	23923
846.342	23863
846.478	23665
846.614	23528
846.75	23417
846.886	23543
847.022	23402
847.158	23493
847.294	23570
847.429	23524
847.565	23486
847.701	23752
847.837	23315
847.972	23136
848.108	23337
848.244	23254
848.379	23094
848.515	23075
848.65	23117
848.786	23006
848.921	23094
849.057	23345
849.192	23197
849.328	23132
849.463	23067
849.598	22972
849.734	23162
849.869	23022
850.004	22866
850.14	22938
850.275	22805
850.41	22694
850.545	22820
850.68	22839
850.815	22987
850.95	23010
851.085	23025
851.22	22995
851.355	22820
851.49	22809
851.625	22721
851.76	22892
851.895	22790
852.03	22805
852.165	22858
852.299	22862
852.434	22908
852.569	22881
852.703	22752
852.838	22904
852.973	22896
853.107	22938
853.242	22713
853.376	22786
853.511	22641
853.645	22649
853.78	22809
853.914	22656
854.048	22493
854.183	22759
854.317	22706
854.451	22839
854.585	22691
854.72	22713
854.854	22782
854.988	22546
855.122	22721
855.256	22584
855.39	22774
855.524	22675
855.658	22767
855.792	22854
855.926	22607
856.06	22675
856.194	22786
856.327	22550
856.461	22550
856.595	22497
856.729	22474
856.862	22740
856.996	22748
857.13	22828
857.263	22782
857.397	22797
857.53	22729
857.664	22843
857.797	22637
857.931	22816
858.064	22683
858.197	22824
858.331	22622
858.464	22557
858.597	22641
858.731	22577
858.864	22603
858.997	22721
859.13	22641
859.263	22702
859.396	22717
859.529	22729
859.662	22497
859.795	22615
859.928	22622
860.061	22816
860.194	22968
860.327	22596
860.46	22637
860.592	22854
860.725	22812
860.858	22679
860.99	22607
861.123	22713
861.256	22550
861.388	22557
861.521	23486
861.653	22462
861.786	22512
861.918	22508
862.05	22596
862.183	22554
862.315	22607
862.447	22694
862.58	22565
862.712	22394
862.844	22360
862.976	22459
863.108	22478
863.24	22809
863.372	22284
863.504	22356
863.636	22493
863.768	22394
863.9	22413
864.032	22382
864.164	22352
864.296	22417
864.428	22550
864.559	22447
864.691	22481
864.823	22466
864.954	22265
865.086	22375
865.217	22253
865.349	22139
865.48	22223
865.612	22177
865.743	22272
865.875	22333
866.006	22219
866.137	22128
866.269	22128
866.4	22143
866.531	22143
866.662	22097
866.793	22105
866.924	22253
867.055	22226
867.186	22188
867.317	22173
867.448	22173
867.579	22150
867.71	22116
867.841	22006
867.972	22226
868.103	22169
868.233	22116
868.364	22185
868.495	22276
868.625	22291
868.756	22398
868.886	22299
869.017	22455
869.147	22375
869.278	22577
869.408	22424
869.539	22470
869.669	22508
869.799	22538
869.929	22516
870.06	22569
870.19	22748
870.32	22771
870.45	22691
870.58	22820
870.71	22930
870.84	22972
870.97	22736
871.1	22885
871.23	22900
871.36	22987
871.489	23048
871.619	23060
871.749	22911
871.879	23109
872.008	23083
872.138	22987
872.267	23197
872.397	22873
872.526	22824
872.656	22900
872.785	22904
872.915	23147
873.044	23189
873.173	23124
873.303	23018
873.432	23185
873.561	23250
873.69	23124
873.819	23018
873.948	23079
874.077	23071
874.206	23052
874.335	22995
874.464	23166
874.593	23296
874.722	23227
874.851	23242
874.979	23231
875.108	23356
875.237	23250
875.365	23090
875.494	23277
875.623	23467
875.751	23174
875.88	23258
876.008	23265
876.136	23478
876.265	23554
876.393	23703
876.521	23714
876.65	23699
876.778	23748
876.906	23589
877.034	23490
877.162	23619
877.29	23585
877.418	23566
877.546	23543
877.674	23406
877.802	23623
877.93	23543
878.058	23566
878.185	23524
878.313	23547
878.441	23471
878.568	23455
878.696	23562
878.824	23687
878.951	23665
879.079	23817
879.206	23828
879.333	23885
879.461	23589
879.588	23703
879.715	23817
879.842	23885
879.97	23634
880.097	23516
880.224	23421
880.351	23459
880.478	23596
880.605	23353
880.732	23478
880.859	23653
880.986	23284
881.112	23410
881.239	23242
881.366	23208
881.493	23067
881.619	22946
881.746	22896
881.872	22968
881.999	22866
882.125	22900
882.252	23090
882.378	22923
882.505	23079
882.631	22889
882.757	22668
882.883	22660
883.01	22763
883.136	22519
883.262	22443
883.388	22493
883.514	22611
883.64	22744
883.766	22599
883.892	22352
884.018	22405
884.143	22573
884.269	22668
884.395	22382
884.52	22295
884.646	22337
884.772	22063
884.897	22097
885.023	22280
885.148	22318
885.274	22325
885.399	22356
885.524	22139
885.65	22246
885.775	22325
885.9	22158
886.025	22341
886.15	22287
886.275	22299
886.4	22230
886.525	22169
886.65	22158
886.775	22246
886.9	22367
887.025	22459
887.149	22253
887.274	22048
887.399	22067
887.523	22017
887.648	21956
887.773	21911
887.897	22029
888.021	22044
888.146	21888
888.27	22097
888.395	21991
888.519	21975
888.643	22112
888.767	22181
888.891	21892
889.015	21800
889.139	21888
889.263	21633
889.387	21994
889.511	22074
889.635	22093
889.759	21755
889.883	21869
890.006	21812
890.13	21937
890.254	21854
890.377	21823
890.501	21580
890.624	21530
890.748	21625
890.871	21397
890.995	21359
891.118	21355
891.241	21325
891.364	21325
891.488	21526
891.611	21332
891.734	21412
891.857	21477
891.98	21397
892.103	21363
892.226	21329
892.349	21313
892.471	21116
892.594	21252
892.717	21359
892.839	21279
892.962	21142
893.085	21382
893.207	21283
893.33	21131
893.452	21199
893.575	21294
893.697	21256
893.819	21378
893.941	21496
894.064	21424
894.186	21230
894.308	21180
894.43	21344
894.552	21374
894.674	21252
894.796	21081
894.918	21173
895.04	21279
895.161	21260
895.283	21291
895.405	21214
895.526	21291
895.648	21199
895.769	21237
895.891	21287
896.012	21348
896.134	21272
896.255	21268
896.376	21104
896.498	21237
896.619	21176
896.74	21325
896.861	21325
896.982	21545
897.103	21656
897.224	21534
897.345	21393
897.466	21275
897.587	21431
897.708	21534
897.828	21466
897.949	21340
898.07	21283
898.19	21397
898.311	21599
898.431	21359
898.552	21538
898.672	21519
898.792	21420
898.913	21306
899.033	21287
899.153	21222
899.273	21081
899.393	21211
899.513	21154
899.633	21154
899.753	21089
899.873	21066
899.993	21211
900.113	21032
900.232	21089
900.352	21062
900.472	21135
900.591	20842
900.711	20971
900.83	20826
900.95	21017
901.069	21047
901.189	20785
901.308	20640
901.427	20339
901.546	20488
901.665	20488
901.784	20423
901.904	20317
902.023	20294
902.141	19986
902.26	19993
902.379	20168
902.498	19993
902.617	19951
902.735	20077
902.854	19970
902.973	19963
903.091	19791
903.21	19696
903.328	19586
903.446	19605
903.565	19495
903.683	19533
903.801	19304
903.919	19426
904.038	19403
904.156	19198
904.274	19282
904.392	19240
904.51	19160
904.627	19274
904.745	19259
904.863	19217
904.981	18913
905.098	18871
905.216	18897
905.334	18932
905.451	18894
905.569	18856
905.686	18935
905.803	18840
905.921	18642
906.038	18665
906.155	18673
906.272	18540
906.389	18563
906.506	18365
906.623	18388
906.74	18270
906.857	18327
906.974	18369
907.091	18410
907.208	18536
907.324	18369
907.441	18338
907.557	18106
907.674	18068
907.79	17950
907.907	18060
908.023	18102
908.139	18110
908.256	18083
908.372	17954
908.488	17996
908.604	17882
908.72	17840
908.836	17874
908.952	17748
909.068	17779
909.184	18003
909.3	17901
909.415	17733
909.531	17726
909.647	17608
909.762	17547
909.878	17539
909.993	17570
910.108	17520
910.224	17395
910.339	17452
910.454	17349
910.57	17296
910.685	17204
910.8	17512
910.915	17436
911.03	17258
911.145	17143
911.259	17067
911.374	17037
911.489	17033
911.604	16972
911.718	16816
911.833	16820
911.947	16713
912.062	16615
912.176	16759
912.291	16729
912.405	16717
912.519	16968
912.633	16915
912.748	16908
912.862	16790
912.976	16580
913.09	16622
913.204	16653
913.318	16698
913.431	16675
913.545	16641
913.659	16702
913.772	16493
913.886	16394
914	16341
914.113	16527
914.226	16459
914.34	16561
914.453	16329
914.566	16341
914.68	16276
914.793	16284
914.906	16139
915.019	16074
915.132	15838
915.245	15949
915.358	16029
915.47	15975
915.583	15922
915.696	16063
915.809	16143
915.921	16040
916.034	15819
916.146	15907
916.259	15759
916.371	15876
916.483	15918
916.595	15857
916.708	15819
916.82	15819
916.932	15739
917.044	15739
917.156	15720
917.268	15599
917.38	15580
917.491	15663
917.603	15644
917.715	15580
917.826	15660
917.938	15469
918.049	15466
918.161	15587
918.272	15633
918.384	15717
918.495	15443
918.606	15370
918.717	15272
918.828	15435
918.939	15416
919.05	15340
919.161	15325
919.272	15089
919.383	15146
919.494	15336
919.604	15564
919.715	15279
919.826	15260
919.936	15260
920.047	15408
920.157	15382
920.267	15496
920.378	15279
920.488	15199
920.598	15485
920.708	15587
920.818	15405
920.928	15458
921.038	15622
921.148	15564
921.258	15214
921.368	15097
921.477	15093
921.587	14906
921.697	14845
921.806	14990
921.916	14765
922.025	14663
922.134	14682
922.244	14564
922.353	14659
922.462	14488
922.571	14442
922.68	14389
922.789	14366
922.898	14309
923.007	14183
923.116	14324
923.224	14229
923.333	14206
923.442	14161
923.55	14088
923.659	14218
923.767	14142
923.876	14005
923.984	14115
924.092	13986
924.201	13967
924.309	13951
924.417	13963
924.525	13906
924.633	13890
924.741	14724
924.849	13772
924.956	13898
925.064	13757
925.172	13597
925.279	13712
925.387	13674
925.494	13696
925.602	13753
925.709	13757
925.816	13594
925.924	13616
926.031	13693
926.138	13586
926.245	13655
926.352	13571
926.459	13578
926.566	13712
926.673	13445
926.779	13400
926.886	13487
926.993	13225
927.099	13221
927.206	13126
927.312	13141
927.419	13206
927.525	13187
927.631	13232
927.737	13122
927.843	13099
927.95	12852
928.056	12958
928.162	13015
928.267	13038
928.373	13746
928.479	13137
928.585	12863
928.69	12875
928.796	13038
928.901	12894
929.007	12806
929.112	12943
929.218	12753
929.323	12814
929.428	12722
929.533	12871
929.638	12578
929.743	12665
929.848	12662
929.953	12631
930.058	12506
930.163	12407
930.267	12418
930.372	12612
930.477	12285
930.581	12597
930.685	12422
930.79	12232
930.894	12334
930.998	12209
931.103	12399
931.207	11961
931.311	11980
931.415	11874
931.519	11699
931.623	11646
