Data from test_V78500241_2150.txt Node
Date: Fri Mar 25 15:56:41 CST 2022
User: usil
Spectrometer: V785-0024
Trigger mode: 0
Integration Time (sec): 4.000000E-1
Scans to average: 1
Nonlinearity correction enabled: false
Boxcar width: 0
Storing dark spectrum: false
XAxis mode: Wavelengths
Number of Pixels in Spectrum: 1024
>>>>>Begin Spectral Data<<<<<
801.071	28824
801.214	28869
801.356	28603
801.499	28577
801.641	28432
801.783	28443
801.926	28470
802.068	28538
802.211	28394
802.353	28333
802.496	28238
802.638	28162
802.78	28112
802.923	28044
803.065	28154
803.208	28074
803.35	28204
803.492	28341
803.635	28421
803.777	28204
803.919	28318
804.061	28702
804.204	28337
804.346	28192
804.488	28280
804.63	28284
804.773	28371
804.915	28318
805.057	28592
805.199	28329
805.341	28341
805.483	28443
805.626	28542
805.768	28459
805.91	28493
806.052	28538
806.194	28436
806.336	28626
806.478	28634
806.62	28577
806.762	28592
806.904	28786
807.046	29003
807.188	28881
807.33	28923
807.472	28961
807.614	28934
807.756	28987
807.898	29067
808.04	28816
808.182	28755
808.324	28790
808.465	28824
808.607	28915
808.749	29197
808.891	29277
809.033	29364
809.174	29269
809.316	29166
809.458	29200
809.6	29121
809.741	29360
809.883	29414
810.025	29501
810.166	29585
810.308	29417
810.45	29600
810.591	29375
810.733	29200
810.875	29162
811.016	29258
811.158	29121
811.299	29364
811.441	29375
811.582	29375
811.724	29299
811.865	29242
812.007	29223
812.148	29220
812.29	29322
812.431	29311
812.573	29558
812.714	29516
812.855	29531
812.997	29790
813.138	30007
813.279	29798
813.421	29703
813.562	29748
813.703	29471
813.845	29444
813.986	29204
814.127	29098
814.268	28938
814.41	28858
814.551	28919
814.692	28987
814.833	28847
814.974	29006
815.115	28938
815.256	28790
815.397	28809
815.539	28930
815.68	28763
815.821	28748
815.962	28649
816.103	28786
816.244	28489
816.385	28577
816.526	28634
816.666	28409
816.807	28310
816.948	28295
817.089	28390
817.23	28333
817.371	28226
817.512	28238
817.653	28405
817.793	28093
817.934	28048
818.075	28265
818.216	28261
818.356	28211
818.497	28116
818.638	28032
818.778	27979
818.919	27926
819.06	28147
819.2	28192
819.341	28219
819.481	28234
819.622	28390
819.762	28531
819.903	28466
820.043	28466
820.184	28519
820.324	28348
820.465	28413
820.605	28356
820.746	28173
820.886	28219
821.026	28322
821.167	28204
821.307	28390
821.447	28310
821.588	28181
821.728	28166
821.868	27903
822.008	27736
822.149	27720
822.289	27625
822.429	27526
822.569	27405
822.709	27355
822.849	27291
822.99	27359
823.13	27161
823.27	27154
823.41	27112
823.55	26960
823.69	27135
823.83	27070
823.97	27047
824.11	26948
824.25	26948
824.389	26868
824.529	26929
824.669	26944
824.809	26960
824.949	27150
825.089	27077
825.228	27001
825.368	26682
825.508	26746
825.648	26678
825.787	26682
825.927	26804
826.067	26716
826.206	26758
826.346	26796
826.485	26811
826.625	26811
826.765	26853
826.904	26895
827.044	26598
827.183	26674
827.323	26476
827.462	26560
827.601	26556
827.741	26465
827.88	26419
828.02	26457
828.159	26370
828.298	26503
828.437	26598
828.577	26404
828.716	26503
828.855	26427
828.994	26229
829.134	26161
829.273	26286
829.412	26168
829.551	26153
829.69	26256
829.829	26229
829.968	26244
830.107	26317
830.246	26084
830.385	26168
830.524	26126
830.663	26005
830.802	25757
830.941	25841
831.08	25826
831.219	25795
831.357	25871
831.496	26005
831.635	25826
831.774	25700
831.913	25715
832.051	25643
832.19	25628
832.329	25529
832.467	25472
832.606	25293
832.744	25320
832.883	25403
833.022	25369
833.16	25339
833.299	25514
833.437	25434
833.576	25537
833.714	25567
833.852	25537
833.991	25548
834.129	25632
834.267	25533
834.406	25651
834.544	25495
834.682	25510
834.821	25567
834.959	25727
835.097	25369
835.235	25525
835.373	25518
835.511	25460
835.65	25358
835.788	25240
835.926	25308
836.064	25015
836.202	25221
836.34	25381
836.478	25240
836.615	25293
836.753	25438
836.891	25491
837.029	25244
837.167	25388
837.305	25266
837.443	25183
837.58	25000
837.718	25099
837.856	25225
837.993	25065
838.131	25156
838.269	25099
838.406	24989
838.544	25072
838.681	24798
838.819	24791
838.956	24661
839.094	24677
839.231	24665
839.369	24806
839.506	25031
839.643	24977
839.781	24688
839.918	24616
840.055	24559
840.193	24566
840.33	24452
840.467	24513
840.604	24536
840.742	24749
840.879	24350
841.016	24388
841.153	24414
841.29	24627
841.427	24422
841.564	24623
841.701	24498
841.838	24384
841.975	24342
842.112	24456
842.249	24464
842.385	24213
842.522	24445
842.659	24292
842.796	24270
842.933	24353
843.069	24213
843.206	24239
843.343	24228
843.479	24216
843.616	24243
843.752	24087
843.889	24079
844.025	24129
844.162	24117
844.298	24091
844.435	23927
844.571	23988
844.708	23977
844.844	24152
844.98	24110
845.117	24281
845.253	24026
845.389	23851
845.525	23950
845.661	23859
845.798	23741
845.934	23817
846.07	23729
846.206	23786
846.342	23855
846.478	23638
846.614	23524
846.75	23493
846.886	23509
847.022	23535
847.158	23512
847.294	23535
847.429	23429
847.565	23425
847.701	23615
847.837	23356
847.972	23288
848.108	23223
848.244	23277
848.379	23132
848.515	23075
848.65	22934
848.786	23056
848.921	23109
849.057	23121
849.192	23117
849.328	23083
849.463	23025
849.598	22934
849.734	23022
849.869	22953
850.004	22824
850.14	22850
850.275	22790
850.41	22755
850.545	22744
850.68	22744
850.815	22896
850.95	22847
851.085	23113
851.22	22828
851.355	22904
851.49	22972
851.625	22786
851.76	22934
851.895	22847
852.03	22809
852.165	22847
852.299	22820
852.434	22866
852.569	22885
852.703	22892
852.838	22904
852.973	22927
853.107	22889
853.242	22934
853.376	22668
853.511	22424
853.645	22660
853.78	22854
853.914	22786
854.048	22557
854.183	22596
854.317	22713
854.451	22801
854.585	22577
854.72	22706
854.854	22721
854.988	22596
855.122	22573
855.256	22660
855.39	22615
855.524	22679
855.658	22717
855.792	22778
855.926	22603
856.06	22736
856.194	22721
856.327	22626
856.461	22584
856.595	22733
856.729	22603
856.862	22778
856.996	22626
857.13	22679
857.263	22649
857.397	22797
857.53	22577
857.664	22634
857.797	22698
857.931	22774
858.064	22755
858.197	22771
858.331	22634
858.464	22538
858.597	22580
858.731	22668
858.864	22611
858.997	22603
859.13	22493
859.263	22710
859.396	22717
859.529	22618
859.662	22584
859.795	22542
859.928	22630
860.061	22812
860.194	22911
860.327	22706
860.46	22649
860.592	22710
860.725	22755
860.858	22748
860.99	22668
861.123	22611
861.256	22584
861.388	22767
861.521	23425
861.653	22523
861.786	22440
861.918	22542
862.05	22462
862.183	22451
862.315	22668
862.447	22618
862.58	22607
862.712	22451
862.844	22367
862.976	22443
863.108	22451
863.24	22782
863.372	22348
863.504	22276
863.636	22101
863.768	22542
863.9	22333
864.032	22261
864.164	22398
864.296	22459
864.428	22459
864.559	22306
864.691	22451
864.823	22249
864.954	22371
865.086	22341
865.217	22192
865.349	22169
865.48	22253
865.612	22211
865.743	22402
865.875	22219
866.006	22185
866.137	22303
866.269	22242
866.4	22158
866.531	22215
866.662	22124
866.793	22192
866.924	22124
867.055	22196
867.186	22303
867.317	22196
867.448	22150
867.579	22188
867.71	22093
867.841	22036
867.972	22116
868.103	22082
868.233	22090
868.364	22074
868.495	22230
868.625	22253
868.756	22523
868.886	22242
869.017	22348
869.147	22561
869.278	22512
869.408	22379
869.539	22386
869.669	22402
869.799	22371
869.929	22554
870.06	22485
870.19	22774
870.32	22672
870.45	22869
870.58	22839
870.71	22999
870.84	23018
870.97	22694
871.1	22683
871.23	22980
871.36	22961
871.489	23003
871.619	22923
871.749	22987
871.879	23128
872.008	23090
872.138	22957
872.267	23037
872.397	23022
872.526	22755
872.656	22702
872.785	22866
872.915	23033
873.044	23227
873.173	22999
873.303	23071
873.432	23022
873.561	23193
873.69	22930
873.819	22965
873.948	23117
874.077	23010
874.206	23060
874.335	22873
874.464	23155
874.593	23162
874.722	23140
874.851	23250
874.979	23261
875.108	23265
875.237	23064
875.365	23056
875.494	23079
875.623	23166
875.751	23083
875.88	23162
876.008	23288
876.136	23448
876.265	23630
876.393	23684
876.521	23684
876.65	23630
876.778	23509
876.906	23627
877.034	23554
877.162	23710
877.29	23493
877.418	23592
877.546	23722
877.674	23554
877.802	23444
877.93	23646
878.058	23433
878.185	23482
878.313	23581
878.441	23486
878.568	23429
878.696	23516
878.824	23474
878.951	23649
879.079	23802
879.206	23882
879.333	23737
879.461	23638
879.588	23638
879.715	23687
879.842	23767
879.97	23623
880.097	23486
880.224	23410
880.351	23448
880.478	23474
880.605	23360
880.732	23277
880.859	23611
880.986	23414
881.112	23349
881.239	23170
881.366	23083
881.493	23162
881.619	22915
881.746	23025
881.872	23006
881.999	22858
882.125	22866
882.252	22953
882.378	22968
882.505	22991
882.631	22896
882.757	22580
882.883	22687
883.01	22691
883.136	22493
883.262	22481
883.388	22443
883.514	22691
883.64	22592
883.766	22531
883.892	22200
884.018	22386
884.143	22478
884.269	22478
884.395	22322
884.52	22120
884.646	22409
884.772	22215
884.897	22200
885.023	22276
885.148	22363
885.274	22447
885.399	22325
885.524	22196
885.65	22356
885.775	22299
885.9	22238
886.025	22371
886.15	22371
886.275	22238
886.4	22223
886.525	22234
886.65	22230
886.775	22196
886.9	22215
887.025	22527
887.149	22166
887.274	21968
887.399	22013
887.523	22078
887.648	21964
887.773	21888
887.897	22025
888.021	22070
888.146	21816
888.27	22082
888.395	22124
888.519	21991
888.643	22021
888.767	21987
888.891	21899
889.015	21705
889.139	21907
889.263	21800
889.387	21774
889.511	21960
889.635	21876
889.759	21781
889.883	21785
890.006	21682
890.13	21918
890.254	21690
890.377	21701
890.501	21549
890.624	21564
890.748	21568
890.871	21469
890.995	21222
891.118	21279
891.241	21393
891.364	21306
891.488	21431
891.611	21363
891.734	21355
891.857	21336
891.98	21367
892.103	21313
892.226	21188
892.349	21256
892.471	21066
892.594	21264
892.717	21230
892.839	21188
892.962	21188
893.085	21321
893.207	21195
893.33	21081
893.452	21188
893.575	21317
893.697	21287
893.819	21306
893.941	21447
894.064	21348
894.186	21222
894.308	21135
894.43	21367
894.552	21329
894.674	21359
894.796	21127
894.918	21074
895.04	21135
895.161	21192
895.283	21230
895.405	21100
895.526	21112
895.648	21241
895.769	21199
895.891	21203
896.012	21237
896.134	21268
896.255	21294
896.376	21222
896.498	21169
896.619	21313
896.74	21344
896.861	21279
896.982	21462
897.103	21561
897.224	21405
897.345	21435
897.466	21397
897.587	21416
897.708	21561
897.828	21496
897.949	21287
898.07	21214
898.19	21287
898.311	21469
898.431	21336
898.552	21389
898.672	21435
898.792	21408
898.913	21363
899.033	21264
899.153	21192
899.273	21116
899.393	21272
899.513	21135
899.633	21138
899.753	21241
899.873	21161
899.993	21165
900.113	21024
900.232	21096
900.352	20998
900.472	20891
900.591	20727
900.711	20967
900.83	20819
900.95	20963
901.069	20963
901.189	20876
901.308	20587
901.427	20419
901.546	20503
901.665	20358
901.784	20507
901.904	20358
902.023	20244
902.141	20092
902.26	19997
902.379	20024
902.498	20103
902.617	19913
902.735	19890
902.854	19864
902.973	19822
903.091	19601
903.21	19582
903.328	19571
903.446	19403
903.565	19362
903.683	19388
903.801	19384
903.919	19369
904.038	19331
904.156	19282
904.274	19274
904.392	19274
904.51	19148
904.627	19171
904.745	19240
904.863	19118
904.981	19012
905.098	18852
905.216	18878
905.334	18829
905.451	18776
905.569	18741
905.686	18798
905.803	18798
905.921	18650
906.038	18783
906.155	18700
906.272	18490
906.389	18498
906.506	18399
906.623	18399
906.74	18410
906.857	18254
906.974	18296
907.091	18441
907.208	18471
907.324	18330
907.441	18220
907.557	18129
907.674	18060
907.79	17893
907.907	18057
908.023	18038
908.139	18053
908.256	17965
908.372	17961
908.488	17847
908.604	17836
908.72	17767
908.836	17904
908.952	17699
909.068	17745
909.184	17889
909.3	17805
909.415	17703
909.531	17752
909.647	17562
909.762	17558
909.878	17398
909.993	17356
910.108	17482
910.224	17482
910.339	17509
910.454	17368
910.57	17220
910.685	17280
910.8	17440
910.915	17459
911.03	17273
911.145	17056
911.259	17045
911.374	17029
911.489	16957
911.604	16915
911.718	16812
911.833	16759
911.947	16733
912.062	16599
912.176	16820
912.291	16820
912.405	16713
912.519	16896
912.633	16946
912.748	16793
912.862	16679
912.976	16733
913.09	16443
913.204	16615
913.318	16584
913.431	16691
913.545	16607
913.659	16683
913.772	16542
913.886	16371
914	16352
914.113	16459
914.226	16466
914.34	16451
914.453	16337
914.566	16466
914.68	16215
914.793	16280
914.906	16086
915.019	16025
915.132	15854
915.245	15998
915.358	16025
915.47	15983
915.583	16040
915.696	15964
915.809	16017
915.921	16082
916.034	15835
916.146	15903
916.259	15857
916.371	15926
916.483	15907
916.595	15751
916.708	15774
916.82	15762
916.932	15759
917.044	15739
917.156	15751
917.268	15561
917.38	15629
917.491	15466
917.603	15488
917.715	15614
917.826	15667
917.938	15492
918.049	15641
918.161	15606
918.272	15694
918.384	15572
918.495	15500
918.606	15287
918.717	15161
918.828	15321
918.939	15386
919.05	15310
919.161	15275
919.272	15013
919.383	15127
919.494	15317
919.604	15496
919.715	15283
919.826	15252
919.936	15332
920.047	15275
920.157	15302
920.267	15431
920.378	15222
920.488	15252
920.598	15424
920.708	15523
920.818	15454
920.928	15397
921.038	15504
921.148	15500
921.258	15306
921.368	15218
921.477	15043
921.587	14944
921.697	14982
921.806	14979
921.916	14838
922.025	14663
922.134	14594
922.244	14549
922.353	14625
922.462	14522
922.571	14469
922.68	14301
922.789	14275
922.898	14180
923.007	14187
923.116	14252
923.224	14233
923.333	14180
923.442	14043
923.55	14130
923.659	14161
923.767	14096
923.876	14031
923.984	14142
924.092	14069
924.201	14001
924.309	14024
924.417	13921
924.525	13803
924.633	13898
924.741	14568
924.849	13723
924.956	13845
925.064	13704
925.172	13613
925.279	13628
925.387	13715
925.494	13628
925.602	13753
925.709	13651
925.816	13556
925.924	13506
926.031	13578
926.138	13590
926.245	13540
926.352	13556
926.459	13647
926.566	13533
926.673	13483
926.779	13381
926.886	13381
926.993	13285
927.099	13206
927.206	13088
927.312	13168
927.419	13304
927.525	13122
927.631	13194
927.737	13034
927.843	13034
927.95	12882
928.056	12973
928.162	12928
928.267	12996
928.373	13639
928.479	12966
928.585	12837
928.69	12909
928.796	12985
928.901	12810
929.007	12684
929.112	12837
929.218	12734
929.323	12760
929.428	12669
929.533	12821
929.638	12631
929.743	12620
929.848	12631
929.953	12658
930.058	12441
930.163	12433
930.267	12372
930.372	12429
930.477	12323
930.581	12502
930.685	12384
930.79	12277
930.894	12289
930.998	12201
931.103	12414
931.207	11961
931.311	11961
931.415	11882
931.519	11630
931.623	11608
