Data from test_V78500241_3412.txt Node
Date: Fri Mar 25 16:05:26 CST 2022
User: usil
Spectrometer: V785-0024
Trigger mode: 0
Integration Time (sec): 4.000000E-1
Scans to average: 1
Nonlinearity correction enabled: false
Boxcar width: 0
Storing dark spectrum: false
XAxis mode: Wavelengths
Number of Pixels in Spectrum: 1024
>>>>>Begin Spectral Data<<<<<
801.071	28809
801.214	28786
801.356	28523
801.499	28538
801.641	28306
801.783	28379
801.926	28531
802.068	28436
802.211	28356
802.353	28352
802.496	28143
802.638	27937
802.78	27987
802.923	28097
803.065	27975
803.208	28120
803.35	28120
803.492	28314
803.635	28287
803.777	28265
803.919	28409
804.061	28729
804.204	28470
804.346	28291
804.488	28242
804.63	28394
804.773	28265
804.915	28421
805.057	28432
805.199	28261
805.341	28417
805.483	28436
805.626	28618
805.768	28360
805.91	28474
806.052	28527
806.194	28470
806.336	28763
806.478	28500
806.62	28634
806.762	28538
806.904	28797
807.046	29113
807.188	28873
807.33	28972
807.472	29014
807.614	28934
807.756	29018
807.898	28790
808.04	28683
808.182	28782
808.324	28938
808.465	28942
808.607	29090
808.749	29223
808.891	29197
809.033	29239
809.174	29128
809.316	29200
809.458	29265
809.6	29277
809.741	29239
809.883	29372
810.025	29531
810.166	29501
810.308	29551
810.45	29440
810.591	29467
810.733	29155
810.875	29178
811.016	29140
811.158	29025
811.299	29383
811.441	29410
811.582	29391
811.724	29166
811.865	29162
812.007	29239
812.148	29296
812.29	29315
812.431	29471
812.573	29433
812.714	29592
812.855	29950
812.997	29908
813.138	29904
813.279	29836
813.421	29809
813.562	29627
813.703	29600
813.845	29334
813.986	29273
814.127	29105
814.268	28911
814.41	28930
814.551	28904
814.692	29140
814.833	28946
814.974	28866
815.115	29003
815.256	28980
815.397	28866
815.539	28862
815.68	28953
815.821	28771
815.962	28805
816.103	28725
816.244	28580
816.385	28622
816.526	28535
816.666	28375
816.807	28204
816.948	28348
817.089	28272
817.23	28246
817.371	28082
817.512	28291
817.653	28181
817.793	28181
817.934	28295
818.075	28177
818.216	28280
818.356	28207
818.497	28162
818.638	28025
818.778	28025
818.919	28044
819.06	28185
819.2	28204
819.341	28226
819.481	28341
819.622	28481
819.762	28687
819.903	28607
820.043	28424
820.184	28546
820.324	28367
820.465	28413
820.605	28443
820.746	28318
820.886	28162
821.026	28413
821.167	28261
821.307	28356
821.447	28333
821.588	28310
821.728	28101
821.868	27918
822.008	27876
822.149	27732
822.289	27705
822.429	27332
822.569	27603
822.709	27526
822.849	27313
822.99	27302
823.13	27165
823.27	27283
823.41	27066
823.55	27157
823.69	27051
823.83	27081
823.97	27028
824.11	26853
824.25	26720
824.389	26739
824.529	26971
824.669	26834
824.809	27055
824.949	27081
825.089	27123
825.228	26960
825.368	26689
825.508	26769
825.648	26777
825.787	26777
825.927	26952
826.067	26701
826.206	26754
826.346	26902
826.485	26788
826.625	26754
826.765	26979
826.904	26781
827.044	26674
827.183	26617
827.323	26465
827.462	26575
827.601	26564
827.741	26434
827.88	26575
828.02	26366
828.159	26419
828.298	26480
828.437	26598
828.577	26469
828.716	26533
828.855	26393
828.994	26248
829.134	26248
829.273	26278
829.412	26187
829.551	26161
829.69	26252
829.829	26301
829.968	26320
830.107	26240
830.246	26168
830.385	26073
830.524	26103
830.663	26149
830.802	25898
830.941	25715
831.08	25765
831.219	25940
831.357	25936
831.496	26027
831.635	25788
831.774	25723
831.913	25750
832.051	25624
832.19	25575
832.329	25666
832.467	25582
832.606	25350
832.744	25491
832.883	25457
833.022	25460
833.16	25400
833.299	25457
833.437	25396
833.576	25422
833.714	25540
833.852	25662
833.991	25620
834.129	25605
834.267	25666
834.406	25559
834.544	25601
834.682	25460
834.821	25506
834.959	25628
835.097	25472
835.235	25537
835.373	25441
835.511	25533
835.65	25476
835.788	25362
835.926	25122
836.064	25194
836.202	25228
836.34	25320
836.478	25293
836.615	25354
836.753	25422
836.891	25419
837.029	25430
837.167	25255
837.305	25156
837.443	25285
837.58	25228
837.718	25346
837.856	25171
837.993	25274
838.131	25160
838.269	24981
838.406	25156
838.544	24962
838.681	24882
838.819	24783
838.956	24684
839.094	24589
839.231	24658
839.369	24844
839.506	25072
839.643	24844
839.781	24654
839.918	24620
840.055	24604
840.193	24574
840.33	24608
840.467	24544
840.604	24585
840.742	24844
840.879	24509
841.016	24509
841.153	24456
841.29	24646
841.427	24422
841.564	24532
841.701	24604
841.838	24559
841.975	24540
842.112	24384
842.249	24369
842.385	24296
842.522	24589
842.659	24346
842.796	24285
842.933	24163
843.069	24304
843.206	24270
843.343	24311
843.479	24197
843.616	24224
843.752	24095
843.889	24159
844.025	24117
844.162	24114
844.298	24285
844.435	24076
844.571	24098
844.708	24167
844.844	24239
844.98	24136
845.117	24235
845.253	24186
845.389	24018
845.525	23980
845.661	24003
845.798	23703
845.934	24022
846.07	23764
846.206	23847
846.342	24018
846.478	23824
846.614	23573
846.75	23505
846.886	23467
847.022	23562
847.158	23520
847.294	23611
847.429	23566
847.565	23444
847.701	23672
847.837	23345
847.972	23212
848.108	23372
848.244	23406
848.379	23105
848.515	23025
848.65	23136
848.786	23033
848.921	23102
849.057	23326
849.192	23239
849.328	23311
849.463	23208
849.598	23067
849.734	23014
849.869	23022
850.004	22850
850.14	22801
850.275	23075
850.41	22805
850.545	22923
850.68	22835
850.815	22923
850.95	22858
851.085	23018
851.22	22949
851.355	22908
851.49	22816
851.625	22904
851.76	22923
851.895	22892
852.03	22820
852.165	22930
852.299	22896
852.434	22995
852.569	22991
852.703	22949
852.838	22980
852.973	23006
853.107	22972
853.242	22820
853.376	22691
853.511	22641
853.645	22618
853.78	22733
853.914	22782
854.048	22683
854.183	22710
854.317	22763
854.451	22889
854.585	22698
854.72	22675
854.854	22771
854.988	22672
855.122	22687
855.256	22748
855.39	22664
855.524	22767
855.658	22782
855.792	22691
855.926	22862
856.06	22725
856.194	22900
856.327	22771
856.461	22641
856.595	22554
856.729	22615
856.862	22858
856.996	22858
857.13	22812
857.263	22752
857.397	22816
857.53	22691
857.664	22736
857.797	22801
857.931	22755
858.064	22672
858.197	22873
858.331	22645
858.464	22637
858.597	22672
858.731	22744
858.864	22721
858.997	22740
859.13	22660
859.263	22721
859.396	22809
859.529	22668
859.662	22691
859.795	22710
859.928	22596
860.061	22683
860.194	22786
860.327	22793
860.46	22584
860.592	22828
860.725	22919
860.858	22790
860.99	22683
861.123	22713
861.256	22767
861.388	22668
861.521	23577
861.653	22557
861.786	22554
861.918	22485
862.05	22523
862.183	22691
862.315	22611
862.447	22744
862.58	22603
862.712	22386
862.844	22348
862.976	22519
863.108	22531
863.24	22767
863.372	22310
863.504	22455
863.636	22276
863.768	22421
863.9	22325
864.032	22462
864.164	22402
864.296	22360
864.428	22599
864.559	22455
864.691	22462
864.823	22325
864.954	22485
865.086	22265
865.217	22348
865.349	22204
865.48	22238
865.612	22276
865.743	22348
865.875	22303
866.006	22261
866.137	22242
866.269	22249
866.4	22344
866.531	22226
866.662	22242
866.793	22249
866.924	22196
867.055	22306
867.186	22249
867.317	22287
867.448	22086
867.579	22181
867.71	22139
867.841	22101
867.972	22204
868.103	22139
868.233	22158
868.364	22375
868.495	22249
868.625	22497
868.756	22634
868.886	22344
869.017	22516
869.147	22493
869.278	22599
869.408	22485
869.539	22405
869.669	22440
869.799	22527
869.929	22649
870.06	22527
870.19	22721
870.32	22812
870.45	22831
870.58	22812
870.71	22980
870.84	23010
870.97	22797
871.1	22771
871.23	23044
871.36	23083
871.489	23086
871.619	23151
871.749	23067
871.879	23083
872.008	23212
872.138	23025
872.267	23033
872.397	22877
872.526	22961
872.656	22965
872.785	22923
872.915	23155
873.044	23189
873.173	23166
873.303	23197
873.432	23052
873.561	23200
873.69	23048
873.819	23090
873.948	23113
874.077	22980
874.206	23079
874.335	22984
874.464	23197
874.593	23322
874.722	23117
874.851	23288
874.979	23223
875.108	23379
875.237	23197
875.365	23227
875.494	23292
875.623	23326
875.751	23235
875.88	23326
876.008	23372
876.136	23577
876.265	23699
876.393	23771
876.521	23638
876.65	23916
876.778	23653
876.906	23554
877.034	23554
877.162	23627
877.29	23509
877.418	23642
877.546	23592
877.674	23745
877.802	23657
877.93	23558
878.058	23528
878.185	23619
878.313	23577
878.441	23619
878.568	23368
878.696	23433
878.824	23653
878.951	23748
879.079	23733
879.206	23939
879.333	23786
879.461	23703
879.588	23843
879.715	23874
879.842	23863
879.97	23726
880.097	23436
880.224	23467
880.351	23570
880.478	23493
880.605	23440
880.732	23387
880.859	23691
880.986	23554
881.112	23376
881.239	23337
881.366	23223
881.493	23189
881.619	22980
881.746	23170
881.872	23010
881.999	22980
882.125	22957
882.252	23086
882.378	22972
882.505	23132
882.631	22828
882.757	22706
882.883	22797
883.01	22744
883.136	22557
883.262	22713
883.388	22390
883.514	22713
883.64	22588
883.766	22577
883.892	22481
884.018	22557
884.143	22584
884.269	22744
884.395	22360
884.52	22344
884.646	22318
884.772	22238
884.897	22219
885.023	22352
885.148	22322
885.274	22409
885.399	22333
885.524	22318
885.65	22280
885.775	22265
885.9	22295
886.025	22276
886.15	22451
886.275	22306
886.4	22154
886.525	22265
886.65	22204
886.775	22135
886.9	22371
887.025	22546
887.149	22188
887.274	22070
887.399	22131
887.523	22082
887.648	22029
887.773	21991
887.897	22204
888.021	22120
888.146	22162
888.27	22139
888.395	22169
888.519	22086
888.643	22112
888.767	22223
888.891	22010
889.015	21884
889.139	21861
889.263	21880
889.387	21991
889.511	22124
889.635	21865
889.759	21960
889.883	21736
890.006	21842
890.13	22048
890.254	21835
890.377	21873
890.501	21549
890.624	21580
890.748	21606
890.871	21424
890.995	21397
891.118	21310
891.241	21367
891.364	21405
891.488	21485
891.611	21420
891.734	21466
891.857	21370
891.98	21348
892.103	21363
892.226	21306
892.349	21382
892.471	21222
892.594	21245
892.717	21519
892.839	21329
892.962	21370
893.085	21382
893.207	21336
893.33	21112
893.452	21245
893.575	21317
893.697	21214
893.819	21473
893.941	21561
894.064	21268
894.186	21089
894.308	21180
894.43	21428
894.552	21405
894.674	21310
894.796	21058
894.918	21336
895.04	21252
895.161	21298
895.283	21321
895.405	21233
895.526	21329
895.648	21252
895.769	21405
895.891	21268
896.012	21370
896.134	21268
896.255	21370
896.376	21241
896.498	21203
896.619	21249
896.74	21214
896.861	21355
896.982	21519
897.103	21743
897.224	21492
897.345	21477
897.466	21431
897.587	21515
897.708	21580
897.828	21515
897.949	21317
898.07	21264
898.19	21397
898.311	21530
898.431	21378
898.552	21378
898.672	21538
898.792	21587
898.913	21462
899.033	21389
899.153	21241
899.273	21237
899.393	21203
899.513	21207
899.633	21272
899.753	21150
899.873	21077
899.993	21188
900.113	21173
900.232	21146
900.352	21070
900.472	21047
900.591	21009
900.711	20937
900.83	20921
900.95	20971
901.069	21123
901.189	20906
901.308	20629
901.427	20507
901.546	20609
901.665	20461
901.784	20514
901.904	20377
902.023	20267
902.141	20168
902.26	20062
902.379	20221
902.498	19875
902.617	19940
902.735	19959
902.854	19978
902.973	19822
903.091	19616
903.21	19799
903.328	19753
903.446	19624
903.565	19601
903.683	19472
903.801	19388
903.919	19400
904.038	19369
904.156	19202
904.274	19327
904.392	19202
904.51	19266
904.627	19221
904.745	19225
904.863	19285
904.981	18996
905.098	18973
905.216	18996
905.334	18981
905.451	18882
905.569	18901
905.686	18821
905.803	18875
905.921	18753
906.038	18688
906.155	18696
906.272	18631
906.389	18585
906.506	18414
906.623	18429
906.74	18460
906.857	18296
906.974	18262
907.091	18418
907.208	18521
907.324	18395
907.441	18376
907.557	18205
907.674	18076
907.79	18076
907.907	18049
908.023	18186
908.139	18220
908.256	18129
908.372	18045
908.488	18015
908.604	17824
908.72	17832
908.836	17847
908.952	17821
909.068	17783
909.184	17942
909.3	17847
909.415	17847
909.531	17764
909.647	17577
909.762	17551
909.878	17490
909.993	17554
910.108	17520
910.224	17448
910.339	17452
910.454	17421
910.57	17402
910.685	17261
910.8	17448
910.915	17448
911.03	17368
911.145	17117
911.259	17033
911.374	17109
911.489	17052
911.604	16961
911.718	16866
911.833	16900
911.947	16656
912.062	16763
912.176	16866
912.291	16873
912.405	16831
912.519	16991
912.633	17010
912.748	16839
912.862	16812
912.976	16668
913.09	16542
913.204	16599
913.318	16698
913.431	16793
913.545	16672
913.659	16683
913.772	16694
913.886	16516
914	16417
914.113	16538
914.226	16558
914.34	16508
914.453	16375
914.566	16436
914.68	16382
914.793	16261
914.906	16109
915.019	16044
915.132	15934
915.245	16013
915.358	16029
915.47	15983
915.583	15994
915.696	16029
915.809	16093
915.921	16169
916.034	15873
916.146	15899
916.259	15880
916.371	16017
916.483	15915
916.595	15804
916.708	15850
916.82	15880
916.932	15816
917.044	15831
917.156	15747
917.268	15671
917.38	15698
917.491	15618
917.603	15591
917.715	15701
917.826	15656
917.938	15538
918.049	15454
918.161	15557
918.272	15747
918.384	15694
918.495	15564
918.606	15435
918.717	15298
918.828	15332
918.939	15306
919.05	15222
919.161	15329
919.272	15180
919.383	15222
919.494	15523
919.604	15595
919.715	15355
919.826	15256
919.936	15363
920.047	15435
920.157	15272
920.267	15610
920.378	15203
920.488	15298
920.598	15568
920.708	15553
920.818	15397
920.928	15355
921.038	15599
921.148	15538
921.258	15241
921.368	15192
921.477	15020
921.587	14990
921.697	14910
921.806	15062
921.916	14910
922.025	14743
922.134	14788
922.244	14636
922.353	14716
922.462	14499
922.571	14442
922.68	14366
922.789	14278
922.898	14374
923.007	14324
923.116	14282
923.224	14271
923.333	14206
923.442	14084
923.55	14126
923.659	14195
923.767	14282
923.876	14073
923.984	14138
924.092	14046
924.201	14084
924.309	14050
924.417	14020
924.525	13947
924.633	13963
924.741	14895
924.849	13746
924.956	13940
925.064	13750
925.172	13636
925.279	13685
925.387	13677
925.494	13567
925.602	13814
925.709	13708
925.816	13582
925.924	13594
926.031	13662
926.138	13609
926.245	13586
926.352	13491
926.459	13685
926.566	13738
926.673	13613
926.779	13472
926.886	13396
926.993	13293
927.099	13164
927.206	13179
927.312	13202
927.419	13285
927.525	13213
927.631	13225
927.737	13080
927.843	13095
927.95	12932
928.056	13050
928.162	13050
928.267	13118
928.373	13674
928.479	13129
928.585	12954
928.69	12905
928.796	13034
928.901	12977
929.007	12703
929.112	12814
929.218	12890
929.323	12719
929.428	12700
929.533	12852
929.638	12730
929.743	12597
929.848	12734
929.953	12696
930.058	12536
930.163	12384
930.267	12429
930.372	12506
930.477	12418
930.581	12570
930.685	12414
930.79	12372
930.894	12296
930.998	12319
931.103	12407
931.207	12011
931.311	12003
931.415	11901
931.519	11691
931.623	11699
