Data from test_V78500241_3643.txt Node
Date: Fri Mar 25 16:07:02 CST 2022
User: usil
Spectrometer: V785-0024
Trigger mode: 0
Integration Time (sec): 4.000000E-1
Scans to average: 1
Nonlinearity correction enabled: false
Boxcar width: 0
Storing dark spectrum: false
XAxis mode: Wavelengths
Number of Pixels in Spectrum: 1024
>>>>>Begin Spectral Data<<<<<
801.071	28116
801.214	28139
801.356	27793
801.499	27789
801.641	27538
801.783	27736
801.926	27656
802.068	27561
802.211	27599
802.353	27538
802.496	27443
802.638	27275
802.78	27260
802.923	27176
803.065	27214
803.208	27165
803.35	27146
803.492	27507
803.635	27561
803.777	27378
803.919	27511
804.061	27804
804.204	27553
804.346	27511
804.488	27538
804.63	27549
804.773	27298
804.915	27526
805.057	27606
805.199	27435
805.341	27679
805.483	27667
805.626	27526
805.768	27439
805.91	27618
806.052	27842
806.194	27625
806.336	27812
806.478	27694
806.62	27625
806.762	27850
806.904	27914
807.046	28166
807.188	28131
807.33	28162
807.472	28215
807.614	27979
807.756	28017
807.898	27987
808.04	27926
808.182	27861
808.324	27968
808.465	28002
808.607	28234
808.749	28314
808.891	28318
809.033	28409
809.174	28363
809.316	28443
809.458	28272
809.6	28215
809.741	28409
809.883	28436
810.025	28459
810.166	28538
810.308	28637
810.45	28546
810.591	28481
810.733	28401
810.875	28363
811.016	28303
811.158	28314
811.299	28561
811.441	28466
811.582	28455
811.724	28329
811.865	28337
812.007	28322
812.148	28341
812.29	28398
812.431	28493
812.573	28607
812.714	28729
812.855	28828
812.997	28809
813.138	29075
813.279	29025
813.421	28915
813.562	28824
813.703	28599
813.845	28500
813.986	28333
814.127	28070
814.268	28063
814.41	28006
814.551	28097
814.692	28021
814.833	27884
814.974	27975
815.115	28059
815.256	27907
815.397	27873
815.539	27873
815.68	27759
815.821	27774
815.962	27785
816.103	27816
816.244	27679
816.385	27580
816.526	27583
816.666	27378
816.807	27188
816.948	27386
817.089	27321
817.23	27275
817.371	27336
817.512	27260
817.653	27298
817.793	27157
817.934	27306
818.075	27264
818.216	27367
818.356	27256
818.497	27055
818.638	26994
818.778	27093
818.919	27047
819.06	27207
819.2	27355
819.341	27344
819.481	27195
819.622	27523
819.762	27660
819.903	27614
820.043	27488
820.184	27481
820.324	27637
820.465	27458
820.605	27382
820.746	27348
820.886	27256
821.026	27431
821.167	27378
821.307	27454
821.447	27272
821.588	27237
821.728	27020
821.868	26990
822.008	26845
822.149	26823
822.289	26648
822.429	26552
822.569	26476
822.709	26313
822.849	26336
822.99	26313
823.13	26362
823.27	26290
823.41	26122
823.55	26001
823.69	26301
823.83	26145
823.97	25963
824.11	25997
824.25	26024
824.389	25963
824.529	25986
824.669	26122
824.809	26069
824.949	26069
825.089	26035
825.228	26050
825.368	25750
825.508	25894
825.648	25898
825.787	25868
825.927	25936
826.067	25890
826.206	25727
826.346	25974
826.485	25913
826.625	25719
826.765	25822
826.904	25814
827.044	25548
827.183	25605
827.323	25464
827.462	25586
827.601	25457
827.741	25415
827.88	25597
828.02	25445
828.159	25533
828.298	25518
828.437	25552
828.577	25365
828.716	25605
828.855	25445
828.994	25232
829.134	25179
829.273	25213
829.412	25255
829.551	25259
829.69	25266
829.829	25285
829.968	25221
830.107	25221
830.246	25225
830.385	25118
830.524	25190
830.663	24920
830.802	24985
830.941	24798
831.08	24924
831.219	24947
831.357	24840
831.496	25110
831.635	24749
831.774	24825
831.913	24623
832.051	24631
832.19	24627
832.329	24661
832.467	24623
832.606	24429
832.744	24418
832.883	24414
833.022	24350
833.16	24422
833.299	24566
833.437	24509
833.576	24547
833.714	24585
833.852	24593
833.991	24574
834.129	24582
834.267	24658
834.406	24597
834.544	24528
834.682	24578
834.821	24502
834.959	24631
835.097	24597
835.235	24612
835.373	24479
835.511	24490
835.65	24471
835.788	24350
835.926	24330
836.064	24194
836.202	24216
836.34	24452
836.478	24509
836.615	24258
836.753	24456
836.891	24445
837.029	24467
837.167	24376
837.305	24330
837.443	24304
837.58	24083
837.718	24308
837.856	24365
837.993	24148
838.131	24190
838.269	24091
838.406	24068
838.544	24057
838.681	23942
838.819	23821
838.956	23741
839.094	23615
839.231	23771
839.369	23847
839.506	24064
839.643	23927
839.781	23805
839.918	23707
840.055	23687
840.193	23668
840.33	23680
840.467	23539
840.604	23783
840.742	23813
840.879	23436
841.016	23543
841.153	23509
841.29	23672
841.427	23562
841.564	23611
841.701	23554
841.838	23589
841.975	23615
842.112	23543
842.249	23501
842.385	23322
842.522	23600
842.659	23535
842.796	23444
842.933	23471
843.069	23303
843.206	23315
843.343	23436
843.479	23353
843.616	23288
843.752	23174
843.889	23121
844.025	23254
844.162	23102
844.298	23341
844.435	23124
844.571	23170
844.708	23223
844.844	23387
844.98	23299
845.117	23193
845.253	23117
845.389	22991
845.525	23064
845.661	22965
845.798	22957
845.934	22930
846.07	22904
846.206	22961
846.342	23113
846.478	22938
846.614	22721
846.75	22702
846.886	22664
847.022	22668
847.158	22603
847.294	22706
847.429	22645
847.565	22527
847.701	22885
847.837	22432
847.972	22242
848.108	22428
848.244	22390
848.379	22268
848.515	22082
848.65	22253
848.786	22295
848.921	22207
849.057	22379
849.192	22200
849.328	22257
849.463	22299
849.598	22135
849.734	22116
849.869	22101
850.004	21945
850.14	22017
850.275	22093
850.41	21838
850.545	21797
850.68	21987
850.815	22109
850.95	21949
851.085	22059
851.22	22055
851.355	21994
851.49	21998
851.625	21975
851.76	22006
851.895	21903
852.03	21911
852.165	21915
852.299	21930
852.434	22147
852.569	22090
852.703	21926
852.838	22025
852.973	22051
853.107	22074
853.242	21884
853.376	21949
853.511	21759
853.645	21835
853.78	21941
853.914	21831
854.048	21717
854.183	21694
854.317	21854
854.451	22036
854.585	21846
854.72	21739
854.854	21835
854.988	21816
855.122	21774
855.256	21709
855.39	21766
855.524	21892
855.658	21831
855.792	21892
855.926	21857
856.06	21850
856.194	21953
856.327	21846
856.461	21755
856.595	21671
856.729	21838
856.862	21964
856.996	21945
857.13	21850
857.263	21972
857.397	21907
857.53	21907
857.664	21888
857.797	21949
857.931	21880
858.064	21785
858.197	21842
858.331	21778
858.464	21755
858.597	21751
858.731	21812
858.864	21831
858.997	21751
859.13	21713
859.263	21781
859.396	21892
859.529	21778
859.662	21816
859.795	21656
859.928	21800
860.061	21831
860.194	22059
860.327	21846
860.46	21884
860.592	21892
860.725	22040
860.858	22048
860.99	21869
861.123	21732
861.256	21724
861.388	21895
861.521	22554
861.653	21690
861.786	21538
861.918	21682
862.05	21633
862.183	21804
862.315	21747
862.447	21838
862.58	21774
862.712	21488
862.844	21454
862.976	21663
863.108	21625
863.24	21972
863.372	21481
863.504	21564
863.636	21473
863.768	21576
863.9	21576
864.032	21485
864.164	21469
864.296	21561
864.428	21644
864.559	21564
864.691	21545
864.823	21477
864.954	21530
865.086	21405
865.217	21443
865.349	21389
865.48	21458
865.612	21481
865.743	21428
865.875	21378
866.006	21329
866.137	21393
866.269	21481
866.4	21355
866.531	21519
866.662	21199
866.793	21355
866.924	21355
867.055	21370
867.186	21310
867.317	21397
867.448	21389
867.579	21405
867.71	21264
867.841	21359
867.972	21424
868.103	21344
868.233	21340
868.364	21401
868.495	21504
868.625	21477
868.756	21663
868.886	21561
869.017	21603
869.147	21679
869.278	21713
869.408	21583
869.539	21568
869.669	21648
869.799	21625
869.929	21743
870.06	21739
870.19	21888
870.32	21892
870.45	22021
870.58	22010
870.71	22128
870.84	22116
870.97	21945
871.1	22067
871.23	22192
871.36	22143
871.489	22101
871.619	22040
871.749	22226
871.879	22211
872.008	22287
872.138	22219
872.267	22131
872.397	22082
872.526	22036
872.656	21983
872.785	22128
872.915	22284
873.044	22207
873.173	22276
873.303	22181
873.432	22257
873.561	22268
873.69	22310
873.819	22230
873.948	22348
874.077	22204
874.206	22223
874.335	22162
874.464	22287
874.593	22398
874.722	22405
874.851	22557
874.979	22561
875.108	22538
875.237	22455
875.365	22329
875.494	22382
875.623	22516
875.751	22363
875.88	22440
876.008	22550
876.136	22584
876.265	22805
876.393	22820
876.521	22972
876.65	22869
876.778	22854
876.906	22793
877.034	22786
877.162	22759
877.29	22630
877.418	22930
877.546	22801
877.674	22854
877.802	22782
877.93	22805
878.058	22778
878.185	22588
878.313	22858
878.441	22820
878.568	22546
878.696	22839
878.824	22782
878.951	22961
879.079	22896
879.206	22980
879.333	22854
879.461	22934
879.588	22946
879.715	22892
879.842	23006
879.97	22915
880.097	22653
880.224	22672
880.351	22538
880.478	22710
880.605	22561
880.732	22607
880.859	22820
880.986	22637
881.112	22702
881.239	22447
881.366	22337
881.493	22230
881.619	22063
881.746	22265
881.872	22116
881.999	22143
882.125	22109
882.252	22154
882.378	22128
882.505	22295
882.631	22128
882.757	21937
882.883	21876
883.01	21907
883.136	21873
883.262	21827
883.388	21648
883.514	21797
883.64	21808
883.766	21804
883.892	21690
884.018	21698
884.143	21884
884.269	21816
884.395	21606
884.52	21507
884.646	21523
884.772	21515
884.897	21226
885.023	21332
885.148	21648
885.274	21530
885.399	21515
885.524	21485
885.65	21580
885.775	21439
885.9	21530
886.025	21553
886.15	21576
886.275	21428
886.4	21526
886.525	21466
886.65	21431
886.775	21374
886.9	21504
887.025	21698
887.149	21462
887.274	21317
887.399	21199
887.523	21157
887.648	21116
887.773	21237
887.897	21195
888.021	21336
888.146	21211
888.27	21374
888.395	21458
888.519	21180
888.643	21310
888.767	21272
888.891	21214
889.015	21013
889.139	21108
889.263	21024
889.387	21184
889.511	21237
889.635	21313
889.759	21066
889.883	20998
890.006	21176
890.13	21108
890.254	21024
890.377	21005
890.501	20743
890.624	20773
890.748	20853
890.871	20739
890.995	20625
891.118	20587
891.241	20735
891.364	20617
891.488	20941
891.611	20568
891.734	20746
891.857	20686
891.98	20712
892.103	20746
892.226	20556
892.349	20488
892.471	20473
892.594	20488
892.717	20617
892.839	20568
892.962	20560
893.085	20537
893.207	20465
893.33	20408
893.452	20530
893.575	20484
893.697	20537
893.819	20617
893.941	20712
894.064	20735
894.186	20495
894.308	20480
894.43	20575
894.552	20636
894.674	20621
894.796	20412
894.918	20419
895.04	20415
895.161	20708
895.283	20545
895.405	20469
895.526	20492
895.648	20446
895.769	20480
895.891	20473
896.012	20560
896.134	20621
896.255	20495
896.376	20431
896.498	20530
896.619	20552
896.74	20568
896.861	20579
896.982	20857
897.103	20944
897.224	20807
897.345	20629
897.466	20640
897.587	20739
897.708	20921
897.828	20659
897.949	20560
898.07	20530
898.19	20663
898.311	20921
898.431	20670
898.552	20720
898.672	20929
898.792	20659
898.913	20667
899.033	20674
899.153	20480
899.273	20385
899.393	20339
899.513	20450
899.633	20461
899.753	20438
899.873	20389
899.993	20408
900.113	20499
900.232	20377
900.352	20259
900.472	20313
900.591	20039
900.711	20282
900.83	20225
900.95	20275
901.069	20355
901.189	20069
901.308	20058
901.427	19769
901.546	19807
901.665	19940
901.784	19887
901.904	19788
902.023	19502
902.141	19441
902.26	19403
902.379	19468
902.498	19346
902.617	19388
902.735	19247
902.854	19278
902.973	19270
903.091	19057
903.21	19031
903.328	18962
903.446	18890
903.565	18856
903.683	18749
903.801	18745
903.919	18802
904.038	18711
904.156	18498
904.274	18601
904.392	18582
904.51	18563
904.627	18407
904.745	18597
904.863	18627
904.981	18365
905.098	18311
905.216	18163
905.334	18201
905.451	18163
905.569	18140
905.686	18220
905.803	18205
905.921	18053
906.038	18068
906.155	18015
906.272	17984
906.389	17950
906.506	17760
906.623	17779
906.74	17737
906.857	17649
906.974	17707
907.091	17718
907.208	17889
907.324	17817
907.441	17676
907.557	17455
907.674	17433
907.79	17326
907.907	17372
908.023	17539
908.139	17459
908.256	17368
908.372	17421
908.488	17261
908.604	17189
908.72	17098
908.836	17181
908.952	17292
909.068	17216
909.184	17326
909.3	17174
909.415	17212
909.531	17140
909.647	17003
909.762	16896
909.878	16885
909.993	16839
910.108	16835
910.224	16911
910.339	16801
910.454	16736
910.57	16717
910.685	16645
910.8	16911
910.915	16824
911.03	16634
911.145	16573
911.259	16519
911.374	16558
911.489	16249
911.604	16284
911.718	16162
911.833	16246
911.947	16025
912.062	16093
912.176	16295
912.291	16299
912.405	16219
912.519	16341
912.633	16432
912.748	16200
912.862	16211
912.976	16010
913.09	15945
913.204	15983
913.318	16093
913.431	16090
913.545	16131
913.659	16185
913.772	16078
913.886	15857
914	15865
914.113	15930
914.226	15899
914.34	15930
914.453	15793
914.566	15804
914.68	15644
914.793	15675
914.906	15606
915.019	15416
915.132	15359
915.245	15507
915.358	15473
915.47	15401
915.583	15477
915.696	15488
915.809	15564
915.921	15519
916.034	15207
916.146	15344
916.259	15264
916.371	15454
916.483	15408
916.595	15291
916.708	15249
916.82	15256
916.932	15180
917.044	15233
917.156	15146
917.268	15074
917.38	15097
917.491	15036
917.603	15093
917.715	15146
917.826	15165
917.938	14948
918.049	14933
918.161	14887
918.272	15230
918.384	15051
918.495	15024
918.606	14914
918.717	14876
918.828	14872
918.939	14807
919.05	14758
919.161	14807
919.272	14530
919.383	14682
919.494	14853
919.604	15009
919.715	14743
919.826	14754
919.936	14785
920.047	14830
920.157	14830
920.267	14941
920.378	14762
920.488	14716
920.598	15005
920.708	15097
920.818	14887
920.928	14868
921.038	15116
921.148	15013
921.258	14716
921.368	14663
921.477	14533
921.587	14568
921.697	14389
921.806	14450
921.916	14370
922.025	14275
922.134	14157
922.244	14119
922.353	14187
922.462	14149
922.571	13890
922.68	13845
922.789	13776
922.898	13826
923.007	13742
923.116	13769
923.224	13719
923.333	13708
923.442	13655
923.55	13601
923.659	13723
923.767	13613
923.876	13632
923.984	13628
924.092	13529
924.201	13514
924.309	13468
924.417	13521
924.525	13407
924.633	13438
924.741	14404
924.849	13209
924.956	13415
925.064	13232
925.172	13099
925.279	13225
925.387	13285
925.494	13141
925.602	13304
925.709	13282
925.816	13046
925.924	13149
926.031	13225
926.138	13107
926.245	13187
926.352	13107
926.459	13107
926.566	13232
926.673	13023
926.779	12958
926.886	12928
926.993	12829
927.099	12833
927.206	12658
927.312	12692
927.419	12806
927.525	12730
927.631	12749
927.737	12578
927.843	12635
927.95	12532
928.056	12517
928.162	12555
928.267	12677
928.373	13164
928.479	12604
928.585	12369
928.69	12509
928.796	12513
928.901	12361
929.007	12311
929.112	12410
929.218	12452
929.323	12418
929.428	12304
929.533	12372
929.638	12213
929.743	12266
929.848	12323
929.953	12258
930.058	12148
930.163	11958
930.267	12015
930.372	12057
930.477	11984
930.581	12163
930.685	12007
930.79	11866
930.894	11863
930.998	11897
931.103	11969
931.207	11604
931.311	11528
931.415	11478
931.519	11246
931.623	11216
