Data from test_V78500241_762.txt Node
Date: Fri Mar 25 15:47:04 CST 2022
User: usil
Spectrometer: V785-0024
Trigger mode: 0
Integration Time (sec): 4.000000E-1
Scans to average: 1
Nonlinearity correction enabled: false
Boxcar width: 0
Storing dark spectrum: false
XAxis mode: Wavelengths
Number of Pixels in Spectrum: 1024
>>>>>Begin Spectral Data<<<<<
801.071	27854
801.214	27861
801.356	27564
801.499	27561
801.641	27408
801.783	27485
801.926	27526
802.068	27561
802.211	27389
802.353	27401
802.496	27142
802.638	27214
802.78	27039
802.923	27173
803.065	27230
803.208	27096
803.35	27173
803.492	27188
803.635	27226
803.777	27374
803.919	27336
804.061	27561
804.204	27355
804.346	27291
804.488	27081
804.63	27340
804.773	27154
804.915	27332
805.057	27488
805.199	27332
805.341	27374
805.483	27439
805.626	27443
805.768	27283
805.91	27412
806.052	27538
806.194	27332
806.336	27652
806.478	27557
806.62	27458
806.762	27583
806.904	27789
807.046	27793
807.188	27903
807.33	27861
807.472	28010
807.614	27774
807.756	27876
807.898	27876
808.04	27701
808.182	27568
808.324	27728
808.465	27793
808.607	27922
808.749	28124
808.891	28204
809.033	28253
809.174	28105
809.316	28303
809.458	28143
809.6	27998
809.741	28295
809.883	28158
810.025	28318
810.166	28360
810.308	28352
810.45	28333
810.591	28306
810.733	28105
810.875	28048
811.016	27956
811.158	28010
811.299	28169
811.441	28363
811.582	28322
811.724	28158
811.865	28211
812.007	28166
812.148	28105
812.29	28181
812.431	28341
812.573	28459
812.714	28459
812.855	28611
812.997	28607
813.138	28869
813.279	28774
813.421	28835
813.562	28656
813.703	28352
813.845	28489
813.986	28078
814.127	27831
814.268	27755
814.41	27865
814.551	27739
814.692	27972
814.833	27698
814.974	27850
815.115	27728
815.256	27713
815.397	27675
815.539	27675
815.68	27633
815.821	27534
815.962	27652
816.103	27523
816.244	27561
816.385	27321
816.526	27325
816.666	27237
816.807	27142
816.948	27142
817.089	27287
817.23	27051
817.371	27005
817.512	27138
817.653	27058
817.793	26895
817.934	27024
818.075	27245
818.216	27123
818.356	27146
818.497	26986
818.638	26792
818.778	26895
818.919	26773
819.06	26872
819.2	26967
819.341	27142
819.481	27176
819.622	27207
819.762	27317
819.903	27370
820.043	27344
820.184	27207
820.324	27264
820.465	27252
820.605	27279
820.746	27268
820.886	27142
821.026	27142
821.167	26998
821.307	27272
821.447	27093
821.588	27085
821.728	26967
821.868	26902
822.008	26560
822.149	26606
822.289	26655
822.429	26328
822.569	26286
822.709	26138
822.849	26168
822.99	26096
823.13	26153
823.27	25997
823.41	26020
823.55	25757
823.69	25814
823.83	25906
823.97	25818
824.11	25830
824.25	25734
824.389	25742
824.529	25849
824.669	25780
824.809	25879
824.949	25803
825.089	25868
825.228	25719
825.368	25575
825.508	25464
825.648	25483
825.787	25563
825.927	25635
826.067	25533
826.206	25708
826.346	25765
826.485	25746
826.625	25495
826.765	25822
826.904	25563
827.044	25236
827.183	25449
827.323	25221
827.462	25247
827.601	25232
827.741	25225
827.88	25236
828.02	25164
828.159	25236
828.298	25244
828.437	25301
828.577	25266
828.716	25449
828.855	25168
828.994	25145
829.134	25129
829.273	24878
829.412	24996
829.551	25038
829.69	24973
829.829	24981
829.968	24996
830.107	25050
830.246	24943
830.385	24935
830.524	24878
830.663	24757
830.802	24795
830.941	24650
831.08	24540
831.219	24654
831.357	24635
831.496	24681
831.635	24483
831.774	24620
831.913	24498
832.051	24426
832.19	24410
832.329	24433
832.467	24346
832.606	24258
832.744	24213
832.883	24334
833.022	24224
833.16	24258
833.299	24319
833.437	24342
833.576	24388
833.714	24403
833.852	24452
833.991	24403
834.129	24426
834.267	24399
834.406	24441
834.544	24418
834.682	24330
834.821	24395
834.959	24456
835.097	24323
835.235	24498
835.373	24426
835.511	24281
835.65	24098
835.788	24304
835.926	24159
836.064	23992
836.202	24072
836.34	24220
836.478	24174
836.615	24163
836.753	24194
836.891	24357
837.029	24220
837.167	24106
837.305	23973
837.443	24121
837.58	24022
837.718	24110
837.856	24015
837.993	24049
838.131	24064
838.269	23859
838.406	23798
838.544	23836
838.681	23630
838.819	23623
838.956	23566
839.094	23596
839.231	23585
839.369	23752
839.506	23893
839.643	23722
839.781	23395
839.918	23341
840.055	23562
840.193	23433
840.33	23364
840.467	23570
840.604	23410
840.742	23649
840.879	23208
841.016	23410
841.153	23250
841.29	23554
841.427	23448
841.564	23425
841.701	23459
841.838	23258
841.975	23277
842.112	23258
842.249	23265
842.385	23341
842.522	23326
842.659	23208
842.796	23197
842.933	23159
843.069	23132
843.206	23071
843.343	23162
843.479	23162
843.616	23090
843.752	23071
843.889	23018
844.025	23083
844.162	22904
844.298	22965
844.435	22923
844.571	22930
844.708	23052
844.844	23071
844.98	23075
845.117	23014
845.253	23048
845.389	22702
845.525	22877
845.661	22694
845.798	22729
845.934	22736
846.07	22611
846.206	22717
846.342	22797
846.478	22580
846.614	22440
846.75	22379
846.886	22436
847.022	22440
847.158	22497
847.294	22344
847.429	22382
847.565	22371
847.701	22557
847.837	22234
847.972	22112
848.108	22215
848.244	22253
848.379	22044
848.515	21998
848.65	21915
848.786	22044
848.921	21934
849.057	22086
849.192	22051
849.328	22078
849.463	22055
849.598	21911
849.734	21903
849.869	21831
850.004	21713
850.14	21774
850.275	21732
850.41	21709
850.545	21717
850.68	21682
850.815	21895
850.95	21637
851.085	21926
851.22	21869
851.355	21663
851.49	21686
851.625	21671
851.76	21751
851.895	21637
852.03	21603
852.165	21804
852.299	21755
852.434	21899
852.569	21854
852.703	21629
852.838	21850
852.973	21682
853.107	21888
853.242	21641
853.376	21542
853.511	21469
853.645	21488
853.78	21622
853.914	21504
854.048	21614
854.183	21466
854.317	21568
854.451	21686
854.585	21530
854.72	21473
854.854	21637
854.988	21462
855.122	21443
855.256	21462
855.39	21599
855.524	21603
855.658	21538
855.792	21591
855.926	21587
856.06	21614
856.194	21739
856.327	21587
856.461	21667
856.595	21591
856.729	21671
856.862	21682
856.996	21557
857.13	21690
857.263	21629
857.397	21644
857.53	21515
857.664	21648
857.797	21644
857.931	21705
858.064	21717
858.197	21618
858.331	21545
858.464	21515
858.597	21386
858.731	21477
858.864	21500
858.997	21523
859.13	21542
859.263	21568
859.396	21751
859.529	21473
859.662	21431
859.795	21534
859.928	21450
860.061	21793
860.194	21603
860.327	21633
860.46	21576
860.592	21701
860.725	21781
860.858	21759
860.99	21504
861.123	21511
861.256	21466
861.388	21382
861.521	22196
861.653	21393
861.786	21310
861.918	21397
862.05	21477
862.183	21401
862.315	21439
862.447	21568
862.58	21599
862.712	21447
862.844	21237
862.976	21386
863.108	21454
863.24	21675
863.372	21211
863.504	21237
863.636	21226
863.768	21363
863.9	21184
864.032	21298
864.164	21157
864.296	21332
864.428	21393
864.559	21222
864.691	21252
864.823	21321
864.954	21302
865.086	21264
865.217	21264
865.349	21138
865.48	21131
865.612	21077
865.743	21294
865.875	21237
866.006	21176
866.137	21142
866.269	21089
866.4	21165
866.531	21028
866.662	21104
866.793	21157
866.924	21089
867.055	21329
867.186	20925
867.317	20998
867.448	21024
867.579	21074
867.71	21074
867.841	20967
867.972	21066
868.103	21005
868.233	21123
868.364	21119
868.495	21119
868.625	21386
868.756	21481
868.886	21287
869.017	21317
869.147	21500
869.278	21412
869.408	21325
869.539	21321
869.669	21435
869.799	21473
869.929	21466
870.06	21458
870.19	21614
870.32	21553
870.45	21603
870.58	21599
870.71	21808
870.84	21945
870.97	21819
871.1	21713
871.23	21850
871.36	21998
871.489	21755
871.619	21873
871.749	21899
871.879	21975
872.008	21945
872.138	22021
872.267	21941
872.397	21751
872.526	21778
872.656	21751
872.785	21778
872.915	21895
873.044	22055
873.173	21991
873.303	21911
873.432	21964
873.561	21975
873.69	21907
873.819	21926
873.948	22196
874.077	21964
874.206	21972
874.335	21949
874.464	22067
874.593	22166
874.722	22135
874.851	22223
874.979	22322
875.108	22246
875.237	22253
875.365	22120
875.494	22173
875.623	22295
875.751	22173
875.88	22188
876.008	22215
876.136	22341
876.265	22577
876.393	22668
876.521	22561
876.65	22565
876.778	22588
876.906	22500
877.034	22497
877.162	22584
877.29	22341
877.418	22542
877.546	22538
877.674	22508
877.802	22603
877.93	22485
878.058	22485
878.185	22436
878.313	22455
878.441	22542
878.568	22409
878.696	22649
878.824	22573
878.951	22584
879.079	22809
879.206	22824
879.333	22618
879.461	22531
879.588	22679
879.715	22641
879.842	22835
879.97	22588
880.097	22371
880.224	22287
880.351	22344
880.478	22424
880.605	22261
880.732	22363
880.859	22618
880.986	22386
881.112	22436
881.239	22169
881.366	22044
881.493	22002
881.619	21937
881.746	21915
881.872	21861
881.999	21907
882.125	21915
882.252	21930
882.378	21857
882.505	21972
882.631	21846
882.757	21675
882.883	21732
883.01	21606
883.136	21622
883.262	21416
883.388	21397
883.514	21633
883.64	21724
883.766	21542
883.892	21405
884.018	21393
884.143	21496
884.269	21622
884.395	21359
884.52	21355
884.646	21374
884.772	21184
884.897	21154
885.023	21268
885.148	21329
885.274	21355
885.399	21268
885.524	21332
885.65	21268
885.775	21142
885.9	21135
886.025	21294
886.15	21279
886.275	21169
886.4	21051
886.525	21272
886.65	21161
886.775	21233
886.9	21260
887.025	21378
887.149	21302
887.274	21036
887.399	21085
887.523	21039
887.648	20910
887.773	20902
887.897	21112
888.021	21051
888.146	21028
888.27	21180
888.395	21055
888.519	21074
888.643	20994
888.767	21028
888.891	20918
889.015	20861
889.139	20994
889.263	20872
889.387	20952
889.511	20914
889.635	20971
889.759	20861
889.883	20845
890.006	20823
890.13	20925
890.254	20750
890.377	20663
890.501	20727
890.624	20518
890.748	20560
890.871	20511
890.995	20442
891.118	20313
891.241	20400
891.364	20415
891.488	20495
891.611	20450
891.734	20457
891.857	20423
891.98	20495
892.103	20389
892.226	20366
892.349	20240
892.471	20161
892.594	20221
892.717	20259
892.839	20339
892.962	20202
893.085	20442
893.207	20381
893.33	20100
893.452	20248
893.575	20252
893.697	20313
893.819	20419
893.941	20457
894.064	20431
894.186	20252
894.308	20115
894.43	20415
894.552	20476
894.674	20381
894.796	20210
894.918	20240
895.04	20332
895.161	20385
895.283	20259
895.405	20126
895.526	20263
895.648	20263
895.769	20218
895.891	20396
896.012	20313
896.134	20271
896.255	20233
896.376	20145
896.498	20271
896.619	20286
896.74	20248
896.861	20377
896.982	20651
897.103	20788
897.224	20511
897.345	20552
897.466	20362
897.587	20503
897.708	20636
897.828	20434
897.949	20347
898.07	20332
898.19	20423
898.311	20476
898.431	20415
898.552	20640
898.672	20480
898.792	20579
898.913	20598
899.033	20492
899.153	20358
899.273	20301
899.393	20164
899.513	20248
899.633	20290
899.753	20267
899.873	20248
899.993	20180
900.113	20134
900.232	20278
900.352	20237
900.472	20206
900.591	19970
900.711	20073
900.83	20008
900.95	20168
901.069	20035
901.189	19932
901.308	19788
901.427	19609
901.546	19552
901.665	19674
901.784	19616
901.904	19514
902.023	19324
902.141	19270
902.26	19088
902.379	19225
902.498	19042
902.617	19053
902.735	19263
902.854	19110
902.973	19042
903.091	18817
903.21	18711
903.328	18806
903.446	18677
903.565	18650
903.683	18642
903.801	18509
903.919	18525
904.038	18521
904.156	18346
904.274	18388
904.392	18369
904.51	18372
904.627	18292
904.745	18422
904.863	18483
904.981	18129
905.098	17992
905.216	17996
905.334	18049
905.451	17950
905.569	18049
905.686	18117
905.803	17973
905.921	17824
906.038	17992
906.155	17828
906.272	17764
906.389	17695
906.506	17687
906.623	17547
906.74	17372
906.857	17455
906.974	17619
907.091	17600
907.208	17710
907.324	17558
907.441	17436
907.557	17288
907.674	17372
907.79	17242
907.907	17288
908.023	17414
908.139	17277
908.256	17227
908.372	17166
908.488	17090
908.604	17022
908.72	16987
908.836	16999
908.952	16972
909.068	17048
909.184	17003
909.3	16980
909.415	17010
909.531	16995
909.647	16801
909.762	16782
909.878	16740
909.993	16725
910.108	16733
910.224	16672
910.339	16691
910.454	16649
910.57	16508
910.685	16382
910.8	16736
910.915	16713
911.03	16519
911.145	16386
911.259	16310
911.374	16409
911.489	16318
911.604	16143
911.718	16082
911.833	15956
911.947	15934
912.062	15918
912.176	16071
912.291	16154
912.405	16101
912.519	16276
912.633	16261
912.748	16067
912.862	15956
912.976	15842
913.09	15797
913.204	15812
913.318	15865
913.431	15907
913.545	15850
913.659	16010
913.772	15793
913.886	15739
914	15633
914.113	15675
914.226	15774
914.34	15739
914.453	15469
914.566	15675
914.68	15648
914.793	15576
914.906	15389
915.019	15298
915.132	15313
915.245	15192
915.358	15283
915.47	15252
915.583	15351
915.696	15249
915.809	15401
915.921	15348
916.034	15245
916.146	15142
916.259	15062
916.371	15199
916.483	15294
916.595	15150
916.708	15108
916.82	15089
916.932	15081
917.044	14933
917.156	15009
917.268	14921
917.38	14994
917.491	14845
917.603	14967
917.715	14929
917.826	14994
917.938	14845
918.049	14712
918.161	14891
918.272	14910
918.384	14910
918.495	14853
918.606	14708
918.717	14636
918.828	14590
918.939	14670
919.05	14522
919.161	14617
919.272	14518
919.383	14545
919.494	14686
919.604	14819
919.715	14629
919.826	14503
919.936	14556
920.047	14667
920.157	14579
920.267	14796
920.378	14594
920.488	14518
920.598	14796
920.708	14921
920.818	14765
920.928	14701
921.038	14902
921.148	14880
921.258	14488
921.368	14476
921.477	14423
921.587	14431
921.697	14275
921.806	14271
921.916	14142
922.025	14088
922.134	13989
922.244	13963
922.353	13967
922.462	13944
922.571	13750
922.68	13708
922.789	13670
922.898	13605
923.007	13506
923.116	13636
923.224	13480
923.333	13647
923.442	13487
923.55	13434
923.659	13400
923.767	13487
923.876	13415
923.984	13487
924.092	13377
924.201	13415
924.309	13419
924.417	13445
924.525	13354
924.633	13354
924.741	14161
924.849	13099
924.956	13266
925.064	13137
925.172	12966
925.279	13046
925.387	13023
925.494	13038
925.602	13175
925.709	13095
925.816	12970
925.924	12993
926.031	13034
926.138	13031
926.245	13031
926.352	12924
926.459	13057
926.566	13050
926.673	12909
926.779	12871
926.886	12779
926.993	12642
927.099	12540
927.206	12555
927.312	12589
927.419	12559
927.525	12585
927.631	12707
927.737	12441
927.843	12369
927.95	12369
928.056	12308
928.162	12471
928.267	12506
928.373	12943
928.479	12521
928.585	12216
928.69	12395
928.796	12464
928.901	12323
929.007	12190
929.112	12315
929.218	12289
929.323	12201
929.428	12178
929.533	12270
929.638	12148
929.743	12098
929.848	12144
929.953	12205
930.058	11984
930.163	11840
930.267	11916
930.372	11954
930.477	11828
930.581	12007
930.685	11927
930.79	11672
930.894	11722
930.998	11604
931.103	11935
931.207	11452
931.311	11440
931.415	11231
931.519	11113
931.623	11086
