Data from test_V78500241_3689.txt Node
Date: Fri Mar 25 16:07:21 CST 2022
User: usil
Spectrometer: V785-0024
Trigger mode: 0
Integration Time (sec): 4.000000E-1
Scans to average: 1
Nonlinearity correction enabled: false
Boxcar width: 0
Storing dark spectrum: false
XAxis mode: Wavelengths
Number of Pixels in Spectrum: 1024
>>>>>Begin Spectral Data<<<<<
801.071	28409
801.214	28451
801.356	28120
801.499	28051
801.641	28040
801.783	28002
801.926	28006
802.068	27956
802.211	27937
802.353	27941
802.496	27865
802.638	27663
802.78	27759
802.923	27519
803.065	27439
803.208	27606
803.35	27759
803.492	27778
803.635	27865
803.777	27827
803.919	27899
804.061	28173
804.204	27892
804.346	27857
804.488	27918
804.63	27892
804.773	27804
804.915	27949
805.057	27949
805.199	27797
805.341	28044
805.483	28055
805.626	28055
805.768	27960
805.91	28226
806.052	27941
806.194	27869
806.336	28021
806.478	27998
806.62	28017
806.762	28185
806.904	28295
807.046	28653
807.188	28531
807.33	28485
807.472	28493
807.614	28409
807.756	28462
807.898	28375
808.04	28192
808.182	28276
808.324	28440
808.465	28242
808.607	28565
808.749	28793
808.891	28771
809.033	28843
809.174	28915
809.316	28729
809.458	28744
809.6	28603
809.741	28733
809.883	28767
810.025	29006
810.166	29003
810.308	29003
810.45	28987
810.591	28858
810.733	28839
810.875	28748
811.016	28531
811.158	28653
811.299	28778
811.441	28790
811.582	28892
811.724	28736
811.865	28596
812.007	28607
812.148	28740
812.29	28740
812.431	28892
812.573	29003
812.714	29048
812.855	29246
812.997	29235
813.138	29471
813.279	29273
813.421	29364
813.562	29159
813.703	29079
813.845	28847
813.986	28740
814.127	28561
814.268	28535
814.41	28413
814.551	28394
814.692	28607
814.833	28519
814.974	28363
815.115	28405
815.256	28310
815.397	28367
815.539	28272
815.68	28109
815.821	28070
815.962	28257
816.103	28223
816.244	28078
816.385	28063
816.526	27987
816.666	27842
816.807	27675
816.948	27808
817.089	27888
817.23	27846
817.371	27709
817.512	27724
817.653	27709
817.793	27736
817.934	27755
818.075	27701
818.216	27892
818.356	27701
818.497	27648
818.638	27629
818.778	27526
818.919	27641
819.06	27553
819.2	27682
819.341	27679
819.481	27766
819.622	27975
819.762	28093
819.903	28063
820.043	27918
820.184	27930
820.324	27876
820.465	28002
820.605	27789
820.746	27930
820.886	27679
821.026	27934
821.167	27823
821.307	27941
821.447	27728
821.588	27705
821.728	27374
821.868	27348
822.008	27412
822.149	27249
822.289	27157
822.429	27009
822.569	26842
822.709	27039
822.849	26727
822.99	26834
823.13	26621
823.27	26743
823.41	26659
823.55	26541
823.69	26693
823.83	26568
823.97	26522
824.11	26290
824.25	26343
824.389	26393
824.529	26412
824.669	26457
824.809	26492
824.949	26514
825.089	26533
825.228	26339
825.368	26343
825.508	26305
825.648	26233
825.787	26396
825.927	26355
826.067	26084
826.206	26229
826.346	26484
826.485	26400
826.625	26278
826.765	26381
826.904	26385
827.044	25997
827.183	26138
827.323	25909
827.462	26134
827.601	26027
827.741	25978
827.88	26111
828.02	25761
828.159	25852
828.298	26001
828.437	26145
828.577	25978
828.716	26016
828.855	25879
828.994	25826
829.134	25658
829.273	25655
829.412	25590
829.551	25613
829.69	25666
829.829	25696
829.968	25864
830.107	25849
830.246	25632
830.385	25616
830.524	25540
830.663	25575
830.802	25301
830.941	25244
831.08	25225
831.219	25312
831.357	25350
831.496	25556
831.635	25354
831.774	25232
831.913	25171
832.051	25080
832.19	24943
832.329	25171
832.467	24996
832.606	24973
832.744	24863
832.883	25019
833.022	24981
833.16	24878
833.299	24951
833.437	24989
833.576	25019
833.714	25015
833.852	24966
833.991	25110
834.129	25240
834.267	25164
834.406	25133
834.544	24935
834.682	25046
834.821	24981
834.959	25190
835.097	25004
835.235	25069
835.373	25046
835.511	24962
835.65	24894
835.788	24890
835.926	24798
836.064	24669
836.202	24711
836.34	24871
836.478	24977
836.615	24913
836.753	24829
836.891	25019
837.029	24901
837.167	24810
837.305	24677
837.443	24783
837.58	24760
837.718	24700
837.856	24692
837.993	24753
838.131	24715
838.269	24490
838.406	24601
838.544	24517
838.681	24414
838.819	24292
838.956	24194
839.094	24095
839.231	24232
839.369	24262
839.506	24536
839.643	24311
839.781	24159
839.918	23973
840.055	24106
840.193	24038
840.33	24125
840.467	24117
840.604	24106
840.742	24273
840.879	23828
841.016	23935
841.153	23893
841.29	24087
841.427	24049
841.564	24144
841.701	24079
841.838	23999
841.975	24057
842.112	23859
842.249	23813
842.385	23939
842.522	24057
842.659	23832
842.796	23760
842.933	23687
843.069	23760
843.206	23638
843.343	23863
843.479	23878
843.616	23790
843.752	23657
843.889	23577
844.025	23737
844.162	23364
844.298	23737
844.435	23592
844.571	23531
844.708	23653
844.844	23649
844.98	23707
845.117	23646
845.253	23600
845.389	23528
845.525	23554
845.661	23436
845.798	23383
845.934	23395
846.07	23296
846.206	23372
846.342	23448
846.478	23410
846.614	23174
846.75	23124
846.886	23025
847.022	23064
847.158	23041
847.294	23071
847.429	23056
847.565	23033
847.701	23341
847.837	22995
847.972	22740
848.108	22877
848.244	22725
848.379	22683
848.515	22542
848.65	22702
848.786	22725
848.921	22748
849.057	22679
849.192	22774
849.328	22584
849.463	22554
849.598	22599
849.734	22497
849.869	22527
850.004	22447
850.14	22310
850.275	22478
850.41	22303
850.545	22303
850.68	22478
850.815	22417
850.95	22360
851.085	22561
851.22	22481
851.355	22459
851.49	22371
851.625	22455
851.76	22394
851.895	22344
852.03	22257
852.165	22409
852.299	22451
852.434	22500
852.569	22394
852.703	22386
852.838	22500
852.973	22550
853.107	22554
853.242	22192
853.376	22276
853.511	22120
853.645	22093
853.78	22329
853.914	22360
854.048	22196
854.183	22219
854.317	22265
854.451	22333
854.585	22226
854.72	22253
854.854	22398
854.988	22192
855.122	22162
855.256	22051
855.39	22234
855.524	22211
855.658	22291
855.792	22154
855.926	22215
856.06	22192
856.194	22234
856.327	22188
856.461	22128
856.595	22188
856.729	22139
856.862	22223
856.996	22291
857.13	22295
857.263	22337
857.397	22268
857.53	22177
857.664	22261
857.797	22223
857.931	22211
858.064	22211
858.197	22348
858.331	22272
858.464	22139
858.597	22185
858.731	22105
858.864	22109
858.997	22242
859.13	22337
859.263	22287
859.396	22375
859.529	22219
859.662	22120
859.795	22158
859.928	22166
860.061	22409
860.194	22531
860.327	22200
860.46	22257
860.592	22348
860.725	22424
860.858	22280
860.99	22223
861.123	22120
861.256	21956
861.388	22196
861.521	23048
861.653	22082
861.786	22021
861.918	21972
862.05	22188
862.183	22086
862.315	22242
862.447	22223
862.58	22257
862.712	21918
862.844	21823
862.976	21934
863.108	22078
863.24	22363
863.372	21838
863.504	21960
863.636	22036
863.768	21987
863.9	21895
864.032	21789
864.164	21972
864.296	22032
864.428	22021
864.559	22021
864.691	21956
864.823	21827
864.954	21876
865.086	21831
865.217	21823
865.349	21732
865.48	21816
865.612	21846
865.743	21953
865.875	21698
866.006	21644
866.137	21816
866.269	21819
866.4	21800
866.531	21705
866.662	21641
866.793	21778
866.924	21793
867.055	21884
867.186	21739
867.317	21774
867.448	21713
867.579	21625
867.71	21660
867.841	21778
867.972	21728
868.103	21686
868.233	21690
868.364	21778
868.495	21831
868.625	21991
868.756	22147
868.886	21884
869.017	21972
869.147	22010
869.278	21991
869.408	21949
869.539	22067
869.669	21994
869.799	21922
869.929	22086
870.06	22036
870.19	22409
870.32	22185
870.45	22253
870.58	22322
870.71	22481
870.84	22470
870.97	22413
871.1	22375
871.23	22645
871.36	22565
871.489	22554
871.619	22512
871.749	22626
871.879	22569
872.008	22611
872.138	22706
872.267	22561
872.397	22481
872.526	22421
872.656	22405
872.785	22314
872.915	22546
873.044	22755
873.173	22565
873.303	22615
873.432	22691
873.561	22634
873.69	22710
873.819	22565
873.948	22797
874.077	22607
874.206	22561
874.335	22656
874.464	22664
874.593	22847
874.722	22816
874.851	22885
874.979	22885
875.108	22900
875.237	22805
875.365	22721
875.494	22774
875.623	23014
875.751	22725
875.88	22733
876.008	22873
876.136	22976
876.265	23223
876.393	23337
876.521	23425
876.65	23315
876.778	23227
876.906	23296
877.034	23200
877.162	23284
877.29	23132
877.418	23193
877.546	23159
877.674	23166
877.802	23277
877.93	23136
878.058	23208
878.185	22987
878.313	23117
878.441	23105
878.568	22976
878.696	23121
878.824	23231
878.951	23223
879.079	23379
879.206	23448
879.333	23261
879.461	23121
879.588	23383
879.715	23303
879.842	23467
879.97	23261
880.097	23067
880.224	23037
880.351	23128
880.478	23022
880.605	22847
880.732	23075
880.859	23254
880.986	22885
881.112	22987
881.239	22740
881.366	22824
881.493	22599
881.619	22557
881.746	22660
881.872	22542
881.999	22470
882.125	22413
882.252	22649
882.378	22436
882.505	22523
882.631	22356
882.757	22219
882.883	22325
883.01	22257
883.136	22169
883.262	22143
883.388	22192
883.514	22150
883.64	22211
883.766	22063
883.892	21941
884.018	22055
884.143	22173
884.269	22124
884.395	21915
884.52	21846
884.646	21876
884.772	21751
884.897	21583
885.023	21892
885.148	21899
885.274	21964
885.399	21979
885.524	21953
885.65	21949
885.775	21895
885.9	21751
886.025	21899
886.15	21915
886.275	21759
886.4	21823
886.525	21808
886.65	21709
886.775	21800
886.9	21915
887.025	21998
887.149	21804
887.274	21652
887.399	21610
887.523	21587
887.648	21606
887.773	21557
887.897	21637
888.021	21610
888.146	21603
888.27	21606
888.395	21720
888.519	21675
888.643	21804
888.767	21652
888.891	21595
889.015	21389
889.139	21504
889.263	21249
889.387	21530
889.511	21526
889.635	21507
889.759	21283
889.883	21538
890.006	21492
890.13	21500
890.254	21336
890.377	21241
890.501	21157
890.624	21062
890.748	21199
890.871	21066
890.995	20979
891.118	20963
891.241	21013
891.364	21043
891.488	21089
891.611	21036
891.734	21009
891.857	21039
891.98	20963
892.103	20887
892.226	20914
892.349	20891
892.471	20765
892.594	20914
892.717	20880
892.839	20830
892.962	20971
893.085	20906
893.207	20944
893.33	20842
893.452	20796
893.575	20826
893.697	20834
893.819	21013
893.941	20899
894.064	21081
894.186	20796
894.308	20777
894.43	20933
894.552	20982
894.674	20800
894.796	20765
894.918	20861
895.04	20686
895.161	20899
895.283	20944
895.405	20880
895.526	20899
895.648	20788
895.769	20868
895.891	20960
896.012	20960
896.134	20872
896.255	20792
896.376	20811
896.498	20781
896.619	20910
896.74	20807
896.861	20849
896.982	21157
897.103	21325
897.224	21157
897.345	21039
897.466	20937
897.587	21032
897.708	21161
897.828	21146
897.949	21070
898.07	20994
898.19	20899
898.311	21218
898.431	20975
898.552	20982
898.672	21226
898.792	21176
898.913	21142
899.033	20929
899.153	20826
899.273	20743
899.393	20842
899.513	20914
899.633	20743
899.753	20914
899.873	20655
899.993	20720
900.113	20651
900.232	20792
900.352	20689
900.472	20583
900.591	20473
900.711	20575
900.83	20446
900.95	20613
901.069	20739
901.189	20389
901.308	20218
901.427	20157
901.546	20145
901.665	20130
901.784	20130
901.904	19997
902.023	19921
902.141	19780
902.26	19670
902.379	19700
902.498	19674
902.617	19628
902.735	19670
902.854	19734
902.973	19537
903.091	19430
903.21	19373
903.328	19354
903.446	19209
903.565	19198
903.683	19137
903.801	19114
903.919	18989
904.038	18939
904.156	18935
904.274	18966
904.392	18875
904.51	18821
904.627	18795
904.745	18970
904.863	18856
904.981	18601
905.098	18528
905.216	18486
905.334	18635
905.451	18532
905.569	18521
905.686	18639
905.803	18456
905.921	18369
906.038	18418
906.155	18266
906.272	18125
906.389	18068
906.506	18102
906.623	18121
906.74	17988
906.857	17897
906.974	17958
907.091	18041
907.208	18136
907.324	18022
907.441	17870
907.557	17794
907.674	17722
907.79	17737
907.907	17779
908.023	17767
908.139	17657
908.256	17562
908.372	17581
908.488	17646
908.604	17600
908.72	17535
908.836	17482
908.952	17395
909.068	17535
909.184	17638
909.3	17440
909.415	17501
909.531	17497
909.647	17231
909.762	17083
909.878	17189
909.993	17155
910.108	17128
910.224	17143
910.339	17159
910.454	17010
910.57	17052
910.685	16850
910.8	17185
910.915	17094
911.03	16999
911.145	16900
911.259	16763
911.374	16755
911.489	16710
911.604	16675
911.718	16436
911.833	16466
911.947	16466
912.062	16325
912.176	16508
912.291	16618
912.405	16493
912.519	16691
912.633	16729
912.748	16554
912.862	16394
912.976	16333
913.09	16120
913.204	16276
913.318	16337
913.431	16409
913.545	16363
913.659	16375
913.772	16360
913.886	16090
914	16029
914.113	16150
914.226	16158
914.34	16116
914.453	16040
914.566	16116
914.68	15922
914.793	15922
914.906	15728
915.019	15736
915.132	15694
915.245	15690
915.358	15694
915.47	15656
915.583	15610
915.696	15694
915.809	15747
915.921	15823
916.034	15720
916.146	15580
916.259	15542
916.371	15709
916.483	15705
916.595	15595
916.708	15492
916.82	15450
916.932	15351
917.044	15439
917.156	15488
917.268	15359
917.38	15313
917.491	15348
917.603	15325
917.715	15382
917.826	15344
917.938	15401
918.049	15173
918.161	15256
918.272	15378
918.384	15329
918.495	15249
918.606	15127
918.717	14960
918.828	14948
918.939	14963
919.05	15024
919.161	14998
919.272	14906
919.383	14868
919.494	15005
919.604	15310
919.715	15001
919.826	14849
919.936	15055
920.047	15116
920.157	15085
920.267	15157
920.378	15142
920.488	15032
920.598	15188
920.708	15302
920.818	15150
920.928	15157
921.038	15268
921.148	15268
921.258	14937
921.368	14910
921.477	14800
921.587	14811
921.697	14689
921.806	14807
921.916	14575
922.025	14514
922.134	14332
922.244	14271
922.353	14427
922.462	14343
922.571	14153
922.68	14054
922.789	13970
922.898	14077
923.007	13982
923.116	14043
923.224	13944
923.333	13928
923.442	13906
923.55	13807
923.659	13864
923.767	13852
923.876	13769
923.984	13913
924.092	13727
924.201	13723
924.309	13719
924.417	13742
924.525	13662
924.633	13674
924.741	14610
924.849	13483
924.956	13559
925.064	13430
925.172	13312
925.279	13434
925.387	13441
925.494	13457
925.602	13597
925.709	13403
925.816	13274
925.924	13232
926.031	13445
926.138	13301
926.245	13358
926.352	13297
926.459	13381
926.566	13354
926.673	13221
926.779	13072
926.886	13152
926.993	13072
927.099	13027
927.206	12909
927.312	12886
927.419	12920
927.525	12932
927.631	12966
927.737	12810
927.843	12852
927.95	12677
928.056	12772
928.162	12833
928.267	12791
928.373	13438
928.479	12909
928.585	12597
928.69	12730
928.796	12719
928.901	12513
929.007	12471
929.112	12544
929.218	12597
929.323	12433
929.428	12486
929.533	12589
929.638	12441
929.743	12388
929.848	12460
929.953	12464
930.058	12270
930.163	12144
930.267	12167
930.372	12251
930.477	12148
930.581	12384
930.685	12247
930.79	11984
930.894	12079
930.998	12072
931.103	12213
931.207	11760
931.311	11741
931.415	11676
931.519	11471
931.623	11379
