Data from test_V78500241_3476.txt Node
Date: Fri Mar 25 16:05:52 CST 2022
User: usil
Spectrometer: V785-0024
Trigger mode: 0
Integration Time (sec): 4.000000E-1
Scans to average: 1
Nonlinearity correction enabled: false
Boxcar width: 0
Storing dark spectrum: false
XAxis mode: Wavelengths
Number of Pixels in Spectrum: 1024
>>>>>Begin Spectral Data<<<<<
801.071	29250
801.214	29109
801.356	28877
801.499	28790
801.641	28615
801.783	28653
801.926	28763
802.068	28763
802.211	28561
802.353	28645
802.496	28462
802.638	28443
802.78	28421
802.923	28367
803.065	28204
803.208	28246
803.35	28508
803.492	28634
803.635	28641
803.777	28660
803.919	28588
804.061	28927
804.204	28713
804.346	28573
804.488	28573
804.63	28691
804.773	28500
804.915	28850
805.057	28797
805.199	28755
805.341	28683
805.483	28740
805.626	28763
805.768	28683
805.91	28740
806.052	28812
806.194	28717
806.336	28968
806.478	28778
806.62	28824
806.762	29025
806.904	29143
807.046	29387
807.188	29121
807.33	29227
807.472	29337
807.614	29383
807.756	29277
807.898	29185
808.04	29124
808.182	29029
808.324	29124
808.465	29041
808.607	29258
808.749	29665
808.891	29794
809.033	29722
809.174	29585
809.316	29497
809.458	29501
809.6	29524
809.741	29684
809.883	29665
810.025	29923
810.166	29870
810.308	29969
810.45	29859
810.591	29828
810.733	29482
810.875	29551
811.016	29421
811.158	29501
811.299	29786
811.441	29668
811.582	29684
811.724	29531
811.865	29463
812.007	29547
812.148	29615
812.29	29573
812.431	29832
812.573	30011
812.714	30022
812.855	30117
812.997	30034
813.138	30281
813.279	30114
813.421	30091
813.562	30125
813.703	29992
813.845	29703
813.986	29531
814.127	29368
814.268	29349
814.41	29284
814.551	29330
814.692	29395
814.833	29223
814.974	29181
815.115	29174
815.256	29067
815.397	29140
815.539	29098
815.68	29083
815.821	28949
815.962	29124
816.103	28976
816.244	28980
816.385	28820
816.526	28862
816.666	28755
816.807	28550
816.948	28767
817.089	28710
817.23	28618
817.371	28493
817.512	28481
817.653	28535
817.793	28611
817.934	28603
818.075	28664
818.216	28546
818.356	28500
818.497	28382
818.638	28344
818.778	28295
818.919	28443
819.06	28379
819.2	28303
819.341	28782
819.481	28687
819.622	28805
819.762	28995
819.903	28949
820.043	28698
820.184	28812
820.324	28687
820.465	28949
820.605	28675
820.746	28706
820.886	28683
821.026	28618
821.167	28630
821.307	28660
821.447	28664
821.588	28569
821.728	28390
821.868	28325
822.008	28067
822.149	28090
822.289	28101
822.429	27876
822.569	27762
822.709	27842
822.849	27652
822.99	27652
823.13	27542
823.27	27610
823.41	27424
823.55	27416
823.69	27401
823.83	27507
823.97	27477
824.11	27192
824.25	27192
824.389	27336
824.529	27313
824.669	27226
824.809	27473
824.949	27336
825.089	27203
825.228	27245
825.368	27108
825.508	27116
825.648	27066
825.787	27093
825.927	27230
826.067	27089
826.206	27173
826.346	27214
826.485	27203
826.625	27112
826.765	27165
826.904	27192
827.044	26986
827.183	27001
827.323	26918
827.462	26910
827.601	26921
827.741	26838
827.88	26933
828.02	26773
828.159	26735
828.298	26765
828.437	26910
828.577	26739
828.716	26868
828.855	26769
828.994	26492
829.134	26495
829.273	26579
829.412	26579
829.551	26579
829.69	26609
829.829	26583
829.968	26602
830.107	26686
830.246	26613
830.385	26545
830.524	26575
830.663	26499
830.802	26259
830.941	26134
831.08	26092
831.219	26149
831.357	26244
831.496	26305
831.635	26294
831.774	26161
831.913	25986
832.051	25917
832.19	25986
832.329	25986
832.467	25871
832.606	25791
832.744	25685
832.883	25871
833.022	25883
833.16	25833
833.299	25921
833.437	25947
833.576	25928
833.714	25890
833.852	25894
833.991	25852
834.129	26039
834.267	25932
834.406	26005
834.544	25890
834.682	25955
834.821	25890
834.959	25925
835.097	25765
835.235	25951
835.373	25776
835.511	25917
835.65	25788
835.788	25715
835.926	25738
836.064	25556
836.202	25613
836.34	25655
836.478	25883
836.615	25643
836.753	25879
836.891	25780
837.029	25719
837.167	25548
837.305	25563
837.443	25559
837.58	25514
837.718	25578
837.856	25571
837.993	25476
838.131	25510
838.269	25441
838.406	25548
838.544	25308
838.681	25145
838.819	25053
838.956	25076
839.094	24947
839.231	25072
839.369	25228
839.506	25426
839.643	25221
839.781	24943
839.918	24981
840.055	24932
840.193	24909
840.33	24886
840.467	24943
840.604	24856
840.742	25198
840.879	24814
841.016	24996
841.153	24875
841.29	25076
841.427	25031
841.564	24913
841.701	24905
841.838	24856
841.975	24894
842.112	24848
842.249	24764
842.385	24665
842.522	24958
842.659	24703
842.796	24627
842.933	24604
843.069	24681
843.206	24646
843.343	24688
843.479	24654
843.616	24711
843.752	24388
843.889	24486
844.025	24570
844.162	24414
844.298	24620
844.435	24441
844.571	24467
844.708	24494
844.844	24612
844.98	24445
845.117	24486
845.253	24498
845.389	24197
845.525	24357
845.661	24327
845.798	24155
845.934	24365
846.07	24133
846.206	24182
846.342	24365
846.478	24053
846.614	23939
846.75	23779
846.886	23809
847.022	23980
847.158	23920
847.294	23988
847.429	23939
847.565	23824
847.701	24144
847.837	23646
847.972	23562
848.108	23653
848.244	23623
848.379	23558
848.515	23391
848.65	23490
848.786	23505
848.921	23471
849.057	23528
849.192	23547
849.328	23566
849.463	23505
849.598	23410
849.734	23452
849.869	23410
850.004	23227
850.14	23296
850.275	23174
850.41	23102
850.545	23204
850.68	23166
850.815	23235
850.95	23227
851.085	23368
851.22	23292
851.355	23288
851.49	23220
851.625	22972
851.76	23155
851.895	23159
852.03	23178
852.165	23197
852.299	23212
852.434	23395
852.569	23322
852.703	23189
852.838	23216
852.973	23326
853.107	23376
853.242	23273
853.376	23159
853.511	22957
853.645	22942
853.78	23048
853.914	23102
854.048	23109
854.183	22919
854.317	23204
854.451	23261
854.585	23033
854.72	23037
854.854	23159
854.988	23022
855.122	23060
855.256	22911
855.39	22999
855.524	23117
855.658	23003
855.792	23098
855.926	23064
856.06	23090
856.194	23178
856.327	22957
856.461	23033
856.595	22949
856.729	23003
856.862	23098
856.996	23018
857.13	23060
857.263	23299
857.397	23140
857.53	23018
857.664	22995
857.797	23029
857.931	23018
858.064	23094
858.197	23094
858.331	22949
858.464	22980
858.597	23018
858.731	23067
858.864	23060
858.997	23041
859.13	23044
859.263	23052
859.396	23117
859.529	23006
859.662	23041
859.795	22900
859.928	23044
860.061	23136
860.194	23140
860.327	23109
860.46	22991
860.592	23105
860.725	23189
860.858	23117
860.99	23117
861.123	22938
861.256	23018
861.388	23067
861.521	23756
861.653	22934
861.786	22797
861.918	22900
862.05	22831
862.183	22938
862.315	22953
862.447	23071
862.58	22984
862.712	22725
862.844	22744
862.976	22953
863.108	22839
863.24	23200
863.372	22641
863.504	22713
863.636	22755
863.768	22675
863.9	22923
864.032	22721
864.164	22691
864.296	22771
864.428	22854
864.559	22752
864.691	22824
864.823	22599
864.954	22740
865.086	22755
865.217	22694
865.349	22546
865.48	22603
865.612	22706
865.743	22767
865.875	22717
866.006	22592
866.137	22626
866.269	22645
866.4	22592
866.531	22466
866.662	22409
866.793	22649
866.924	22573
867.055	22603
867.186	22497
867.317	22394
867.448	22382
867.579	22565
867.71	22519
867.841	22447
867.972	22653
868.103	22485
868.233	22535
868.364	22535
868.495	22630
868.625	22706
868.756	22771
868.886	22550
869.017	22786
869.147	22942
869.278	22915
869.408	22908
869.539	22816
869.669	22869
869.799	22908
869.929	22725
870.06	22873
870.19	23018
870.32	22961
870.45	23075
870.58	23231
870.71	23231
870.84	23178
870.97	23277
871.1	23200
871.23	23292
871.36	23444
871.489	23181
871.619	23299
871.749	23395
871.879	23376
872.008	23455
872.138	23463
872.267	23376
872.397	23349
872.526	23204
872.656	23311
872.785	23193
872.915	23486
873.044	23410
873.173	23391
873.303	23433
873.432	23486
873.561	23433
873.69	23463
873.819	23318
873.948	23410
874.077	23318
874.206	23372
874.335	23322
874.464	23429
874.593	23531
874.722	23531
874.851	23604
874.979	23668
875.108	23630
875.237	23551
875.365	23539
875.494	23554
875.623	23737
875.751	23623
875.88	23623
876.008	23786
876.136	23813
876.265	24091
876.393	24155
876.521	23992
876.65	23992
876.778	24117
876.906	23958
877.034	23817
877.162	23999
877.29	23878
877.418	24022
877.546	23870
877.674	23996
877.802	23935
877.93	23923
878.058	23836
878.185	23687
878.313	23908
878.441	23878
878.568	23767
878.696	23946
878.824	23969
878.951	23920
879.079	24140
879.206	24072
879.333	24254
879.461	23889
879.588	24030
879.715	24102
879.842	24289
879.97	23920
880.097	23824
880.224	23824
880.351	23893
880.478	23901
880.605	23767
880.732	23771
880.859	24060
880.986	23752
881.112	23748
881.239	23581
881.366	23524
881.493	23391
881.619	23417
881.746	23311
881.872	23288
881.999	23387
882.125	23250
882.252	23227
882.378	23318
882.505	23341
882.631	23166
882.757	23098
882.883	23159
883.01	23048
883.136	22999
883.262	22847
883.388	22858
883.514	23037
883.64	22991
883.766	22915
883.892	22759
884.018	22717
884.143	22927
884.269	22915
884.395	22592
884.52	22455
884.646	22748
884.772	22485
884.897	22592
885.023	22630
885.148	22774
885.274	22858
885.399	22641
885.524	22531
885.65	22592
885.775	22687
885.9	22596
886.025	22664
886.15	22645
886.275	22577
886.4	22470
886.525	22557
886.65	22557
886.775	22592
886.9	22691
887.025	22892
887.149	22626
887.274	22375
887.399	22535
887.523	22318
887.648	22284
887.773	22268
887.897	22478
888.021	22557
888.146	22192
888.27	22455
888.395	22470
888.519	22249
888.643	22287
888.767	22375
888.891	22169
889.015	22150
889.139	22147
889.263	22128
889.387	22192
889.511	22306
889.635	22185
889.759	22192
889.883	22223
890.006	22143
890.13	22314
890.254	22120
890.377	22078
890.501	21835
890.624	21941
890.748	21816
890.871	21724
890.995	21690
891.118	21660
891.241	21686
891.364	21644
891.488	21850
891.611	21747
891.734	21766
891.857	21728
891.98	21675
892.103	21591
892.226	21690
892.349	21644
892.471	21389
892.594	21679
892.717	21618
892.839	21576
892.962	21553
893.085	21614
893.207	21576
893.33	21443
893.452	21492
893.575	21542
893.697	21564
893.819	21622
893.941	21819
894.064	21641
894.186	21583
894.308	21473
894.43	21618
894.552	21770
894.674	21595
894.796	21507
894.918	21591
895.04	21595
895.161	21511
895.283	21553
895.405	21557
895.526	21443
895.648	21534
895.769	21526
895.891	21504
896.012	21469
896.134	21637
896.255	21443
896.376	21466
896.498	21496
896.619	21652
896.74	21496
896.861	21648
896.982	21861
897.103	21979
897.224	21823
897.345	21720
897.466	21629
897.587	21785
897.708	21755
897.828	21876
897.949	21583
898.07	21572
898.19	21591
898.311	21743
898.431	21728
898.552	21838
898.672	21572
898.792	21835
898.913	21800
899.033	21732
899.153	21420
899.273	21294
899.393	21462
899.513	21648
899.633	21450
899.753	21424
899.873	21450
899.993	21386
900.113	21393
900.232	21477
900.352	21344
900.472	21214
900.591	21218
900.711	21275
900.83	21154
900.95	21283
901.069	21291
901.189	21123
901.308	20834
901.427	20743
901.546	20891
901.665	20720
901.784	20811
901.904	20560
902.023	20549
902.141	20278
902.26	20415
902.379	20473
902.498	20244
902.617	20324
902.735	20278
902.854	20248
902.973	20183
903.091	20005
903.21	19932
903.328	19890
903.446	19879
903.565	19685
903.683	19643
903.801	19499
903.919	19727
904.038	19727
904.156	19403
904.274	19449
904.392	19400
904.51	19434
904.627	19415
904.745	19480
904.863	19533
904.981	19320
905.098	19122
905.216	19179
905.334	19282
905.451	19266
905.569	19114
905.686	19137
905.803	19118
905.921	18852
906.038	19012
906.155	18894
906.272	18776
906.389	18897
906.506	18570
906.623	18650
906.74	18623
906.857	18574
906.974	18574
907.091	18840
907.208	18863
907.324	18673
907.441	18490
907.557	18410
907.674	18262
907.79	18216
907.907	18296
908.023	18448
908.139	18228
908.256	18369
908.372	18102
908.488	18205
908.604	18129
908.72	18133
908.836	18038
908.952	18079
909.068	18106
909.184	18167
909.3	18038
909.415	18125
909.531	18102
909.647	17805
909.762	17714
909.878	17615
909.993	17756
910.108	17741
910.224	17646
910.339	17794
910.454	17562
910.57	17581
910.685	17406
910.8	17828
910.915	17840
911.03	17535
911.145	17356
911.259	17307
911.374	17440
911.489	17239
911.604	17208
911.718	17121
911.833	17048
911.947	17018
912.062	16843
912.176	16980
912.291	17140
912.405	16968
912.519	17254
912.633	17242
912.748	17067
912.862	17010
912.976	16850
913.09	16771
913.204	16816
913.318	16885
913.431	16866
913.545	16942
913.659	16980
913.772	16809
913.886	16790
914	16725
914.113	16786
914.226	16694
914.34	16778
914.453	16546
914.566	16698
914.68	16580
914.793	16409
914.906	16337
915.019	16287
915.132	16238
915.245	16268
915.358	16181
915.47	16234
915.583	16230
915.696	16238
915.809	16375
915.921	16390
916.034	16143
916.146	16021
916.259	16124
916.371	16120
916.483	16219
916.595	16021
916.708	16017
916.82	15975
916.932	16010
917.044	15880
917.156	16010
917.268	15781
917.38	15911
917.491	15739
917.603	15850
917.715	15941
917.826	16017
917.938	15682
918.049	15728
918.161	15854
918.272	15941
918.384	15960
918.495	15717
918.606	15618
918.717	15458
918.828	15656
918.939	15625
919.05	15542
919.161	15496
919.272	15298
919.383	15344
919.494	15564
919.604	15709
919.715	15530
919.826	15363
919.936	15469
920.047	15580
920.157	15557
920.267	15705
920.378	15553
920.488	15496
920.598	15751
920.708	15816
920.818	15671
920.928	15644
921.038	15846
921.148	15762
921.258	15488
921.368	15389
921.477	15249
921.587	15252
921.697	15055
921.806	15195
921.916	15047
922.025	14781
922.134	14826
922.244	14815
922.353	14921
922.462	14769
922.571	14701
922.68	14446
922.789	14587
922.898	14552
923.007	14400
923.116	14511
923.224	14423
923.333	14454
923.442	14286
923.55	14343
923.659	14385
923.767	14446
923.876	14271
923.984	14370
924.092	14244
924.201	14256
924.309	14248
924.417	14195
924.525	14176
924.633	14153
924.741	14876
924.849	13871
924.956	14081
925.064	13928
925.172	13776
925.279	13856
925.387	13951
925.494	13860
925.602	13963
925.709	13909
925.816	13814
925.924	13841
926.031	13944
926.138	13780
926.245	13845
926.352	13700
926.459	13830
926.566	13879
926.673	13693
926.779	13738
926.886	13567
926.993	13510
927.099	13495
927.206	13411
927.312	13392
927.419	13396
927.525	13403
927.631	13434
927.737	13392
927.843	13240
927.95	13118
928.056	13179
928.162	13285
928.267	13320
928.373	13818
928.479	13228
928.585	13103
928.69	13274
928.796	13324
928.901	13156
929.007	12935
929.112	13145
929.218	12977
929.323	12882
929.428	12905
929.533	13046
929.638	12852
929.743	12909
929.848	12890
929.953	12939
930.058	12677
930.163	12566
930.267	12585
930.372	12768
930.477	12525
930.581	12722
930.685	12787
930.79	12479
930.894	12525
930.998	12448
931.103	12604
931.207	12205
931.311	12190
931.415	12068
931.519	11840
931.623	11775
