Data from test_V78500241_193.txt Node
Date: Fri Mar 25 15:43:08 CST 2022
User: usil
Spectrometer: V785-0024
Trigger mode: 0
Integration Time (sec): 4.000000E-1
Scans to average: 1
Nonlinearity correction enabled: false
Boxcar width: 0
Storing dark spectrum: false
XAxis mode: Wavelengths
Number of Pixels in Spectrum: 1024
>>>>>Begin Spectral Data<<<<<
801.071	29722
801.214	29661
801.356	29417
801.499	29379
801.641	29440
801.783	29296
801.926	29391
802.068	29299
802.211	29239
802.353	29178
802.496	28885
802.638	28972
802.78	28854
802.923	28869
803.065	28930
803.208	28938
803.35	29037
803.492	28999
803.635	29094
803.777	29006
803.919	29200
804.061	29383
804.204	29132
804.346	28949
804.488	28927
804.63	28999
804.773	28873
804.915	28972
805.057	29147
805.199	29022
805.341	28968
805.483	29105
805.626	29166
805.768	29064
805.91	29273
806.052	29322
806.194	29109
806.336	29360
806.478	29292
806.62	29166
806.762	29326
806.904	29410
807.046	29710
807.188	29630
807.33	29608
807.472	29547
807.614	29570
807.756	29524
807.898	29337
808.04	29235
808.182	29425
808.324	29383
808.465	29349
808.607	29516
808.749	29600
808.891	29798
809.033	29901
809.174	29600
809.316	29680
809.458	29764
809.6	29687
809.741	29847
809.883	29851
810.025	29882
810.166	29882
810.308	29965
810.45	30003
810.591	29779
810.733	29707
810.875	29611
811.016	29760
811.158	29718
811.299	29870
811.441	29828
811.582	29961
811.724	29771
811.865	29573
812.007	29783
812.148	29680
812.29	29649
812.431	29859
812.573	29912
812.714	30034
812.855	30186
812.997	30144
813.138	30593
813.279	30258
813.421	30197
813.562	30171
813.703	29836
813.845	29813
813.986	29615
814.127	29474
814.268	29410
814.41	29337
814.551	29326
814.692	29178
814.833	29147
814.974	29193
815.115	29375
815.256	29212
815.397	29178
815.539	29102
815.68	29128
815.821	29105
815.962	29117
816.103	28972
816.244	29124
816.385	28862
816.526	28835
816.666	28694
816.807	28538
816.948	28649
817.089	28672
817.23	28573
817.371	28436
817.512	28470
817.653	28535
817.793	28443
817.934	28523
818.075	28630
818.216	28565
818.356	28375
818.497	28291
818.638	28166
818.778	28143
818.919	28207
819.06	28386
819.2	28162
819.341	28417
819.481	28310
819.622	28653
819.762	28634
819.903	28725
820.043	28577
820.184	28436
820.324	28512
820.465	28459
820.605	28500
820.746	28485
820.886	28401
821.026	28409
821.167	28440
821.307	28554
821.447	28257
821.588	28253
821.728	28029
821.868	28021
822.008	27705
822.149	27899
822.289	27854
822.429	27469
822.569	27412
822.709	27466
822.849	27245
822.99	27382
823.13	27264
823.27	27317
823.41	27138
823.55	26914
823.69	27112
823.83	27074
823.97	27062
824.11	26883
824.25	26819
824.389	26876
824.529	27005
824.669	26792
824.809	27005
824.949	26921
825.089	26895
825.228	26918
825.368	26705
825.508	26693
825.648	26735
825.787	26883
825.927	26891
826.067	26731
826.206	26792
826.346	26811
826.485	26785
826.625	26739
826.765	26762
826.904	26701
827.044	26480
827.183	26396
827.323	26225
827.462	26450
827.601	26453
827.741	26434
827.88	26488
828.02	26381
828.159	26336
828.298	26484
828.437	26374
828.577	26324
828.716	26336
828.855	26381
828.994	26134
829.134	26065
829.273	26119
829.412	25955
829.551	26077
829.69	25974
829.829	26088
829.968	26054
830.107	26111
830.246	26035
830.385	25966
830.524	25963
830.663	25746
830.802	25693
830.941	25563
831.08	25632
831.219	25712
831.357	25677
831.496	25849
831.635	25677
831.774	25472
831.913	25346
832.051	25339
832.19	25304
832.329	25331
832.467	25251
832.606	25255
832.744	25312
832.883	25209
833.022	25168
833.16	25133
833.299	25175
833.437	25225
833.576	25392
833.714	25141
833.852	25327
833.991	25396
834.129	25293
834.267	25403
834.406	25240
834.544	25274
834.682	25164
834.821	25133
834.959	25350
835.097	25141
835.235	25247
835.373	25061
835.511	25274
835.65	25057
835.788	25141
835.926	24958
836.064	24890
836.202	24928
836.34	24958
836.478	25088
836.615	24977
836.753	25031
836.891	25141
837.029	25057
837.167	24962
837.305	24833
837.443	24837
837.58	24913
837.718	25072
837.856	24852
837.993	24829
838.131	24894
838.269	24696
838.406	24749
838.544	24730
838.681	24483
838.819	24304
838.956	24380
839.094	24174
839.231	24304
839.369	24399
839.506	24528
839.643	24445
839.781	24201
839.918	24266
840.055	24194
840.193	24232
840.33	24140
840.467	24053
840.604	24258
840.742	24460
840.879	24049
841.016	24068
841.153	24045
841.29	24247
841.427	24152
841.564	24136
841.701	24079
841.838	24106
841.975	24022
842.112	24030
842.249	23977
842.385	24018
842.522	24034
842.659	23893
842.796	23855
842.933	23885
843.069	23726
843.206	23649
843.343	23840
843.479	23828
843.616	23817
843.752	23596
843.889	23520
844.025	23748
844.162	23589
844.298	23596
844.435	23623
844.571	23596
844.708	23684
844.844	23771
844.98	23665
845.117	23733
845.253	23535
845.389	23459
845.525	23467
845.661	23497
845.798	23273
845.934	23315
846.07	23269
846.206	23280
846.342	23402
846.478	23231
846.614	23174
846.75	23052
846.886	22938
847.022	23064
847.158	22957
847.294	23083
847.429	23075
847.565	22869
847.701	23140
847.837	22668
847.972	22634
848.108	22725
848.244	22759
848.379	22569
848.515	22550
848.65	22519
848.786	22535
848.921	22523
849.057	22664
849.192	22630
849.328	22584
849.463	22527
849.598	22462
849.734	22466
849.869	22413
850.004	22417
850.14	22322
850.275	22215
850.41	22200
850.545	22192
850.68	22287
850.815	22382
850.95	22249
851.085	22421
851.22	22303
851.355	22322
851.49	22215
851.625	22303
851.76	22318
851.895	22169
852.03	22215
852.165	22268
852.299	22333
852.434	22284
852.569	22306
852.703	22246
852.838	22272
852.973	22382
853.107	22318
853.242	22169
853.376	22044
853.511	22074
853.645	22010
853.78	22249
853.914	22067
854.048	22074
854.183	22048
854.317	21979
854.451	22207
854.585	21975
854.72	22109
854.854	22150
854.988	21960
855.122	22090
855.256	22029
855.39	21987
855.524	22242
855.658	22124
855.792	22086
855.926	22158
856.06	22181
856.194	22177
856.327	21975
856.461	22082
856.595	21994
856.729	22040
856.862	22139
856.996	22097
857.13	22139
857.263	22268
857.397	22112
857.53	22021
857.664	22006
857.797	22150
857.931	22150
858.064	22166
858.197	22185
858.331	21960
858.464	21941
858.597	21949
858.731	21983
858.864	21975
858.997	21918
859.13	22040
859.263	21941
859.396	22120
859.529	22025
859.662	21922
859.795	21930
859.928	21998
860.061	22116
860.194	22093
860.327	21960
860.46	22021
860.592	22116
860.725	22074
860.858	22185
860.99	21895
861.123	21949
861.256	21850
861.388	21979
861.521	22630
861.653	21941
861.786	21804
861.918	21903
862.05	21975
862.183	22029
862.315	22082
862.447	22021
862.58	21903
862.712	21682
862.844	21709
862.976	21797
863.108	21846
863.24	22051
863.372	21572
863.504	21622
863.636	21732
863.768	21724
863.9	21603
864.032	21492
864.164	21576
864.296	21652
864.428	21816
864.559	21861
864.691	21789
864.823	21667
864.954	21652
865.086	21618
865.217	21580
865.349	21481
865.48	21618
865.612	21561
865.743	21808
865.875	21542
866.006	21526
866.137	21557
866.269	21526
866.4	21553
866.531	21534
866.662	21378
866.793	21549
866.924	21447
867.055	21450
867.186	21431
867.317	21412
867.448	21298
867.579	21420
867.71	21302
867.841	21405
867.972	21515
868.103	21466
868.233	21473
868.364	21393
868.495	21599
868.625	21755
868.756	21816
868.886	21660
869.017	21686
869.147	21800
869.278	21835
869.408	21751
869.539	21671
869.669	21724
869.799	21713
869.929	21846
870.06	21892
870.19	22059
870.32	22063
870.45	22097
870.58	22105
870.71	22185
870.84	22249
870.97	22131
871.1	22093
871.23	22196
871.36	22390
871.489	22101
871.619	22173
871.749	22322
871.879	22306
872.008	22459
872.138	22158
872.267	22344
872.397	22242
872.526	22200
872.656	22150
872.785	22196
872.915	22242
873.044	22310
873.173	22265
873.303	22356
873.432	22306
873.561	22432
873.69	22375
873.819	22318
873.948	22489
874.077	22325
874.206	22234
874.335	22322
874.464	22504
874.593	22668
874.722	22474
874.851	22550
874.979	22618
875.108	22474
875.237	22459
875.365	22421
875.494	22618
875.623	22550
875.751	22382
875.88	22656
876.008	22755
876.136	22793
876.265	22991
876.393	23029
876.521	22896
876.65	22995
876.778	23033
876.906	22919
877.034	22896
877.162	22885
877.29	22828
877.418	22934
877.546	22972
877.674	22972
877.802	22923
877.93	22820
878.058	22877
878.185	22831
878.313	22801
878.441	22740
878.568	22713
878.696	22862
878.824	22915
878.951	22965
879.079	23071
879.206	23170
879.333	23117
879.461	22839
879.588	22965
879.715	23064
879.842	23124
879.97	22927
880.097	22774
880.224	22782
880.351	22717
880.478	22645
880.605	22733
880.732	22664
880.859	22904
880.986	22812
881.112	22721
881.239	22489
881.366	22512
881.493	22428
881.619	22284
881.746	22295
881.872	22333
881.999	22257
882.125	22268
882.252	22318
882.378	22291
882.505	22363
882.631	22215
882.757	22139
882.883	22013
883.01	22021
883.136	21838
883.262	21835
883.388	21888
883.514	22063
883.64	22067
883.766	21911
883.892	21724
884.018	21861
884.143	21907
884.269	22116
884.395	21705
884.52	21591
884.646	21663
884.772	21408
884.897	21526
885.023	21694
885.148	21808
885.274	21793
885.399	21739
885.524	21553
885.65	21660
885.775	21595
885.9	21587
886.025	21785
886.15	21644
886.275	21599
886.4	21515
886.525	21663
886.65	21454
886.775	21538
886.9	21724
887.025	21892
887.149	21538
887.274	21507
887.399	21416
887.523	21386
887.648	21488
887.773	21298
887.897	21340
888.021	21370
888.146	21268
888.27	21485
888.395	21515
888.519	21408
888.643	21431
888.767	21268
888.891	21252
889.015	21074
889.139	21161
889.263	21127
889.387	21294
889.511	21439
889.635	21336
889.759	21123
889.883	21150
890.006	21161
890.13	21192
890.254	21074
890.377	20986
890.501	20967
890.624	20781
890.748	20849
890.871	20754
890.995	20682
891.118	20632
891.241	20743
891.364	20727
891.488	20804
891.611	20693
891.734	20781
891.857	20743
891.98	20769
892.103	20815
892.226	20739
892.349	20701
892.471	20488
892.594	20556
892.717	20571
892.839	20648
892.962	20530
893.085	20659
893.207	20556
893.33	20465
893.452	20507
893.575	20579
893.697	20484
893.819	20712
893.941	20849
894.064	20743
894.186	20442
894.308	20579
894.43	20583
894.552	20606
894.674	20625
894.796	20511
894.918	20545
895.04	20590
895.161	20590
895.283	20621
895.405	20503
895.526	20606
895.648	20587
895.769	20568
895.891	20625
896.012	20716
896.134	20792
896.255	20598
896.376	20590
896.498	20632
896.619	20739
896.74	20617
896.861	20682
896.982	20944
897.103	21039
897.224	20792
897.345	20864
897.466	20697
897.587	20853
897.708	20944
897.828	20857
897.949	20739
898.07	20568
898.19	20724
898.311	20971
898.431	20807
898.552	20796
898.672	20826
898.792	20838
898.913	20754
899.033	20651
899.153	20533
899.273	20533
899.393	20461
899.513	20560
899.633	20503
899.753	20480
899.873	20454
899.993	20374
900.113	20396
900.232	20450
900.352	20385
900.472	20328
900.591	20229
900.711	20336
900.83	20286
900.95	20434
901.069	20301
901.189	20176
901.308	20081
901.427	19795
901.546	19883
901.665	19837
901.784	19902
901.904	19666
902.023	19590
902.141	19381
902.26	19335
902.379	19514
902.498	19202
902.617	19133
902.735	19438
902.854	19240
902.973	19282
903.091	19027
903.21	19034
903.328	19038
903.446	18932
903.565	18795
903.683	18776
903.801	18665
903.919	18894
904.038	18821
904.156	18585
904.274	18726
904.392	18635
904.51	18540
904.627	18532
904.745	18509
904.863	18551
904.981	18330
905.098	18338
905.216	18262
905.334	18308
905.451	18270
905.569	18209
905.686	18273
905.803	18251
905.921	18064
906.038	18125
906.155	18095
906.272	17901
906.389	17904
906.506	17722
906.623	17729
906.74	17783
906.857	17665
906.974	17619
907.091	17661
907.208	17859
907.324	17741
907.441	17638
907.557	17455
907.674	17398
907.79	17288
907.907	17239
908.023	17478
908.139	17318
908.256	17296
908.372	17360
908.488	17102
908.604	17204
908.72	16987
908.836	17113
908.952	17098
909.068	17204
909.184	17208
909.3	17102
909.415	17048
909.531	17067
909.647	16824
909.762	16892
909.878	16786
909.993	16828
910.108	16656
910.224	16752
910.339	16740
910.454	16599
910.57	16683
910.685	16584
910.8	16702
910.915	16759
911.03	16565
911.145	16516
911.259	16344
911.374	16367
911.489	16268
911.604	16257
911.718	16120
911.833	16139
911.947	15991
912.062	15949
912.176	16093
912.291	16078
912.405	16177
912.519	16337
912.633	16360
912.748	16211
912.862	16071
912.976	15876
913.09	15800
913.204	15789
913.318	15873
913.431	15972
913.545	15972
913.659	16025
913.772	15888
913.886	15812
914	15724
914.113	15778
914.226	15835
914.34	15846
914.453	15656
914.566	15720
914.68	15568
914.793	15500
914.906	15348
915.019	15336
915.132	15233
915.245	15355
915.358	15291
915.47	15386
915.583	15359
915.696	15435
915.809	15542
915.921	15389
916.034	15218
916.146	15169
916.259	15218
916.371	15367
916.483	15272
916.595	15199
916.708	15138
916.82	15230
916.932	15195
917.044	15062
917.156	15043
917.268	14979
917.38	14982
917.491	14971
917.603	14941
917.715	15032
917.826	14975
917.938	14933
918.049	14674
918.161	14883
918.272	14956
918.384	14990
918.495	14868
918.606	14663
918.717	14560
918.828	14621
918.939	14632
919.05	14648
919.161	14720
919.272	14396
919.383	14526
919.494	14655
919.604	14838
919.715	14663
919.826	14587
919.936	14613
920.047	14750
920.157	14667
920.267	14765
920.378	14606
920.488	14602
920.598	14807
920.708	14921
920.818	14743
920.928	14762
921.038	14918
921.148	14880
921.258	14530
921.368	14480
921.477	14366
921.587	14206
921.697	14164
921.806	14362
921.916	14252
922.025	14115
922.134	13963
922.244	13936
922.353	14062
922.462	13928
922.571	13826
922.68	13632
922.789	13632
922.898	13601
923.007	13510
923.116	13582
923.224	13597
923.333	13586
923.442	13449
923.55	13396
923.659	13396
923.767	13521
923.876	13426
923.984	13422
924.092	13324
924.201	13415
924.309	13346
924.417	13297
924.525	13297
924.633	13362
924.741	14115
924.849	13038
924.956	13171
925.064	12989
925.172	12875
925.279	13027
925.387	13008
925.494	13015
925.602	13187
925.709	13118
925.816	12924
925.924	12989
926.031	13145
926.138	12928
926.245	13015
926.352	12924
926.459	13000
926.566	12996
926.673	12852
926.779	12802
926.886	12688
926.993	12669
927.099	12551
927.206	12646
927.312	12521
927.419	12616
927.525	12570
927.631	12589
927.737	12391
927.843	12369
927.95	12311
928.056	12388
928.162	12407
928.267	12517
928.373	13065
928.479	12452
928.585	12216
928.69	12422
928.796	12437
928.901	12251
929.007	12133
929.112	12285
929.218	12136
929.323	12205
929.428	12087
929.533	12270
929.638	12053
929.743	12114
929.848	12064
929.953	12019
930.058	11984
930.163	11863
930.267	11935
930.372	11920
930.477	11729
930.581	11992
930.685	11882
930.79	11748
930.894	11653
930.998	11668
931.103	11805
931.207	11364
931.311	11303
931.415	11208
931.519	11064
931.623	11037
