Data from test_V78500241_541.txt Node
Date: Fri Mar 25 15:45:32 CST 2022
User: usil
Spectrometer: V785-0024
Trigger mode: 0
Integration Time (sec): 4.000000E-1
Scans to average: 1
Nonlinearity correction enabled: false
Boxcar width: 0
Storing dark spectrum: false
XAxis mode: Wavelengths
Number of Pixels in Spectrum: 1024
>>>>>Begin Spectral Data<<<<<
801.071	27789
801.214	27766
801.356	27466
801.499	27462
801.641	27397
801.783	27462
801.926	27481
802.068	27351
802.211	27252
802.353	27192
802.496	27112
802.638	26849
802.78	27001
802.923	27104
803.065	27058
803.208	27062
803.35	27104
803.492	27100
803.635	27104
803.777	27138
803.919	27176
804.061	27435
804.204	27237
804.346	27214
804.488	27119
804.63	27226
804.773	27146
804.915	27230
805.057	27420
805.199	27245
805.341	27348
805.483	27447
805.626	27268
805.768	27157
805.91	27424
806.052	27294
806.194	27252
806.336	27519
806.478	27389
806.62	27386
806.762	27412
806.904	27572
807.046	27854
807.188	27724
807.33	27720
807.472	27709
807.614	27686
807.756	27713
807.898	27663
808.04	27599
808.182	27530
808.324	27599
808.465	27694
808.607	27835
808.749	27972
808.891	27914
809.033	28230
809.174	28055
809.316	27934
809.458	27850
809.6	27899
809.741	28139
809.883	28139
810.025	28299
810.166	28211
810.308	28443
810.45	28196
810.591	28272
810.733	28032
810.875	27892
811.016	27808
811.158	27918
811.299	28067
811.441	28158
811.582	28158
811.724	27884
811.865	28025
812.007	27861
812.148	27934
812.29	27956
812.431	28185
812.573	28455
812.714	28455
812.855	28409
812.997	28474
813.138	28843
813.279	28508
813.421	28531
813.562	28478
813.703	28322
813.845	28154
813.986	27778
814.127	27660
814.268	27724
814.41	27663
814.551	27637
814.692	27603
814.833	27545
814.974	27652
815.115	27656
815.256	27363
815.397	27496
815.539	27667
815.68	27397
815.821	27412
815.962	27374
816.103	27519
816.244	27154
816.385	27325
816.526	27218
816.666	27032
816.807	26986
816.948	26929
817.089	27188
817.23	27047
817.371	26811
817.512	26830
817.653	27032
817.793	26872
817.934	27039
818.075	26864
818.216	27032
818.356	26880
818.497	26731
818.638	26655
818.778	26701
818.919	26720
819.06	26769
819.2	26830
819.341	26925
819.481	26899
819.622	26975
819.762	27135
819.903	27081
820.043	27157
820.184	27024
820.324	27226
820.465	27142
820.605	26975
820.746	27112
820.886	26895
821.026	27058
821.167	26895
821.307	27089
821.447	27001
821.588	26777
821.728	26716
821.868	26453
822.008	26476
822.149	26381
822.289	26358
822.429	26229
822.569	26069
822.709	26119
822.849	25944
822.99	26073
823.13	25807
823.27	25811
823.41	25658
823.55	25696
823.69	25788
823.83	25731
823.97	25719
824.11	25495
824.25	25597
824.389	25514
824.529	25502
824.669	25624
824.809	25685
824.949	25666
825.089	25708
825.228	25658
825.368	25365
825.508	25441
825.648	25495
825.787	25499
825.927	25552
826.067	25381
826.206	25430
826.346	25453
826.485	25468
826.625	25502
826.765	25388
826.904	25460
827.044	25133
827.183	25175
827.323	25129
827.462	25213
827.601	25061
827.741	25156
827.88	25141
828.02	25027
828.159	25168
828.298	25069
828.437	25084
828.577	25000
828.716	25194
828.855	25027
828.994	24776
829.134	24772
829.273	24764
829.412	24768
829.551	24852
829.69	24798
829.829	24817
829.968	24798
830.107	24814
830.246	24837
830.385	24646
830.524	24711
830.663	24665
830.802	24517
830.941	24372
831.08	24456
831.219	24399
831.357	24471
831.496	24536
831.635	24441
831.774	24365
831.913	24178
832.051	24273
832.19	24197
832.329	24247
832.467	24076
832.606	24129
832.744	24121
832.883	24102
833.022	23988
833.16	24125
833.299	24049
833.437	24209
833.576	24182
833.714	24030
833.852	24220
833.991	24220
834.129	24167
834.267	24216
834.406	24060
834.544	24251
834.682	24068
834.821	24133
834.959	24258
835.097	24152
835.235	24148
835.373	24136
835.511	24133
835.65	24003
835.788	23817
835.926	23790
836.064	23859
836.202	23710
836.34	23942
836.478	24060
836.615	23916
836.753	23954
836.891	24030
837.029	23992
837.167	23927
837.305	23870
837.443	23859
837.58	23878
837.718	23916
837.856	23802
837.993	23794
838.131	23767
838.269	23596
838.406	23840
838.544	23707
838.681	23406
838.819	23463
838.956	23379
839.094	23326
839.231	23311
839.369	23547
839.506	23680
839.643	23452
839.781	23265
839.918	23227
840.055	23273
840.193	23212
840.33	23239
840.467	23258
840.604	23292
840.742	23448
840.879	23056
841.016	23174
841.153	23162
841.29	23212
841.427	23204
841.564	23269
841.701	23204
841.838	23128
841.975	23178
842.112	23056
842.249	23124
842.385	22980
842.522	23174
842.659	23010
842.796	22889
842.933	22976
843.069	22896
843.206	22995
843.343	22987
843.479	22965
843.616	22892
843.752	22675
843.889	22675
844.025	22759
844.162	22668
844.298	22725
844.435	22664
844.571	22740
844.708	22721
844.844	22725
844.98	22938
845.117	22812
845.253	22637
845.389	22622
845.525	22706
845.661	22542
845.798	22474
845.934	22554
846.07	22508
846.206	22447
846.342	22569
846.478	22474
846.614	22284
846.75	22192
846.886	22265
847.022	22223
847.158	22238
847.294	22253
847.429	22173
847.565	22150
847.701	22352
847.837	22025
847.972	21960
848.108	22040
848.244	21998
848.379	21899
848.515	21819
848.65	21835
848.786	21804
848.921	21854
849.057	21975
849.192	21869
849.328	21770
849.463	21800
849.598	21762
849.734	21637
849.869	21679
850.004	21580
850.14	21618
850.275	21701
850.41	21519
850.545	21492
850.68	21458
850.815	21576
850.95	21511
851.085	21694
851.22	21637
851.355	21572
851.49	21648
851.625	21610
851.76	21557
851.895	21401
852.03	21462
852.165	21545
852.299	21530
852.434	21762
852.569	21561
852.703	21564
852.838	21606
852.973	21652
853.107	21652
853.242	21553
853.376	21405
853.511	21386
853.645	21367
853.78	21450
853.914	21443
854.048	21348
854.183	21393
854.317	21367
854.451	21549
854.585	21283
854.72	21336
854.854	21496
854.988	21321
855.122	21405
855.256	21176
855.39	21329
855.524	21466
855.658	21359
855.792	21439
855.926	21447
856.06	21473
856.194	21382
856.327	21351
856.461	21374
856.595	21389
856.729	21336
856.862	21450
856.996	21405
857.13	21469
857.263	21488
857.397	21553
857.53	21450
857.664	21348
857.797	21481
857.931	21378
858.064	21393
858.197	21336
858.331	21321
858.464	21420
858.597	21291
858.731	21382
858.864	21226
858.997	21355
859.13	21378
859.263	21344
859.396	21408
859.529	21321
859.662	21329
859.795	21237
859.928	21424
860.061	21564
860.194	21519
860.327	21481
860.46	21340
860.592	21405
860.725	21545
860.858	21412
860.99	21367
861.123	21370
861.256	21428
861.388	21317
861.521	21934
861.653	21150
861.786	21131
861.918	21173
862.05	21298
862.183	21154
862.315	21302
862.447	21340
862.58	21317
862.712	21123
862.844	21096
862.976	21203
863.108	21100
863.24	21481
863.372	20944
863.504	21024
863.636	21005
863.768	21112
863.9	21104
864.032	21024
864.164	21051
864.296	21028
864.428	21264
864.559	21218
864.691	21108
864.823	21070
864.954	21123
865.086	20910
865.217	20982
865.349	20864
865.48	20925
865.612	21085
865.743	21051
865.875	20910
866.006	20941
866.137	20887
866.269	20967
866.4	21009
866.531	20857
866.662	20941
866.793	20948
866.924	20941
867.055	20861
867.186	21039
867.317	20918
867.448	20834
867.579	20918
867.71	20762
867.841	20705
867.972	20906
868.103	20895
868.233	20815
868.364	20914
868.495	21043
868.625	21081
868.756	21272
868.886	21218
869.017	21089
869.147	21272
869.278	21306
869.408	21074
869.539	21184
869.669	21260
869.799	21146
869.929	21317
870.06	21176
870.19	21450
870.32	21458
870.45	21583
870.58	21443
870.71	21663
870.84	21701
870.97	21603
871.1	21523
871.23	21732
871.36	21679
871.489	21766
871.619	21762
871.749	21690
871.879	21770
872.008	21835
872.138	21720
872.267	21701
872.397	21686
872.526	21545
872.656	21644
872.785	21473
872.915	21648
873.044	21899
873.173	21762
873.303	21778
873.432	21698
873.561	21937
873.69	21682
873.819	21793
873.948	21812
874.077	21842
874.206	21797
874.335	21717
874.464	21819
874.593	22128
874.722	22032
874.851	22055
874.979	21960
875.108	21998
875.237	22025
875.365	21907
875.494	21937
875.623	22067
875.751	21964
875.88	22006
876.008	22063
876.136	22078
876.265	22417
876.393	22607
876.521	22409
876.65	22394
876.778	22299
876.906	22417
877.034	22253
877.162	22246
877.29	22310
877.418	22291
877.546	22466
877.674	22466
877.802	22329
877.93	22310
878.058	22284
878.185	22188
878.313	22261
878.441	22280
878.568	22139
878.696	22207
878.824	22341
878.951	22402
879.079	22485
879.206	22599
879.333	22493
879.461	22424
879.588	22481
879.715	22519
879.842	22763
879.97	22527
880.097	22116
880.224	22131
880.351	22124
880.478	22082
880.605	22173
880.732	22230
880.859	22360
880.986	22181
881.112	22204
881.239	22124
881.366	21945
881.493	21804
881.619	21823
881.746	21838
881.872	21671
881.999	21660
882.125	21625
882.252	21732
882.378	21789
882.505	21903
882.631	21614
882.757	21488
882.883	21488
883.01	21382
883.136	21370
883.262	21355
883.388	21252
883.514	21538
883.64	21462
883.766	21363
883.892	21241
884.018	21203
884.143	21378
884.269	21340
884.395	21207
884.52	21154
884.646	21062
884.772	21100
884.897	20982
885.023	21051
885.148	21138
885.274	21154
885.399	21291
885.524	21176
885.65	21062
885.775	21024
885.9	21051
886.025	21188
886.15	21081
886.275	21039
886.4	21009
886.525	21081
886.65	21047
886.775	21009
886.9	21173
887.025	21351
887.149	21055
887.274	20971
887.399	20872
887.523	20777
887.648	20788
887.773	20739
887.897	20975
888.021	20910
888.146	20788
888.27	20921
888.395	20823
888.519	20785
888.643	20762
888.767	20804
888.891	20697
889.015	20682
889.139	20682
889.263	20507
889.387	20781
889.511	20853
889.635	20765
889.759	20564
889.883	20590
890.006	20545
890.13	20659
890.254	20503
890.377	20621
890.501	20431
890.624	20377
890.748	20507
890.871	20275
890.995	20195
891.118	20221
891.241	20027
891.364	20275
891.488	20385
891.611	20187
891.734	20214
891.857	20328
891.98	20176
892.103	20244
892.226	20259
892.349	20142
892.471	20062
892.594	20164
892.717	20157
892.839	20096
892.962	20206
893.085	20176
893.207	20107
893.33	19959
893.452	20142
893.575	20149
893.697	20073
893.819	20286
893.941	20324
894.064	20305
894.186	20062
894.308	20145
894.43	20107
894.552	20244
894.674	20202
894.796	20001
894.918	20157
895.04	20043
895.161	20092
895.283	20115
895.405	19993
895.526	20130
895.648	20100
895.769	20157
895.891	20050
896.012	20294
896.134	20244
896.255	20122
896.376	19936
896.498	20062
896.619	20172
896.74	20103
896.861	20206
896.982	20454
897.103	20720
897.224	20374
897.345	20438
897.466	20309
897.587	20339
897.708	20530
897.828	20404
897.949	20370
898.07	20145
898.19	20229
898.311	20511
898.431	20233
898.552	20347
898.672	20370
898.792	20404
898.913	20358
899.033	20199
899.153	20161
899.273	20115
899.393	20187
899.513	20100
899.633	20008
899.753	20062
899.873	20016
899.993	20142
900.113	20016
900.232	20020
900.352	19944
900.472	19989
900.591	19837
900.711	19875
900.83	19811
900.95	19993
901.069	19890
901.189	19837
901.308	19521
901.427	19422
901.546	19419
901.665	19567
901.784	19464
901.904	19244
902.023	19194
902.141	19046
902.26	18966
902.379	19004
902.498	19034
902.617	18989
902.735	19015
902.854	18890
902.973	18878
903.091	18654
903.21	18646
903.328	18650
903.446	18559
903.565	18437
903.683	18350
903.801	18357
903.919	18391
904.038	18296
904.156	18277
904.274	18251
904.392	18235
904.51	18152
904.627	18182
904.745	18239
904.863	18239
904.981	18087
905.098	17863
905.216	17847
905.334	17904
905.451	17939
905.569	17874
905.686	17912
905.803	17908
905.921	17676
906.038	17798
906.155	17771
906.272	17566
906.389	17547
906.506	17493
906.623	17486
906.74	17429
906.857	17337
906.974	17299
907.091	17551
907.208	17452
907.324	17459
907.441	17258
907.557	17159
907.674	17143
907.79	17174
907.907	17159
908.023	17208
908.139	17193
908.256	17079
908.372	17060
908.488	17033
908.604	16885
908.72	16824
908.836	16854
908.952	16877
909.068	16965
909.184	16911
909.3	16824
909.415	16961
909.531	16717
909.647	16554
909.762	16550
909.878	16512
909.993	16569
910.108	16637
910.224	16489
910.339	16641
910.454	16504
910.57	16382
910.685	16291
910.8	16565
910.915	16485
911.03	16363
911.145	16230
911.259	16071
911.374	16196
911.489	16017
911.604	15964
911.718	15937
911.833	15899
911.947	15728
912.062	15720
912.176	15926
912.291	15953
912.405	15880
912.519	16086
912.633	16109
912.748	15930
912.862	15823
912.976	15603
913.09	15686
913.204	15656
913.318	15762
913.431	15755
913.545	15713
913.659	15823
913.772	15606
913.886	15526
914	15496
914.113	15572
914.226	15599
914.34	15523
914.453	15359
914.566	15625
914.68	15336
914.793	15340
914.906	15222
915.019	15176
915.132	15036
915.245	15043
915.358	15127
915.47	15157
915.583	15123
915.696	15066
915.809	15188
915.921	15226
916.034	15036
916.146	15058
916.259	14933
916.371	15184
916.483	15066
916.595	14891
916.708	14872
916.82	15032
916.932	14910
917.044	14910
917.156	14872
917.268	14807
917.38	14781
917.491	14754
917.603	14762
917.715	14777
917.826	14880
917.938	14689
918.049	14575
918.161	14800
918.272	14880
918.384	14826
918.495	14689
918.606	14583
918.717	14488
918.828	14541
918.939	14625
919.05	14457
919.161	14461
919.272	14298
919.383	14362
919.494	14526
919.604	14743
919.715	14587
919.826	14374
919.936	14469
920.047	14480
920.157	14499
920.267	14648
920.378	14579
920.488	14396
920.598	14701
920.708	14845
920.818	14640
920.928	14716
921.038	14834
921.148	14712
921.258	14530
921.368	14404
921.477	14259
921.587	14180
921.697	14069
921.806	14275
921.916	14100
922.025	13970
922.134	13830
922.244	13811
922.353	13898
922.462	13807
922.571	13670
922.68	13533
922.789	13411
922.898	13529
923.007	13559
923.116	13563
923.224	13483
923.333	13491
923.442	13419
923.55	13225
923.659	13324
923.767	13346
923.876	13362
923.984	13365
924.092	13228
924.201	13194
924.309	13209
924.417	13304
924.525	13236
924.633	13236
924.741	13917
924.849	12966
924.956	13202
925.064	12916
925.172	12920
925.279	12970
925.387	12970
925.494	12897
925.602	13129
925.709	13065
925.816	12859
925.924	12852
926.031	13019
926.138	12951
926.245	12970
926.352	12833
926.459	12985
926.566	12905
926.673	12932
926.779	12757
926.886	12650
926.993	12620
927.099	12563
927.206	12540
927.312	12479
927.419	12521
927.525	12532
927.631	12536
927.737	12460
927.843	12437
927.95	12262
928.056	12296
928.162	12426
928.267	12311
928.373	12935
928.479	12460
928.585	12159
928.69	12289
928.796	12376
928.901	12178
929.007	12083
929.112	12201
929.218	12292
929.323	12129
929.428	12114
929.533	12201
929.638	11980
929.743	12038
929.848	12045
929.953	11992
930.058	11935
930.163	11790
930.267	11737
930.372	11965
930.477	11748
930.581	11965
930.685	11805
930.79	11634
930.894	11733
930.998	11630
931.103	11760
931.207	11459
931.311	11436
931.415	11269
931.519	11041
931.623	11052
