Data from test_V78500241_1096.txt Node
Date: Fri Mar 25 15:49:23 CST 2022
User: usil
Spectrometer: V785-0024
Trigger mode: 0
Integration Time (sec): 4.000000E-1
Scans to average: 1
Nonlinearity correction enabled: false
Boxcar width: 0
Storing dark spectrum: false
XAxis mode: Wavelengths
Number of Pixels in Spectrum: 1024
>>>>>Begin Spectral Data<<<<<
801.071	28424
801.214	28204
801.356	28067
801.499	27895
801.641	27770
801.783	27728
801.926	27979
802.068	27823
802.211	27850
802.353	27857
802.496	27641
802.638	27606
802.78	27568
802.923	27310
803.065	27420
803.208	27458
803.35	27454
803.492	27736
803.635	27762
803.777	27682
803.919	27793
804.061	28207
804.204	27800
804.346	27789
804.488	27622
804.63	27762
804.773	27743
804.915	27774
805.057	27842
805.199	27720
805.341	27964
805.483	28055
805.626	27892
805.768	27751
805.91	27747
806.052	27857
806.194	27876
806.336	27998
806.478	27922
806.62	27941
806.762	28116
806.904	28166
807.046	28363
807.188	28344
807.33	28215
807.472	28466
807.614	28181
807.756	28382
807.898	28268
808.04	28249
808.182	28051
808.324	28242
808.465	28337
808.607	28401
808.749	28504
808.891	28599
809.033	28801
809.174	28675
809.316	28523
809.458	28489
809.6	28489
809.741	28668
809.883	28752
810.025	28881
810.166	28934
810.308	28991
810.45	28831
810.591	28736
810.733	28565
810.875	28622
811.016	28462
811.158	28531
811.299	28660
811.441	28812
811.582	28839
811.724	28561
811.865	28500
812.007	28683
812.148	28729
812.29	28653
812.431	28771
812.573	28858
812.714	28953
812.855	29079
812.997	29261
813.138	29387
813.279	29231
813.421	29239
813.562	29071
813.703	28949
813.845	28809
813.986	28573
814.127	28322
814.268	28291
814.41	28436
814.551	28325
814.692	28390
814.833	28310
814.974	28344
815.115	28287
815.256	28139
815.397	28135
815.539	28116
815.68	28093
815.821	28093
815.962	28131
816.103	28070
816.244	27914
816.385	27907
816.526	27861
816.666	27759
816.807	27679
816.948	27709
817.089	27644
817.23	27770
817.371	27553
817.512	27648
817.653	27641
817.793	27599
817.934	27530
818.075	27675
818.216	27583
818.356	27477
818.497	27492
818.638	27374
818.778	27374
818.919	27256
819.06	27530
819.2	27424
819.341	27591
819.481	27549
819.622	27682
819.762	27930
819.903	27793
820.043	27762
820.184	27660
820.324	27720
820.465	27679
820.605	27736
820.746	27762
820.886	27633
821.026	27622
821.167	27606
821.307	27892
821.447	27504
821.588	27591
821.728	27427
821.868	27272
822.008	27119
822.149	27005
822.289	27154
822.429	26792
822.569	26826
822.709	26758
822.849	26583
822.99	26526
823.13	26571
823.27	26442
823.41	26434
823.55	26412
823.69	26408
823.83	26339
823.97	26313
824.11	26301
824.25	26263
824.389	26172
824.529	26301
824.669	26248
824.809	26294
824.949	26309
825.089	26438
825.228	26339
825.368	26081
825.508	26214
825.648	26103
825.787	26088
825.927	26199
826.067	26172
826.206	26210
826.346	26035
826.485	26084
826.625	26199
826.765	26191
826.904	26237
827.044	25887
827.183	25772
827.323	25742
827.462	25989
827.601	25822
827.741	25822
827.88	25902
828.02	25643
828.159	25955
828.298	25761
828.437	25898
828.577	25734
828.716	25966
828.855	25586
828.994	25537
829.134	25537
829.273	25628
829.412	25491
829.551	25468
829.69	25518
829.829	25525
829.968	25510
830.107	25552
830.246	25643
830.385	25415
830.524	25377
830.663	25388
830.802	25331
830.941	25084
831.08	24966
831.219	25179
831.357	25209
831.496	25255
831.635	25103
831.774	25160
831.913	25027
832.051	24905
832.19	24958
832.329	24962
832.467	25000
832.606	24730
832.744	24757
832.883	24768
833.022	24779
833.16	24806
833.299	24916
833.437	24776
833.576	24844
833.714	24878
833.852	24901
833.991	24814
834.129	25027
834.267	25023
834.406	24840
834.544	24981
834.682	24954
834.821	24875
834.959	25008
835.097	24829
835.235	25008
835.373	24719
835.511	24814
835.65	24749
835.788	24684
835.926	24578
836.064	24608
836.202	24528
836.34	24661
836.478	24878
836.615	24753
836.753	24681
836.891	24738
837.029	24856
837.167	24661
837.305	24559
837.443	24623
837.58	24551
837.718	24582
837.856	24559
837.993	24448
838.131	24582
838.269	24460
838.406	24467
838.544	24346
838.681	24239
838.819	24102
838.956	24022
839.094	23954
839.231	24197
839.369	24167
839.506	24350
839.643	24228
839.781	24011
839.918	23897
840.055	24022
840.193	23950
840.33	23904
840.467	23885
840.604	23885
840.742	24197
840.879	23737
841.016	23939
841.153	23889
841.29	24015
841.427	23824
841.564	23996
841.701	23882
841.838	23885
841.975	23817
842.112	23882
842.249	23657
842.385	23592
842.522	23824
842.659	23733
842.796	23516
842.933	23630
843.069	23634
843.206	23668
843.343	23630
843.479	23657
843.616	23623
843.752	23463
843.889	23376
844.025	23551
844.162	23311
844.298	23554
844.435	23448
844.571	23349
844.708	23433
844.844	23497
844.98	23455
845.117	23604
845.253	23395
845.389	23223
845.525	23231
845.661	23353
845.798	23223
845.934	23200
846.07	23155
846.206	23216
846.342	23307
846.478	23105
846.614	22980
846.75	22755
846.886	22824
847.022	22976
847.158	22881
847.294	22904
847.429	22968
847.565	22790
847.701	23170
847.837	22672
847.972	22717
848.108	22740
848.244	22721
848.379	22550
848.515	22413
848.65	22546
848.786	22428
848.921	22443
849.057	22588
849.192	22516
849.328	22512
849.463	22485
849.598	22299
849.734	22196
849.869	22295
850.004	22211
850.14	22196
850.275	22310
850.41	22131
850.545	22268
850.68	22124
850.815	22280
850.95	22223
851.085	22246
851.22	22356
851.355	22238
851.49	22200
851.625	22162
851.76	22158
851.895	22185
852.03	22044
852.165	22173
852.299	22261
852.434	22284
852.569	22299
852.703	22276
852.838	22093
852.973	22440
853.107	22344
853.242	22154
853.376	22150
853.511	21895
853.645	22013
853.78	22131
853.914	22063
854.048	22048
854.183	21949
854.317	21991
854.451	22135
854.585	22093
854.72	22124
854.854	22162
854.988	21930
855.122	22158
855.256	21930
855.39	21918
855.524	22124
855.658	22021
855.792	22025
855.926	22051
856.06	22147
856.194	22044
856.327	21998
856.461	21998
856.595	21994
856.729	22207
856.862	22101
856.996	22112
857.13	22090
857.263	22150
857.397	22070
857.53	21991
857.664	22181
857.797	22040
857.931	22109
858.064	21991
858.197	22131
858.331	21964
858.464	22032
858.597	22006
858.731	21983
858.864	21915
858.997	21937
859.13	22124
859.263	22021
859.396	22090
859.529	22006
859.662	22070
859.795	22021
859.928	22139
860.061	22215
860.194	22246
860.327	22086
860.46	21987
860.592	22158
860.725	22265
860.858	22105
860.99	22067
861.123	22044
861.256	21987
861.388	22010
861.521	22687
861.653	21804
861.786	21808
861.918	21797
862.05	21842
862.183	22002
862.315	21903
862.447	22116
862.58	21949
862.712	21793
862.844	21812
862.976	21926
863.108	21679
863.24	22154
863.372	21778
863.504	21667
863.636	21698
863.768	21903
863.9	21644
864.032	21682
864.164	21675
864.296	21759
864.428	21899
864.559	21926
864.691	21785
864.823	21819
864.954	21793
865.086	21648
865.217	21580
865.349	21576
865.48	21705
865.612	21694
865.743	21762
865.875	21606
866.006	21557
866.137	21606
866.269	21656
866.4	21739
866.531	21545
866.662	21523
866.793	21606
866.924	21595
867.055	21553
867.186	21610
867.317	21534
867.448	21526
867.579	21424
867.71	21447
867.841	21458
867.972	21466
868.103	21439
868.233	21622
868.364	21496
868.495	21549
868.625	21808
868.756	21903
868.886	21724
869.017	21816
869.147	21907
869.278	21865
869.408	21838
869.539	21808
869.669	21994
869.799	21903
869.929	21956
870.06	22055
870.19	22200
870.32	22143
870.45	22188
870.58	22185
870.71	22356
870.84	22322
870.97	22131
871.1	22246
871.23	22443
871.36	22371
871.489	22363
871.619	22344
871.749	22440
871.879	22360
872.008	22451
872.138	22333
872.267	22318
872.397	22333
872.526	22306
872.656	22219
872.785	22344
872.915	22394
873.044	22485
873.173	22432
873.303	22459
873.432	22424
873.561	22523
873.69	22462
873.819	22287
873.948	22573
874.077	22485
874.206	22421
874.335	22489
874.464	22569
874.593	22596
874.722	22557
874.851	22706
874.979	22812
875.108	22649
875.237	22535
875.365	22599
875.494	22580
875.623	22538
875.751	22668
875.88	22683
876.008	22767
876.136	22835
876.265	23094
876.393	23170
876.521	23102
876.65	23083
876.778	23044
876.906	22946
877.034	22892
877.162	22957
877.29	22881
877.418	22946
877.546	22984
877.674	23025
877.802	23048
877.93	22885
878.058	22953
878.185	22877
878.313	22828
878.441	22930
878.568	22839
878.696	22984
878.824	22949
878.951	23079
879.079	23140
879.206	23376
879.333	23014
879.461	22942
879.588	22987
879.715	23227
879.842	23216
879.97	23022
880.097	22892
880.224	22843
880.351	22889
880.478	22812
880.605	22862
880.732	22736
880.859	23029
880.986	22801
881.112	22904
881.239	22683
881.366	22531
881.493	22386
881.619	22310
881.746	22341
881.872	22398
881.999	22204
882.125	22280
882.252	22382
882.378	22329
882.505	22504
882.631	22211
882.757	22067
882.883	22131
883.01	22158
883.136	21994
883.262	22044
883.388	21899
883.514	22021
883.64	22002
883.766	21915
883.892	21808
884.018	21922
884.143	21922
884.269	22063
884.395	21812
884.52	21755
884.646	21622
884.772	21644
884.897	21557
885.023	21766
885.148	21739
885.274	21808
885.399	21793
885.524	21789
885.65	21606
885.775	21736
885.9	21789
886.025	21732
886.15	21705
886.275	21778
886.4	21534
886.525	21751
886.65	21618
886.775	21606
886.9	21785
887.025	21838
887.149	21686
887.274	21492
887.399	21507
887.523	21595
887.648	21443
887.773	21348
887.897	21507
888.021	21515
888.146	21359
888.27	21507
888.395	21488
888.519	21450
888.643	21504
888.767	21675
888.891	21310
889.015	21245
889.139	21321
889.263	21260
889.387	21351
889.511	21416
889.635	21294
889.759	21188
889.883	21211
890.006	21260
890.13	21310
890.254	21252
890.377	21233
890.501	20990
890.624	20971
890.748	21032
890.871	20743
890.995	20712
891.118	20746
891.241	20826
891.364	20785
891.488	21005
891.611	20731
891.734	20735
891.857	20906
891.98	20819
892.103	20838
892.226	20712
892.349	20720
892.471	20594
892.594	20781
892.717	20743
892.839	20663
892.962	20727
893.085	20735
893.207	20746
893.33	20636
893.452	20507
893.575	20746
893.697	20663
893.819	20838
893.941	20864
894.064	20864
894.186	20613
894.308	20590
894.43	20777
894.552	20758
894.674	20754
894.796	20667
894.918	20686
895.04	20606
895.161	20568
895.283	20750
895.405	20613
895.526	20746
895.648	20640
895.769	20655
895.891	20697
896.012	20788
896.134	20651
896.255	20754
896.376	20663
896.498	20663
896.619	20712
896.74	20629
896.861	20739
896.982	20967
897.103	21142
897.224	20975
897.345	20868
897.466	20727
897.587	20891
897.708	21116
897.828	20868
897.949	20864
898.07	20796
898.19	20807
898.311	20842
898.431	20769
898.552	20807
898.672	20963
898.792	20937
898.913	20982
899.033	20842
899.153	20663
899.273	20571
899.393	20773
899.513	20804
899.633	20587
899.753	20629
899.873	20590
899.993	20530
900.113	20549
900.232	20442
900.352	20511
900.472	20480
900.591	20415
900.711	20336
900.83	20263
900.95	20530
901.069	20552
901.189	20305
901.308	20107
901.427	19868
901.546	19986
901.665	20008
901.784	20111
901.904	19868
902.023	19772
902.141	19620
902.26	19426
902.379	19514
902.498	19411
902.617	19384
902.735	19563
902.854	19502
902.973	19445
903.091	19145
903.21	19156
903.328	19141
903.446	19023
903.565	19019
903.683	18916
903.801	18829
903.919	18791
904.038	18882
904.156	18734
904.274	18817
904.392	18650
904.51	18639
904.627	18738
904.745	18806
904.863	18700
904.981	18433
905.098	18395
905.216	18323
905.334	18369
905.451	18395
905.569	18292
905.686	18407
905.803	18403
905.921	18262
906.038	18155
906.155	18220
906.272	18140
906.389	18152
906.506	17805
906.623	17942
906.74	17790
906.857	17901
906.974	17714
907.091	17851
907.208	18019
907.324	17882
907.441	17790
907.557	17589
907.674	17611
907.79	17627
907.907	17577
908.023	17608
908.139	17676
908.256	17497
908.372	17436
908.488	17467
908.604	17349
908.72	17326
908.836	17334
908.952	17349
909.068	17284
909.184	17334
909.3	17284
909.415	17356
909.531	17353
909.647	17098
909.762	17014
909.878	17075
909.993	17060
910.108	17010
910.224	16908
910.339	17041
910.454	16911
910.57	16843
910.685	16759
910.8	16980
910.915	16946
911.03	16748
911.145	16630
911.259	16653
911.374	16637
911.489	16577
911.604	16485
911.718	16337
911.833	16344
911.947	16314
912.062	16246
912.176	16394
912.291	16409
912.405	16413
912.519	16497
912.633	16500
912.748	16493
912.862	16310
912.976	16124
913.09	16059
913.204	16166
913.318	16261
913.431	16181
913.545	16223
913.659	16287
913.772	16181
913.886	16006
914	15930
914.113	16025
914.226	16063
914.34	16006
914.453	15911
914.566	15998
914.68	15850
914.793	15770
914.906	15549
915.019	15515
915.132	15561
915.245	15519
915.358	15515
915.47	15587
915.583	15610
915.696	15576
915.809	15675
915.921	15629
916.034	15526
916.146	15420
916.259	15466
916.371	15504
916.483	15477
916.595	15428
916.708	15424
916.82	15355
916.932	15401
917.044	15310
917.156	15249
917.268	15173
917.38	15222
917.491	15165
917.603	15237
917.715	15275
917.826	15420
917.938	15154
918.049	14998
918.161	15154
918.272	15275
918.384	15279
918.495	15188
918.606	15013
918.717	14872
918.828	15062
918.939	14982
919.05	14872
919.161	14811
919.272	14750
919.383	14758
919.494	14975
919.604	15116
919.715	14868
919.826	14895
919.936	14868
920.047	14921
920.157	15039
920.267	15081
920.378	14899
920.488	14971
920.598	15154
920.708	15192
920.818	15081
920.928	14990
921.038	15195
921.148	15100
921.258	14948
921.368	14739
921.477	14594
921.587	14522
921.697	14568
921.806	14663
921.916	14526
922.025	14343
922.134	14206
922.244	14275
922.353	14313
922.462	14180
922.571	14096
922.68	14050
922.789	13894
922.898	13887
923.007	13940
923.116	13902
923.224	13871
923.333	13841
923.442	13875
923.55	13780
923.659	13674
923.767	13731
923.876	13765
923.984	13750
924.092	13582
924.201	13674
924.309	13616
924.417	13533
924.525	13563
924.633	13582
924.741	14396
924.849	13377
924.956	13506
925.064	13362
925.172	13259
925.279	13240
925.387	13388
925.494	13263
925.602	13472
925.709	13308
925.816	13133
925.924	13289
926.031	13304
926.138	13145
926.245	13202
926.352	13168
926.459	13324
926.566	13346
926.673	13228
926.779	13031
926.886	13076
926.993	12795
927.099	12844
927.206	12852
927.312	12749
927.419	12802
927.525	12939
927.631	12825
927.737	12741
927.843	12764
927.95	12559
928.056	12616
928.162	12620
928.267	12616
928.373	13232
928.479	12760
928.585	12509
928.69	12506
928.796	12627
928.901	12585
929.007	12334
929.112	12475
929.218	12464
929.323	12452
929.428	12441
929.533	12483
929.638	12308
929.743	12315
929.848	12433
929.953	12437
930.058	12205
930.163	12007
930.267	12072
930.372	12186
930.477	11969
930.581	12228
930.685	12079
930.79	11984
930.894	11984
930.998	11874
931.103	12091
931.207	11646
931.311	11623
931.415	11566
931.519	11318
931.623	11326
