Data from test_V78500241_1473.txt Node
Date: Fri Mar 25 15:52:00 CST 2022
User: usil
Spectrometer: V785-0024
Trigger mode: 0
Integration Time (sec): 4.000000E-1
Scans to average: 1
Nonlinearity correction enabled: false
Boxcar width: 0
Storing dark spectrum: false
XAxis mode: Wavelengths
Number of Pixels in Spectrum: 1024
>>>>>Begin Spectral Data<<<<<
801.071	26940
801.214	26925
801.356	26785
801.499	26868
801.641	26716
801.783	26617
801.926	26686
802.068	26564
802.211	26568
802.353	26530
802.496	26362
802.638	26347
802.78	26393
802.923	26035
803.065	26149
803.208	26244
803.35	26088
803.492	26385
803.635	26492
803.777	26351
803.919	26427
804.061	26739
804.204	26518
804.346	26434
804.488	26218
804.63	26431
804.773	26412
804.915	26492
805.057	26526
805.199	26377
805.341	26419
805.483	26518
805.626	26514
805.768	26366
805.91	26602
806.052	26362
806.194	26412
806.336	26716
806.478	26526
806.62	26412
806.762	26819
806.904	26754
807.046	26990
807.188	27043
807.33	26963
807.472	26948
807.614	26933
807.756	26857
807.898	26845
808.04	26678
808.182	26750
808.324	26708
808.465	26678
808.607	27043
808.749	27184
808.891	27192
809.033	27173
809.174	27195
809.316	27077
809.458	27195
809.6	27032
809.741	27279
809.883	27207
810.025	27317
810.166	27340
810.308	27401
810.45	27325
810.591	27241
810.733	27165
810.875	27214
811.016	27009
811.158	27001
811.299	27154
811.441	27291
811.582	27287
811.724	27085
811.865	27108
812.007	27055
812.148	26982
812.29	27047
812.431	27431
812.573	27355
812.714	27557
812.855	27694
812.997	27610
813.138	27797
813.279	27819
813.421	27667
813.562	27549
813.703	27355
813.845	27264
813.986	26956
814.127	26811
814.268	26788
814.41	26804
814.551	26746
814.692	26678
814.833	26625
814.974	26587
815.115	26777
815.256	26461
815.397	26560
815.539	26518
815.68	26480
815.821	26655
815.962	26473
816.103	26492
816.244	26457
816.385	26172
816.526	26218
816.666	26122
816.807	25925
816.948	26100
817.089	26016
817.23	26153
817.371	26035
817.512	26024
817.653	25963
817.793	25936
817.934	25940
818.075	25947
818.216	26058
818.356	25955
818.497	25868
818.638	25791
818.778	25803
818.919	25723
819.06	25849
819.2	25830
819.341	25989
819.481	26031
819.622	26122
819.762	26355
819.903	26351
820.043	26145
820.184	26065
820.324	26164
820.465	26122
820.605	26324
820.746	26115
820.886	26122
821.026	26046
821.167	26111
821.307	26130
821.447	26050
821.588	25921
821.728	25837
821.868	25727
822.008	25487
822.149	25381
822.289	25514
822.429	25274
822.569	25179
822.709	25141
822.849	24966
822.99	25023
823.13	25034
823.27	24939
823.41	24856
823.55	24817
823.69	24814
823.83	24810
823.97	24741
824.11	24681
824.25	24627
824.389	24555
824.529	24719
824.669	24722
824.809	24665
824.949	24623
825.089	24745
825.228	24646
825.368	24399
825.508	24509
825.648	24517
825.787	24521
825.927	24589
826.067	24418
826.206	24399
826.346	24365
826.485	24521
826.625	24525
826.765	24441
826.904	24452
827.044	24140
827.183	24213
827.323	24258
827.462	24350
827.601	24174
827.741	24281
827.88	24216
828.02	24049
828.159	24216
828.298	24232
828.437	24136
828.577	24136
828.716	24254
828.855	24041
828.994	23980
829.134	23889
829.273	23878
829.412	23745
829.551	23859
829.69	23908
829.829	24038
829.968	23916
830.107	23824
830.246	23920
830.385	23851
830.524	23901
830.663	23710
830.802	23684
830.941	23497
831.08	23474
831.219	23585
831.357	23535
831.496	23649
831.635	23566
831.774	23452
831.913	23356
832.051	23330
832.19	23216
832.329	23265
832.467	23242
832.606	22995
832.744	23284
832.883	23162
833.022	23105
833.16	23159
833.299	23162
833.437	23117
833.576	23330
833.714	23216
833.852	23303
833.991	23261
834.129	23341
834.267	23254
834.406	23311
834.544	23334
834.682	23132
834.821	23067
834.959	23448
835.097	23083
835.235	23136
835.373	23132
835.511	23193
835.65	23010
835.788	23075
835.926	22862
836.064	22862
836.202	22835
836.34	23048
836.478	23094
836.615	23052
836.753	23136
836.891	23303
837.029	23223
837.167	22953
837.305	22961
837.443	22949
837.58	22980
837.718	22991
837.856	22995
837.993	22839
838.131	22915
838.269	22752
838.406	22736
838.544	22656
838.681	22478
838.819	22645
838.956	22424
839.094	22451
839.231	22455
839.369	22653
839.506	22812
839.643	22554
839.781	22310
839.918	22291
840.055	22413
840.193	22447
840.33	22409
840.467	22265
840.604	22265
840.742	22519
840.879	22147
841.016	22371
841.153	22325
841.29	22405
841.427	22280
841.564	22299
841.701	22325
841.838	22303
841.975	22257
842.112	22166
842.249	22158
842.385	22067
842.522	22306
842.659	22131
842.796	22010
842.933	22101
843.069	21960
843.206	21934
843.343	22109
843.479	22010
843.616	22120
843.752	21934
843.889	21918
844.025	21956
844.162	21888
844.298	21911
844.435	21717
844.571	21778
844.708	21831
844.844	21956
844.98	22029
845.117	21956
845.253	21724
845.389	21576
845.525	21728
845.661	21743
845.798	21580
845.934	21625
846.07	21561
846.206	21641
846.342	21694
846.478	21526
846.614	21374
846.75	21249
846.886	21245
847.022	21412
847.158	21386
847.294	21237
847.429	21222
847.565	21306
847.701	21538
847.837	21074
847.972	20975
848.108	21173
848.244	21135
848.379	20975
848.515	20941
848.65	20998
848.786	20925
848.921	20864
849.057	21036
849.192	21043
849.328	20895
849.463	20963
849.598	20857
849.734	20902
849.869	20769
850.004	20788
850.14	20735
850.275	20712
850.41	20640
850.545	20564
850.68	20587
850.815	20670
850.95	20651
851.085	20933
851.22	20701
851.355	20735
851.49	20659
851.625	20651
851.76	20670
851.895	20648
852.03	20579
852.165	20663
852.299	20678
852.434	20724
852.569	20617
852.703	20705
852.838	20758
852.973	20910
853.107	20853
853.242	20568
853.376	20625
853.511	20377
853.645	20434
853.78	20541
853.914	20461
854.048	20484
854.183	20499
854.317	20442
854.451	20701
854.585	20434
854.72	20503
854.854	20571
854.988	20461
855.122	20533
855.256	20480
855.39	20484
855.524	20560
855.658	20583
855.792	20617
855.926	20533
856.06	20549
856.194	20545
856.327	20492
856.461	20320
856.595	20385
856.729	20533
856.862	20648
856.996	20514
857.13	20609
857.263	20594
857.397	20514
857.53	20537
857.664	20533
857.797	20507
857.931	20613
858.064	20583
858.197	20579
858.331	20590
858.464	20427
858.597	20450
858.731	20522
858.864	20533
858.997	20549
859.13	20355
859.263	20530
859.396	20632
859.529	20415
859.662	20476
859.795	20560
859.928	20522
860.061	20670
860.194	20689
860.327	20625
860.46	20503
860.592	20697
860.725	20594
860.858	20640
860.99	20552
861.123	20473
861.256	20412
861.388	20495
861.521	21370
861.653	20400
861.786	20374
861.918	20263
862.05	20377
862.183	20396
862.315	20556
862.447	20571
862.58	20476
862.712	20275
862.844	20252
862.976	20271
863.108	20355
863.24	20659
863.372	20126
863.504	20328
863.636	20195
863.768	20202
863.9	20183
864.032	20237
864.164	20088
864.296	20267
864.428	20347
864.559	20313
864.691	20374
864.823	20130
864.954	20191
865.086	20214
865.217	20153
865.349	20008
865.48	20153
865.612	20191
865.743	20332
865.875	20256
866.006	20138
866.137	20248
866.269	20020
866.4	20088
866.531	20126
866.662	20008
866.793	20001
866.924	20096
867.055	20180
867.186	20157
867.317	20100
867.448	20142
867.579	19963
867.71	19959
867.841	20031
867.972	20046
868.103	20043
868.233	19993
868.364	20008
868.495	20206
868.625	20221
868.756	20499
868.886	20252
869.017	20259
869.147	20389
869.278	20469
869.408	20252
869.539	20275
869.669	20389
869.799	20317
869.929	20526
870.06	20370
870.19	20701
870.32	20492
870.45	20549
870.58	20674
870.71	20796
870.84	20933
870.97	20697
871.1	20640
871.23	20857
871.36	20956
871.489	20819
871.619	20845
871.749	21005
871.879	20880
872.008	21032
872.138	21036
872.267	20944
872.397	20765
872.526	20800
872.656	20800
872.785	20762
872.915	20880
873.044	20975
873.173	20887
873.303	21039
873.432	20902
873.561	21009
873.69	20990
873.819	20982
873.948	21192
874.077	20899
874.206	21043
874.335	21043
874.464	21142
874.593	21165
874.722	21127
874.851	21268
874.979	21230
875.108	21249
875.237	21100
875.365	21112
875.494	21283
875.623	21260
875.751	21203
875.88	21256
876.008	21192
876.136	21332
876.265	21553
876.393	21614
876.521	21622
876.65	21587
876.778	21557
876.906	21591
877.034	21481
877.162	21469
877.29	21458
877.418	21618
877.546	21553
877.674	21591
877.802	21519
877.93	21542
878.058	21443
878.185	21488
878.313	21424
878.441	21393
878.568	21363
878.696	21443
878.824	21633
878.951	21545
879.079	21724
879.206	21861
879.333	21641
879.461	21481
879.588	21705
879.715	21682
879.842	21873
879.97	21564
880.097	21393
880.224	21340
880.351	21340
880.478	21355
880.605	21279
880.732	21351
880.859	21717
880.986	21386
881.112	21393
881.239	21184
881.366	21077
881.493	21036
881.619	21051
881.746	21005
881.872	20868
881.999	20971
882.125	20906
882.252	20918
882.378	20830
882.505	20975
882.631	20777
882.757	20701
882.883	20712
883.01	20708
883.136	20644
883.262	20587
883.388	20495
883.514	20693
883.64	20655
883.766	20590
883.892	20423
884.018	20408
884.143	20492
884.269	20705
884.395	20442
884.52	20442
884.646	20309
884.772	20252
884.897	20142
885.023	20404
885.148	20377
885.274	20537
885.399	20366
885.524	20244
885.65	20237
885.775	20339
885.9	20290
886.025	20484
886.15	20434
886.275	20195
886.4	20210
886.525	20229
886.65	20218
886.775	20138
886.9	20450
887.025	20568
887.149	20229
887.274	20183
887.399	20046
887.523	20069
887.648	20016
887.773	20062
887.897	20161
888.021	20050
888.146	20100
888.27	20202
888.395	20229
888.519	20221
888.643	20054
888.767	20081
888.891	19963
889.015	19986
889.139	19955
889.263	19814
889.387	19967
889.511	20145
889.635	20039
889.759	19864
889.883	19860
890.006	19837
890.13	19955
890.254	19814
890.377	19784
890.501	19689
890.624	19559
890.748	19647
890.871	19616
890.995	19430
891.118	19422
891.241	19457
891.364	19575
891.488	19525
891.611	19499
891.734	19460
891.857	19559
891.98	19403
892.103	19483
892.226	19480
892.349	19388
892.471	19274
892.594	19411
892.717	19365
892.839	19449
892.962	19403
893.085	19506
893.207	19324
893.33	19255
893.452	19213
893.575	19407
893.697	19343
893.819	19521
893.941	19552
894.064	19609
894.186	19274
894.308	19335
894.43	19476
894.552	19590
894.674	19487
894.796	19350
894.918	19407
895.04	19358
895.161	19430
895.283	19426
895.405	19415
895.526	19392
895.648	19324
895.769	19468
895.891	19491
896.012	19571
896.134	19441
896.255	19480
896.376	19422
896.498	19430
896.619	19441
896.74	19362
896.861	19438
896.982	19814
897.103	19879
897.224	19693
897.345	19677
897.466	19525
897.587	19533
897.708	19791
897.828	19674
897.949	19609
898.07	19480
898.19	19647
898.311	19727
898.431	19586
898.552	19719
898.672	19715
898.792	19643
898.913	19635
899.033	19552
899.153	19518
899.273	19525
899.393	19373
899.513	19422
899.633	19407
899.753	19373
899.873	19343
899.993	19411
900.113	19354
900.232	19403
900.352	19293
900.472	19331
900.591	19080
900.711	19232
900.83	19175
900.95	19263
901.069	19274
901.189	19088
901.308	18901
901.427	18783
901.546	18833
901.665	18783
901.784	18806
901.904	18722
902.023	18566
902.141	18338
902.26	18319
902.379	18456
902.498	18330
902.617	18338
902.735	18365
902.854	18201
902.973	18209
903.091	17973
903.21	18076
903.328	18019
903.446	17885
903.565	17783
903.683	17866
903.801	17680
903.919	17707
904.038	17764
904.156	17600
904.274	17699
904.392	17524
904.51	17615
904.627	17577
904.745	17684
904.863	17596
904.981	17353
905.098	17227
905.216	17296
905.334	17292
905.451	17140
905.569	17132
905.686	17341
905.803	17242
905.921	17022
906.038	17102
906.155	17071
906.272	16984
906.389	17029
906.506	16828
906.623	16850
906.74	16812
906.857	16713
906.974	16611
907.091	16820
907.208	16942
907.324	16793
907.441	16740
907.557	16561
907.674	16550
907.79	16485
907.907	16417
908.023	16470
908.139	16687
908.256	16466
908.372	16462
908.488	16413
908.604	16314
908.72	16181
908.836	16284
908.952	16116
909.068	16223
909.184	16261
909.3	16128
909.415	16287
909.531	16257
909.647	16063
909.762	16025
909.878	15895
909.993	15930
910.108	15907
910.224	15979
910.339	15918
910.454	15892
910.57	15781
910.685	15781
910.8	15994
910.915	15827
911.03	15663
911.145	15584
911.259	15515
911.374	15599
911.489	15416
911.604	15477
911.718	15355
911.833	15340
911.947	15275
912.062	15180
912.176	15367
912.291	15287
912.405	15173
912.519	15523
912.633	15523
912.748	15321
912.862	15367
912.976	15188
913.09	15032
913.204	15100
913.318	15070
913.431	15249
913.545	15214
913.659	15211
913.772	15108
913.886	15017
914	14834
914.113	15001
914.226	15097
914.34	14944
914.453	14880
914.566	15028
914.68	14762
914.793	14754
914.906	14625
915.019	14552
915.132	14450
915.245	14621
915.358	14552
915.47	14575
915.583	14594
915.696	14469
915.809	14644
915.921	14659
916.034	14556
916.146	14488
916.259	14469
916.371	14541
916.483	14484
916.595	14324
916.708	14389
916.82	14442
916.932	14366
917.044	14290
917.156	14374
917.268	14301
917.38	14271
917.491	14244
917.603	14237
917.715	14404
917.826	14298
917.938	14157
918.049	14073
918.161	14218
918.272	14252
918.384	14301
918.495	14111
918.606	13967
918.717	13947
918.828	13974
918.939	14016
919.05	13917
919.161	13913
919.272	13753
919.383	13849
919.494	13978
919.604	14225
919.715	13799
919.826	13894
919.936	13993
920.047	14027
920.157	13993
920.267	14107
920.378	13955
920.488	13974
920.598	14180
920.708	14256
920.818	14218
920.928	14145
921.038	14294
921.148	14107
921.258	13925
921.368	13757
921.477	13799
921.587	13734
921.697	13537
921.806	13818
921.916	13594
922.025	13400
922.134	13411
922.244	13369
922.353	13411
922.462	13297
922.571	13232
922.68	13012
922.789	12966
922.898	13065
923.007	12996
923.116	13034
923.224	13012
923.333	13031
923.442	12935
923.55	12738
923.659	12897
923.767	12935
923.876	12806
923.984	12848
924.092	12760
924.201	12749
924.309	12768
924.417	12768
924.525	12753
924.633	12616
924.741	13575
924.849	12445
924.956	12726
925.064	12555
925.172	12334
925.279	12429
925.387	12563
925.494	12388
925.602	12684
925.709	12448
925.816	12338
925.924	12464
926.031	12551
926.138	12410
926.245	12494
926.352	12251
926.459	12502
926.566	12555
926.673	12327
926.779	12201
926.886	12239
926.993	12083
927.099	12053
927.206	12003
927.312	12034
927.419	12117
927.525	12083
927.631	12076
927.737	11931
927.843	12026
927.95	11775
928.056	11901
928.162	11931
928.267	11901
928.373	12566
928.479	11946
928.585	11798
928.69	11889
928.796	11893
928.901	11691
929.007	11649
929.112	11737
929.218	11733
929.323	11665
929.428	11668
929.533	11699
929.638	11562
929.743	11627
929.848	11634
929.953	11619
930.058	11532
930.163	11364
930.267	11292
930.372	11467
930.477	11379
930.581	11566
930.685	11353
930.79	11220
930.894	11204
930.998	11193
931.103	11296
931.207	11003
931.311	10904
931.415	10801
931.519	10660
931.623	10554
