Data from test_V78500241_271.txt Node
Date: Fri Mar 25 15:43:40 CST 2022
User: usil
Spectrometer: V785-0024
Trigger mode: 0
Integration Time (sec): 4.000000E-1
Scans to average: 1
Nonlinearity correction enabled: false
Boxcar width: 0
Storing dark spectrum: false
XAxis mode: Wavelengths
Number of Pixels in Spectrum: 1024
>>>>>Begin Spectral Data<<<<<
801.071	29885
801.214	29760
801.356	29611
801.499	29581
801.641	29326
801.783	29680
801.926	29535
802.068	29558
802.211	29440
802.353	29288
802.496	29170
802.638	29258
802.78	29151
802.923	29102
803.065	29048
803.208	29048
803.35	29044
803.492	29193
803.635	29368
803.777	29079
803.919	29250
804.061	29680
804.204	29227
804.346	29410
804.488	29220
804.63	29197
804.773	29181
804.915	29140
805.057	29345
805.199	29334
805.341	29292
805.483	29345
805.626	29368
805.768	29284
805.91	29299
806.052	29330
806.194	29436
806.336	29608
806.478	29379
806.62	29471
806.762	29452
806.904	29562
807.046	29999
807.188	29920
807.33	29904
807.472	29855
807.614	29680
807.756	29878
807.898	29802
808.04	29421
808.182	29528
808.324	29600
808.465	29589
808.607	29775
808.749	29847
808.891	30102
809.033	30289
809.174	30041
809.316	30007
809.458	29977
809.6	30114
809.741	30136
809.883	29973
810.025	30194
810.166	30334
810.308	30365
810.45	30239
810.591	30216
810.733	29988
810.875	29908
811.016	29965
811.158	29718
811.299	30045
811.441	30102
811.582	30136
811.724	29942
811.865	29992
812.007	30072
812.148	30072
812.29	30045
812.431	30201
812.573	30232
812.714	30475
812.855	30551
812.997	30593
813.138	30719
813.279	30707
813.421	30483
813.562	30566
813.703	30334
813.845	30190
813.986	29931
814.127	29699
814.268	29729
814.41	29630
814.551	29611
814.692	29733
814.833	29581
814.974	29684
815.115	29619
815.256	29509
815.397	29455
815.539	29440
815.68	29440
815.821	29334
815.962	29558
816.103	29391
816.244	29330
816.385	29197
816.526	29037
816.666	28908
816.807	28927
816.948	28930
817.089	29056
817.23	28968
817.371	28767
817.512	28755
817.653	28850
817.793	28710
817.934	28976
818.075	28949
818.216	28717
818.356	28866
818.497	28759
818.638	28580
818.778	28542
818.919	28717
819.06	28687
819.2	28721
819.341	28812
819.481	28949
819.622	28995
819.762	29162
819.903	28961
820.043	28877
820.184	28896
820.324	28820
820.465	28934
820.605	28900
820.746	28843
820.886	28854
821.026	28892
821.167	28930
821.307	28972
821.447	28755
821.588	28596
821.728	28736
821.868	28382
822.008	28363
822.149	28306
822.289	28200
822.429	28086
822.569	27880
822.709	28063
822.849	27675
822.99	27762
823.13	27701
823.27	27720
823.41	27614
823.55	27363
823.69	27622
823.83	27447
823.97	27564
824.11	27211
824.25	27393
824.389	27393
824.529	27504
824.669	27370
824.809	27485
824.949	27359
825.089	27583
825.228	27355
825.368	27119
825.508	27173
825.648	27340
825.787	27260
825.927	27241
826.067	27188
826.206	27176
826.346	27321
826.485	27420
826.625	27264
826.765	27348
826.904	27226
827.044	27020
827.183	26944
827.323	26921
827.462	27051
827.601	26872
827.741	26773
827.88	26853
828.02	26838
828.159	26891
828.298	26918
828.437	26842
828.577	26785
828.716	27077
828.855	26705
828.994	26590
829.134	26549
829.273	26648
829.412	26594
829.551	26499
829.69	26549
829.829	26476
829.968	26568
830.107	26613
830.246	26476
830.385	26503
830.524	26404
830.663	26328
830.802	26115
830.941	26195
831.08	26020
831.219	26301
831.357	26275
831.496	26347
831.635	26107
831.774	25944
831.913	26008
832.051	25966
832.19	25875
832.329	25826
832.467	25776
832.606	25807
832.744	25822
832.883	25738
833.022	25719
833.16	25712
833.299	25795
833.437	25837
833.576	25769
833.714	25822
833.852	25788
833.991	25883
834.129	25868
834.267	25982
834.406	25791
834.544	25791
834.682	25879
834.821	25799
834.959	25909
835.097	25628
835.235	25803
835.373	25696
835.511	25860
835.65	25582
835.788	25715
835.926	25415
836.064	25388
836.202	25403
836.34	25620
836.478	25575
836.615	25582
836.753	25624
836.891	25571
837.029	25567
837.167	25571
837.305	25407
837.443	25320
837.58	25346
837.718	25365
837.856	25445
837.993	25365
838.131	25308
838.269	25259
838.406	25247
838.544	25213
838.681	24935
838.819	25118
838.956	24817
839.094	24844
839.231	24886
839.369	24970
839.506	25343
839.643	25107
839.781	24806
839.918	24791
840.055	24844
840.193	24844
840.33	24692
840.467	24886
840.604	24764
840.742	24905
840.879	24585
841.016	24589
841.153	24661
841.29	24719
841.427	24604
841.564	24597
841.701	24642
841.838	24536
841.975	24509
842.112	24589
842.249	24574
842.385	24448
842.522	24631
842.659	24426
842.796	24464
842.933	24399
843.069	24213
843.206	24441
843.343	24334
843.479	24391
843.616	24388
843.752	24216
843.889	24152
844.025	24216
844.162	24091
844.298	24224
844.435	24117
844.571	23992
844.708	24015
844.844	24281
844.98	24232
845.117	24140
845.253	23965
845.389	24110
845.525	24060
845.661	23916
845.798	23809
845.934	23859
846.07	23866
846.206	23973
846.342	23870
846.478	23707
846.614	23665
846.75	23608
846.886	23581
847.022	23634
847.158	23638
847.294	23520
847.429	23505
847.565	23493
847.701	23878
847.837	23208
847.972	23288
848.108	23341
848.244	23493
848.379	23193
848.515	23060
848.65	23075
848.786	23090
848.921	23227
849.057	23159
849.192	23235
849.328	23220
849.463	23102
849.598	23151
849.734	23117
849.869	23018
850.004	22862
850.14	22801
850.275	22767
850.41	22694
850.545	22759
850.68	22797
850.815	22812
850.95	22752
851.085	22885
851.22	22957
851.355	22919
851.49	22778
851.625	22850
851.76	22725
851.895	22710
852.03	22733
852.165	22809
852.299	22881
852.434	22934
852.569	22782
852.703	22835
852.838	22934
852.973	22938
853.107	22927
853.242	22820
853.376	22607
853.511	22550
853.645	22668
853.78	22687
853.914	22668
854.048	22565
854.183	22656
854.317	22626
854.451	22904
854.585	22626
854.72	22694
854.854	22691
854.988	22645
855.122	22698
855.256	22485
855.39	22561
855.524	22653
855.658	22702
855.792	22577
855.926	22706
856.06	22660
856.194	22755
856.327	22622
856.461	22504
856.595	22630
856.729	22436
856.862	22733
856.996	22565
857.13	22694
857.263	22733
857.397	22850
857.53	22634
857.664	22656
857.797	22634
857.931	22721
858.064	22592
858.197	22588
858.331	22500
858.464	22580
858.597	22466
858.731	22584
858.864	22428
858.997	22459
859.13	22649
859.263	22626
859.396	22687
859.529	22554
859.662	22694
859.795	22459
859.928	22599
860.061	22759
860.194	22729
860.327	22546
860.46	22577
860.592	22653
860.725	22809
860.858	22782
860.99	22584
861.123	22455
861.256	22577
861.388	22516
861.521	23303
861.653	22379
861.786	22432
861.918	22436
862.05	22436
862.183	22615
862.315	22573
862.447	22611
862.58	22531
862.712	22432
862.844	22325
862.976	22451
863.108	22261
863.24	22641
863.372	22284
863.504	22291
863.636	22219
863.768	22333
863.9	22276
864.032	22219
864.164	22150
864.296	22329
864.428	22215
864.559	22291
864.691	22200
864.823	22261
864.954	22284
865.086	22253
865.217	22131
865.349	22048
865.48	22139
865.612	22070
865.743	22177
865.875	22196
866.006	22207
866.137	22109
866.269	22059
866.4	22029
866.531	22029
866.662	21979
866.793	22124
866.924	22078
867.055	21960
867.186	22025
867.317	22055
867.448	21994
867.579	22002
867.71	22017
867.841	21857
867.972	22013
868.103	21941
868.233	22128
868.364	22048
868.495	21994
868.625	22291
868.756	22428
868.886	22234
869.017	22169
869.147	22394
869.278	22455
869.408	22287
869.539	22268
869.669	22371
869.799	22382
869.929	22405
870.06	22413
870.19	22519
870.32	22493
870.45	22660
870.58	22702
870.71	22717
870.84	22744
870.97	22607
871.1	22668
871.23	22831
871.36	22930
871.489	22740
871.619	22949
871.749	22881
871.879	22987
872.008	22835
872.138	22877
872.267	22850
872.397	22774
872.526	22630
872.656	22771
872.785	22691
872.915	22896
873.044	22961
873.173	22873
873.303	22793
873.432	22968
873.561	23022
873.69	22873
873.819	22923
873.948	23044
874.077	22927
874.206	22835
874.335	22965
874.464	22999
874.593	23242
874.722	23071
874.851	23140
874.979	23102
875.108	23204
875.237	22984
875.365	22984
875.494	23079
875.623	23067
875.751	22957
875.88	23200
876.008	23326
876.136	23360
876.265	23505
876.393	23589
876.521	23623
876.65	23604
876.778	23581
876.906	23520
877.034	23322
877.162	23444
877.29	23410
877.418	23501
877.546	23547
877.674	23448
877.802	23471
877.93	23478
878.058	23330
878.185	23250
878.313	23474
878.441	23505
878.568	23193
878.696	23273
878.824	23421
878.951	23497
879.079	23596
879.206	23775
879.333	23509
879.461	23429
879.588	23646
879.715	23638
879.842	23699
879.97	23398
880.097	23288
880.224	23239
880.351	23372
880.478	23318
880.605	23216
880.732	23288
880.859	23459
880.986	23273
881.112	23406
881.239	23170
881.366	23014
881.493	22976
881.619	22885
881.746	22961
881.872	22968
881.999	22847
882.125	22850
882.252	22767
882.378	22805
882.505	22858
882.631	22660
882.757	22478
882.883	22660
883.01	22634
883.136	22516
883.262	22424
883.388	22375
883.514	22603
883.64	22512
883.766	22459
883.892	22124
884.018	22337
884.143	22523
884.269	22588
884.395	22135
884.52	22173
884.646	22051
884.772	22120
884.897	22059
885.023	22188
885.148	22158
885.274	22261
885.399	22207
885.524	22253
885.65	22097
885.775	22238
885.9	22147
886.025	22188
886.15	22124
886.275	21991
886.4	21994
886.525	22131
886.65	22063
886.775	22086
886.9	22265
887.025	22329
887.149	22090
887.274	21949
887.399	21922
887.523	21865
887.648	21762
887.773	21682
887.897	21998
888.021	21941
888.146	21770
888.27	21975
888.395	21941
888.519	21884
888.643	21797
888.767	21945
888.891	21743
889.015	21610
889.139	21705
889.263	21572
889.387	21762
889.511	21892
889.635	21739
889.759	21682
889.883	21515
890.006	21679
890.13	21675
890.254	21564
890.377	21583
890.501	21424
890.624	21306
890.748	21450
890.871	21230
890.995	21203
891.118	21154
891.241	21279
891.364	21108
891.488	21310
891.611	21249
891.734	21291
891.857	21275
891.98	21173
892.103	21272
892.226	21131
892.349	21135
892.471	20941
892.594	21081
892.717	21161
892.839	20998
892.962	21047
893.085	21203
893.207	21161
893.33	20937
893.452	21013
893.575	21203
893.697	21039
893.819	21180
893.941	21169
894.064	21116
894.186	20990
894.308	20929
894.43	21176
894.552	21272
894.674	21218
894.796	20956
894.918	21051
895.04	20956
895.161	21161
895.283	21142
895.405	21055
895.526	21043
895.648	21051
895.769	21127
895.891	21077
896.012	21108
896.134	21116
896.255	21089
896.376	21055
896.498	21252
896.619	21154
896.74	21161
896.861	21275
896.982	21458
897.103	21614
897.224	21336
897.345	21317
897.466	21260
897.587	21393
897.708	21340
897.828	21283
897.949	21188
898.07	21127
898.19	21245
898.311	21397
898.431	21241
898.552	21329
898.672	21287
898.792	21218
898.913	21165
899.033	21154
899.153	21089
899.273	20861
899.393	20910
899.513	21017
899.633	21058
899.753	21024
899.873	21020
899.993	21005
900.113	20929
900.232	20933
900.352	20781
900.472	20712
900.591	20724
900.711	20750
900.83	20765
900.95	20804
901.069	20830
901.189	20640
901.308	20465
901.427	20282
901.546	20351
901.665	20313
901.784	20370
901.904	20240
902.023	20054
902.141	19947
902.26	19803
902.379	19898
902.498	19883
902.617	19765
902.735	19814
902.854	19712
902.973	19811
903.091	19415
903.21	19415
903.328	19422
903.446	19403
903.565	19278
903.683	19171
903.801	19217
903.919	19225
904.038	19255
904.156	19152
904.274	19099
904.392	18932
904.51	18875
904.627	19057
904.745	19008
904.863	19042
904.981	18837
905.098	18719
905.216	18707
905.334	18696
905.451	18669
905.569	18707
905.686	18814
905.803	18692
905.921	18486
906.038	18532
906.155	18532
906.272	18414
906.389	18448
906.506	18174
906.623	18079
906.74	18129
906.857	17999
906.974	18053
907.091	18178
907.208	18292
907.324	18102
907.441	17988
907.557	17939
907.674	17859
907.79	17813
907.907	17824
908.023	17923
908.139	17920
908.256	17771
908.372	17767
908.488	17783
908.604	17604
908.72	17497
908.836	17615
908.952	17512
909.068	17570
909.184	17554
909.3	17695
909.415	17543
909.531	17520
909.647	17261
909.762	17280
909.878	17197
909.993	17284
910.108	17178
910.224	17128
910.339	17185
910.454	17151
910.57	17045
910.685	16953
910.8	17311
910.915	17216
911.03	16999
911.145	16873
911.259	16850
911.374	16805
911.489	16713
911.604	16618
911.718	16672
911.833	16580
911.947	16523
912.062	16337
912.176	16596
912.291	16596
912.405	16527
912.519	16713
912.633	16767
912.748	16561
912.862	16508
912.976	16363
913.09	16204
913.204	16306
913.318	16318
913.431	16379
913.545	16413
913.659	16443
913.772	16261
913.886	16177
914	16143
914.113	16173
914.226	16261
914.34	16181
914.453	16071
914.566	16139
914.68	15983
914.793	16067
914.906	15857
915.019	15728
915.132	15660
915.245	15797
915.358	15732
915.47	15816
915.583	15823
915.696	15671
915.809	15831
915.921	15850
916.034	15595
916.146	15622
916.259	15576
916.371	15595
916.483	15728
916.595	15542
916.708	15599
916.82	15549
916.932	15511
917.044	15469
917.156	15584
917.268	15344
917.38	15302
917.491	15325
917.603	15310
917.715	15389
917.826	15443
917.938	15374
918.049	15161
918.161	15336
918.272	15488
918.384	15340
918.495	15287
918.606	15161
918.717	14979
918.828	15112
918.939	15116
919.05	15001
919.161	15013
919.272	14823
919.383	14952
919.494	15047
919.604	15222
919.715	15119
919.826	14925
919.936	15001
920.047	15089
920.157	15104
920.267	15131
920.378	15116
920.488	14914
920.598	15173
920.708	15260
920.818	15184
920.928	15062
921.038	15310
921.148	15184
921.258	15013
921.368	14823
921.477	14727
921.587	14674
921.697	14552
921.806	14697
921.916	14571
922.025	14427
922.134	14377
922.244	14347
922.353	14385
922.462	14256
922.571	14206
922.68	13989
922.789	13997
922.898	13936
923.007	13890
923.116	14043
923.224	13947
923.333	13978
923.442	13788
923.55	13731
923.659	13830
923.767	13811
923.876	13734
923.984	13830
924.092	13723
924.201	13746
924.309	13666
924.417	13693
924.525	13575
924.633	13636
924.741	14560
924.849	13384
924.956	13582
925.064	13354
925.172	13419
925.279	13350
925.387	13449
925.494	13411
925.602	13441
925.709	13430
925.816	13324
925.924	13324
926.031	13419
926.138	13190
926.245	13350
926.352	13209
926.459	13270
926.566	13388
926.673	13278
926.779	13095
926.886	13095
926.993	13057
927.099	13008
927.206	12783
927.312	12848
927.419	12939
927.525	12848
927.631	12886
927.737	12837
927.843	12795
927.95	12650
928.056	12684
928.162	12700
928.267	12764
928.373	13369
928.479	12791
928.585	12570
928.69	12654
928.796	12749
928.901	12551
929.007	12403
929.112	12589
929.218	12525
929.323	12441
929.428	12437
929.533	12635
929.638	12342
929.743	12471
929.848	12414
929.953	12410
930.058	12266
930.163	12064
930.267	12087
930.372	12258
930.477	12007
930.581	12262
930.685	12178
930.79	11973
930.894	12011
930.998	11969
931.103	12079
931.207	11783
931.311	11642
931.415	11528
931.519	11368
931.623	11360
