Data from test_V78500241_1629.txt Node
Date: Fri Mar 25 15:53:05 CST 2022
User: usil
Spectrometer: V785-0024
Trigger mode: 0
Integration Time (sec): 4.000000E-1
Scans to average: 1
Nonlinearity correction enabled: false
Boxcar width: 0
Storing dark spectrum: false
XAxis mode: Wavelengths
Number of Pixels in Spectrum: 1024
>>>>>Begin Spectral Data<<<<<
801.071	28067
801.214	27934
801.356	27705
801.499	27618
801.641	27576
801.783	27633
801.926	27622
802.068	27587
802.211	27618
802.353	27408
802.496	27275
802.638	27218
802.78	27195
802.923	27096
803.065	27066
803.208	27039
803.35	27199
803.492	27291
803.635	27439
803.777	27386
803.919	27431
804.061	27873
804.204	27492
804.346	27370
804.488	27416
804.63	27386
804.773	27439
804.915	27431
805.057	27481
805.199	27454
805.341	27576
805.483	27785
805.626	27450
805.768	27454
805.91	27660
806.052	27576
806.194	27427
806.336	27800
806.478	27637
806.62	27580
806.762	27663
806.904	27926
807.046	28063
807.188	27960
807.33	28017
807.472	28219
807.614	28032
807.756	27975
807.898	27972
808.04	27781
808.182	27709
808.324	27842
808.465	27827
808.607	28097
808.749	28299
808.891	28261
809.033	28325
809.174	28173
809.316	28116
809.458	28333
809.6	28082
809.741	28329
809.883	28303
810.025	28637
810.166	28527
810.308	28717
810.45	28440
810.591	28428
810.733	28219
810.875	28234
811.016	28204
811.158	28177
811.299	28291
811.441	28265
811.582	28421
811.724	28280
811.865	28322
812.007	28253
812.148	28223
812.29	28318
812.431	28546
812.573	28615
812.714	28687
812.855	28759
812.997	28843
813.138	28968
813.279	28843
813.421	28824
813.562	28733
813.703	28596
813.845	28470
813.986	28257
814.127	28093
814.268	27949
814.41	27869
814.551	27804
814.692	27934
814.833	27831
814.974	27778
815.115	27956
815.256	27732
815.397	27705
815.539	27816
815.68	27698
815.821	27610
815.962	27717
816.103	27660
816.244	27572
816.385	27397
816.526	27408
816.666	27412
816.807	27146
816.948	27359
817.089	27374
817.23	27138
817.371	27150
817.512	27237
817.653	27184
817.793	27039
817.934	27233
818.075	27173
818.216	27275
818.356	27127
818.497	27100
818.638	26986
818.778	26933
818.919	26933
819.06	26914
819.2	27096
819.341	27176
819.481	27329
819.622	27268
819.762	27523
819.903	27564
820.043	27355
820.184	27222
820.324	27443
820.465	27416
820.605	27218
820.746	27329
820.886	27085
821.026	27431
821.167	27203
821.307	27454
821.447	27272
821.588	27211
821.728	27062
821.868	26925
822.008	26746
822.149	26682
822.289	26724
822.429	26480
822.569	26362
822.709	26374
822.849	26267
822.99	26214
823.13	26259
823.27	26149
823.41	25932
823.55	25944
823.69	25860
823.83	26058
823.97	26088
824.11	25795
824.25	25913
824.389	26103
824.529	26024
824.669	25913
824.809	25982
824.949	25982
825.089	25928
825.228	25894
825.368	25674
825.508	25704
825.648	25761
825.787	25795
825.927	25795
826.067	25803
826.206	25681
826.346	25731
826.485	25765
826.625	25590
826.765	25837
826.904	25723
827.044	25525
827.183	25552
827.323	25438
827.462	25396
827.601	25537
827.741	25320
827.88	25559
828.02	25289
828.159	25411
828.298	25453
828.437	25445
828.577	25335
828.716	25510
828.855	25388
828.994	25118
829.134	25133
829.273	25160
829.412	25251
829.551	25053
829.69	25114
829.829	25091
829.968	25270
830.107	25069
830.246	25118
830.385	24977
830.524	24992
830.663	25012
830.802	24852
830.941	24631
831.08	24707
831.219	24795
831.357	24730
831.496	24939
831.635	24760
831.774	24684
831.913	24612
832.051	24585
832.19	24505
832.329	24544
832.467	24483
832.606	24308
832.744	24350
832.883	24346
833.022	24471
833.16	24464
833.299	24490
833.437	24342
833.576	24585
833.714	24536
833.852	24620
833.991	24528
834.129	24563
834.267	24407
834.406	24426
834.544	24445
834.682	24391
834.821	24426
834.959	24661
835.097	24422
835.235	24483
835.373	24433
835.511	24475
835.65	24296
835.788	24251
835.926	24117
836.064	23961
836.202	24182
836.34	24292
836.478	24460
836.615	24235
836.753	24308
836.891	24262
837.029	24273
837.167	24308
837.305	24243
837.443	24140
837.58	24079
837.718	24270
837.856	24045
837.993	23996
838.131	24117
838.269	24045
838.406	23931
838.544	23927
838.681	23855
838.819	23794
838.956	23497
839.094	23486
839.231	23786
839.369	23695
839.506	23908
839.643	23843
839.781	23459
839.918	23436
840.055	23676
840.193	23668
840.33	23482
840.467	23551
840.604	23512
840.742	23748
840.879	23368
841.016	23512
841.153	23402
841.29	23531
841.427	23414
841.564	23672
841.701	23444
841.838	23486
841.975	23398
842.112	23452
842.249	23280
842.385	23292
842.522	23474
842.659	23463
842.796	23280
842.933	23277
843.069	23121
843.206	23181
843.343	23189
843.479	23239
843.616	23322
843.752	23094
843.889	23067
844.025	23193
844.162	22991
844.298	23132
844.435	23048
844.571	23064
844.708	23094
844.844	23227
844.98	23090
845.117	23147
845.253	22911
845.389	22915
845.525	22881
845.661	22957
845.798	22748
845.934	22847
846.07	22744
846.206	22877
846.342	22839
846.478	22752
846.614	22645
846.75	22394
846.886	22493
847.022	22580
847.158	22455
847.294	22584
847.429	22519
847.565	22485
847.701	22797
847.837	22128
847.972	22226
848.108	22284
848.244	22246
848.379	22162
848.515	22093
848.65	22112
848.786	22124
848.921	21930
849.057	22154
849.192	22048
849.328	22051
849.463	22059
849.598	22025
849.734	21979
849.869	21968
850.004	21682
850.14	21899
850.275	21835
850.41	21728
850.545	21755
850.68	21751
850.815	21842
850.95	21895
851.085	21994
851.22	21972
851.355	21846
851.49	21892
851.625	21816
851.76	21778
851.895	21880
852.03	21850
852.165	21831
852.299	21842
852.434	21903
852.569	21857
852.703	21762
852.838	21861
852.973	22010
853.107	21941
853.242	21717
853.376	21622
853.511	21652
853.645	21686
853.78	21781
853.914	21637
854.048	21587
854.183	21583
854.317	21701
854.451	21880
854.585	21614
854.72	21641
854.854	21701
854.988	21606
855.122	21717
855.256	21462
855.39	21682
855.524	21770
855.658	21606
855.792	21682
855.926	21580
856.06	21667
856.194	21690
856.327	21675
856.461	21641
856.595	21564
856.729	21667
856.862	21816
856.996	21701
857.13	21641
857.263	21724
857.397	21728
857.53	21625
857.664	21660
857.797	21762
857.931	21743
858.064	21675
858.197	21823
858.331	21572
858.464	21515
858.597	21587
858.731	21720
858.864	21686
858.997	21641
859.13	21682
859.263	21595
859.396	21774
859.529	21618
859.662	21614
859.795	21629
859.928	21720
860.061	21698
860.194	21975
860.327	21705
860.46	21652
860.592	21781
860.725	21774
860.858	21827
860.99	21663
861.123	21515
861.256	21591
861.388	21717
861.521	22337
861.653	21549
861.786	21458
861.918	21583
862.05	21534
862.183	21618
862.315	21595
862.447	21675
862.58	21447
862.712	21450
862.844	21420
862.976	21420
863.108	21382
863.24	21755
863.372	21310
863.504	21325
863.636	21545
863.768	21374
863.9	21389
864.032	21367
864.164	21416
864.296	21348
864.428	21511
864.559	21462
864.691	21504
864.823	21424
864.954	21382
865.086	21416
865.217	21275
865.349	21317
865.48	21222
865.612	21329
865.743	21291
865.875	21302
866.006	21256
866.137	21382
866.269	21302
866.4	21279
866.531	21230
866.662	21142
866.793	21176
866.924	21233
867.055	21211
867.186	21302
867.317	21203
867.448	21036
867.579	21195
867.71	21233
867.841	21074
867.972	21104
868.103	21085
868.233	21233
868.364	21211
868.495	21252
868.625	21462
868.756	21633
868.886	21306
869.017	21370
869.147	21496
869.278	21534
869.408	21488
869.539	21530
869.669	21473
869.799	21538
869.929	21675
870.06	21405
870.19	21819
870.32	21755
870.45	21831
870.58	21797
870.71	22017
870.84	21998
870.97	21812
871.1	21766
871.23	21994
871.36	22010
871.489	21937
871.619	22010
871.749	22013
871.879	22093
872.008	22051
872.138	22029
872.267	22166
872.397	21975
872.526	21880
872.656	21800
872.785	21953
872.915	22040
873.044	22154
873.173	22013
873.303	22055
873.432	22154
873.561	22207
873.69	22059
873.819	22116
873.948	22131
874.077	22109
874.206	22006
874.335	22116
874.464	22166
874.593	22207
874.722	22211
874.851	22276
874.979	22310
875.108	22337
875.237	22211
875.365	22215
875.494	22310
875.623	22276
875.751	22284
875.88	22386
876.008	22360
876.136	22519
876.265	22599
876.393	22763
876.521	22744
876.65	22698
876.778	22656
876.906	22626
877.034	22626
877.162	22577
877.29	22542
877.418	22694
877.546	22622
877.674	22542
877.802	22485
877.93	22596
878.058	22618
878.185	22455
878.313	22634
878.441	22554
878.568	22432
878.696	22592
878.824	22603
878.951	22656
879.079	22854
879.206	22911
879.333	22767
879.461	22691
879.588	22812
879.715	22774
879.842	22904
879.97	22748
880.097	22390
880.224	22314
880.351	22489
880.478	22485
880.605	22402
880.732	22348
880.859	22626
880.986	22455
881.112	22451
881.239	22352
881.366	22147
881.493	22055
881.619	22063
881.746	22010
881.872	21983
881.999	22135
882.125	21994
882.252	22051
882.378	22013
882.505	21994
882.631	21808
882.757	21831
882.883	21781
883.01	21641
883.136	21804
883.262	21618
883.388	21515
883.514	21720
883.64	21686
883.766	21576
883.892	21625
884.018	21507
884.143	21766
884.269	21679
884.395	21397
884.52	21233
884.646	21363
884.772	21344
884.897	21218
885.023	21416
885.148	21492
885.274	21428
885.399	21454
885.524	21351
885.65	21336
885.775	21424
885.9	21370
886.025	21370
886.15	21367
886.275	21397
886.4	21306
886.525	21226
886.65	21199
886.775	21325
886.9	21477
887.025	21549
887.149	21355
887.274	21169
887.399	21226
887.523	21135
887.648	21165
887.773	21081
887.897	21176
888.021	21127
888.146	21043
888.27	21116
888.395	21218
888.519	21195
888.643	21176
888.767	21184
888.891	20994
889.015	20902
889.139	20982
889.263	20857
889.387	21070
889.511	21150
889.635	21020
889.759	20876
889.883	20861
890.006	20956
890.13	21009
890.254	20819
890.377	20769
890.501	20678
890.624	20590
890.748	20674
890.871	20575
890.995	20518
891.118	20476
891.241	20465
891.364	20526
891.488	20667
891.611	20495
891.734	20549
891.857	20442
891.98	20465
892.103	20583
892.226	20469
892.349	20358
892.471	20267
892.594	20396
892.717	20389
892.839	20400
892.962	20381
893.085	20377
893.207	20488
893.33	20229
893.452	20343
893.575	20309
893.697	20336
893.819	20575
893.941	20579
894.064	20533
894.186	20320
894.308	20324
894.43	20533
894.552	20514
894.674	20370
894.796	20275
894.918	20476
895.04	20328
895.161	20480
895.283	20522
895.405	20332
895.526	20377
895.648	20408
895.769	20355
895.891	20366
896.012	20446
896.134	20320
896.255	20415
896.376	20282
896.498	20442
896.619	20256
896.74	20324
896.861	20473
896.982	20739
897.103	20868
897.224	20590
897.345	20518
897.466	20640
897.587	20617
897.708	20682
897.828	20541
897.949	20514
898.07	20461
898.19	20507
898.311	20651
898.431	20587
898.552	20518
898.672	20705
898.792	20667
898.913	20651
899.033	20571
899.153	20431
899.273	20324
899.393	20412
899.513	20450
899.633	20244
899.753	20408
899.873	20286
899.993	20381
900.113	20282
900.232	20290
900.352	20267
900.472	20233
900.591	20069
900.711	20107
900.83	20054
900.95	20282
901.069	20119
901.189	20008
901.308	19898
901.427	19651
901.546	19677
901.665	19742
901.784	19643
901.904	19624
902.023	19419
902.141	19202
902.26	19198
902.379	19304
902.498	19152
902.617	19126
902.735	19187
902.854	19171
902.973	19114
903.091	18962
903.21	18833
903.328	18871
903.446	18715
903.565	18707
903.683	18684
903.801	18528
903.919	18601
904.038	18639
904.156	18380
904.274	18502
904.392	18475
904.51	18403
904.627	18391
904.745	18403
904.863	18506
904.981	18152
905.098	18152
905.216	18011
905.334	18098
905.451	18117
905.569	18019
905.686	18114
905.803	17980
905.921	17939
906.038	17996
906.155	17878
906.272	17870
906.389	17771
906.506	17592
906.623	17653
906.74	17642
906.857	17436
906.974	17619
907.091	17661
907.208	17741
907.324	17619
907.441	17551
907.557	17551
907.674	17463
907.79	17269
907.907	17227
908.023	17410
908.139	17391
908.256	17292
908.372	17288
908.488	17212
908.604	17029
908.72	17083
908.836	17143
908.952	17003
909.068	17102
909.184	17132
909.3	17117
909.415	17151
909.531	17029
909.647	16767
909.762	16790
909.878	16672
909.993	16805
910.108	16736
910.224	16599
910.339	16774
910.454	16569
910.57	16512
910.685	16504
910.8	16809
910.915	16683
911.03	16565
911.145	16447
911.259	16337
911.374	16284
911.489	16287
911.604	16215
911.718	16059
911.833	16071
911.947	16013
912.062	15972
912.176	16116
912.291	16154
912.405	16105
912.519	16318
912.633	16211
912.748	16147
912.862	16139
912.976	15987
913.09	15739
913.204	15857
913.318	15937
913.431	16025
913.545	15899
913.659	16090
913.772	15873
913.886	15755
914	15724
914.113	15816
914.226	15739
914.34	15793
914.453	15599
914.566	15732
914.68	15603
914.793	15545
914.906	15378
915.019	15332
915.132	15241
915.245	15378
915.358	15275
915.47	15283
915.583	15283
915.696	15374
915.809	15279
915.921	15469
916.034	15237
916.146	15180
916.259	15245
916.371	15272
916.483	15233
916.595	15150
916.708	15249
916.82	15119
916.932	15032
917.044	15051
917.156	15058
917.268	14906
917.38	14887
917.491	14998
917.603	14902
917.715	15051
917.826	15058
917.938	14796
918.049	14773
918.161	14857
918.272	15089
918.384	15043
918.495	14956
918.606	14689
918.717	14689
918.828	14796
918.939	14777
919.05	14568
919.161	14667
919.272	14492
919.383	14568
919.494	14708
919.604	14876
919.715	14613
919.826	14606
919.936	14629
920.047	14758
920.157	14769
920.267	14834
920.378	14674
920.488	14602
920.598	14796
920.708	15001
920.818	14796
920.928	14686
921.038	14971
921.148	14842
921.258	14564
921.368	14651
921.477	14473
921.587	14408
921.697	14271
921.806	14446
921.916	14218
922.025	14088
922.134	14111
922.244	14043
922.353	14142
922.462	13936
922.571	13799
922.68	13700
922.789	13731
922.898	13693
923.007	13624
923.116	13769
923.224	13731
923.333	13658
923.442	13575
923.55	13506
923.659	13594
923.767	13518
923.876	13468
923.984	13434
924.092	13384
924.201	13381
924.309	13464
924.417	13403
924.525	13362
924.633	13388
924.741	14103
924.849	13190
924.956	13301
925.064	13141
925.172	13031
925.279	13034
925.387	13129
925.494	13088
925.602	13160
925.709	13149
925.816	13110
925.924	13095
926.031	13145
926.138	13012
926.245	13164
926.352	12947
926.459	13110
926.566	13114
926.673	12954
926.779	12829
926.886	12833
926.993	12696
927.099	12692
927.206	12582
927.312	12673
927.419	12669
927.525	12601
927.631	12730
927.737	12532
927.843	12479
927.95	12490
928.056	12422
928.162	12445
928.267	12445
928.373	13099
928.479	12513
928.585	12353
928.69	12517
928.796	12494
928.901	12334
929.007	12247
929.112	12296
929.218	12315
929.323	12209
929.428	12201
929.533	12327
929.638	12117
929.743	12213
929.848	12243
929.953	12087
930.058	12041
930.163	11870
930.267	11817
930.372	11923
930.477	11817
930.581	12057
930.685	11954
930.79	11859
930.894	11771
930.998	11798
931.103	11885
931.207	11505
931.311	11459
931.415	11364
931.519	11193
931.623	11121
