Data from test_V78500241_1980.txt Node
Date: Fri Mar 25 15:55:31 CST 2022
User: usil
Spectrometer: V785-0024
Trigger mode: 0
Integration Time (sec): 4.000000E-1
Scans to average: 1
Nonlinearity correction enabled: false
Boxcar width: 0
Storing dark spectrum: false
XAxis mode: Wavelengths
Number of Pixels in Spectrum: 1024
>>>>>Begin Spectral Data<<<<<
801.071	27998
801.214	27949
801.356	27800
801.499	27709
801.641	27500
801.783	27488
801.926	27549
802.068	27561
802.211	27534
802.353	27393
802.496	27260
802.638	27100
802.78	27055
802.923	27325
803.065	27024
803.208	27131
803.35	27131
803.492	27325
803.635	27431
803.777	27370
803.919	27481
804.061	27660
804.204	27473
804.346	27321
804.488	27367
804.63	27458
804.773	27367
804.915	27576
805.057	27561
805.199	27447
805.341	27591
805.483	27667
805.626	27447
805.768	27515
805.91	27557
806.052	27656
806.194	27488
806.336	27797
806.478	27694
806.62	27485
806.762	27713
806.904	27759
807.046	27968
807.188	27949
807.33	27934
807.472	28101
807.614	27827
807.756	27907
807.898	27949
808.04	27850
808.182	27808
808.324	27835
808.465	27854
808.607	28090
808.749	28147
808.891	28272
809.033	28394
809.174	28291
809.316	28261
809.458	28116
809.6	28135
809.741	28371
809.883	28318
810.025	28382
810.166	28462
810.308	28421
810.45	28394
810.591	28390
810.733	28337
810.875	28166
811.016	27960
811.158	28021
811.299	28379
811.441	28401
811.582	28405
811.724	28299
811.865	28215
812.007	28295
812.148	28223
812.29	28398
812.431	28478
812.573	28538
812.714	28626
812.855	28767
812.997	28793
813.138	28999
813.279	28786
813.421	28656
813.562	28687
813.703	28512
813.845	28436
813.986	28109
814.127	27842
814.268	27960
814.41	28029
814.551	27850
814.692	28040
814.833	27831
814.974	27873
815.115	27899
815.256	27827
815.397	27709
815.539	27808
815.68	27614
815.821	27580
815.962	27667
816.103	27717
816.244	27523
816.385	27507
816.526	27572
816.666	27363
816.807	27070
816.948	27317
817.089	27188
817.23	27135
817.371	27214
817.512	27119
817.653	27222
817.793	27093
817.934	27256
818.075	27237
818.216	27222
818.356	27142
818.497	27131
818.638	26952
818.778	26785
818.919	26994
819.06	26963
819.2	26948
819.341	27256
819.481	27142
819.622	27435
819.762	27538
819.903	27534
820.043	27268
820.184	27310
820.324	27237
820.465	27260
820.605	27283
820.746	27283
820.886	27233
821.026	27275
821.167	27363
821.307	27336
821.447	27245
821.588	27169
821.728	26944
821.868	26819
822.008	26735
822.149	26632
822.289	26533
822.429	26465
822.569	26366
822.709	26320
822.849	26157
822.99	26199
823.13	26130
823.27	26290
823.41	25887
823.55	25666
823.69	26001
823.83	26069
823.97	25936
824.11	25757
824.25	25738
824.389	25830
824.529	25818
824.669	25700
824.809	25894
824.949	25883
825.089	25925
825.228	25830
825.368	25658
825.508	25681
825.648	25837
825.787	25670
825.927	25719
826.067	25571
826.206	25666
826.346	25655
826.485	25727
826.625	25708
826.765	25849
826.904	25784
827.044	25529
827.183	25396
827.323	25331
827.462	25476
827.601	25529
827.741	25327
827.88	25460
828.02	25213
828.159	25327
828.298	25476
828.437	25426
828.577	25350
828.716	25540
828.855	25285
828.994	25000
829.134	25061
829.273	25088
829.412	24943
829.551	25053
829.69	24920
829.829	25171
829.968	25152
830.107	25034
830.246	25198
830.385	25027
830.524	24973
830.663	24878
830.802	24848
830.941	24642
831.08	24654
831.219	24753
831.357	24753
831.496	24882
831.635	24745
831.774	24574
831.913	24452
832.051	24410
832.19	24486
832.329	24422
832.467	24376
832.606	24311
832.744	24308
832.883	24247
833.022	24334
833.16	24304
833.299	24456
833.437	24448
833.576	24395
833.714	24426
833.852	24445
833.991	24479
834.129	24505
834.267	24456
834.406	24448
834.544	24380
834.682	24422
834.821	24395
834.959	24403
835.097	24372
835.235	24502
835.373	24437
835.511	24372
835.65	24213
835.788	24262
835.926	24091
836.064	24182
836.202	24049
836.34	24247
836.478	24273
836.615	24224
836.753	24311
836.891	24353
837.029	24300
837.167	24201
837.305	24163
837.443	24228
837.58	24076
837.718	24152
837.856	24167
837.993	24038
838.131	24102
838.269	23980
838.406	24011
838.544	24022
838.681	23722
838.819	23714
838.956	23600
839.094	23630
839.231	23585
839.369	23672
839.506	24045
839.643	23832
839.781	23638
839.918	23463
840.055	23611
840.193	23619
840.33	23554
840.467	23547
840.604	23543
840.742	23684
840.879	23395
841.016	23482
841.153	23402
841.29	23471
841.427	23486
841.564	23368
841.701	23524
841.838	23452
841.975	23436
842.112	23318
842.249	23296
842.385	23204
842.522	23615
842.659	23414
842.796	23178
842.933	23387
843.069	23174
843.206	23284
843.343	23258
843.479	23284
843.616	23246
843.752	23079
843.889	23079
844.025	23117
844.162	22976
844.298	23064
844.435	22889
844.571	23010
844.708	23250
844.844	23178
844.98	23193
845.117	22991
845.253	22866
845.389	22862
845.525	23010
845.661	22908
845.798	22752
845.934	22953
846.07	22824
846.206	22923
846.342	22930
846.478	22763
846.614	22569
846.75	22440
846.886	22466
847.022	22531
847.158	22527
847.294	22527
847.429	22500
847.565	22386
847.701	22599
847.837	22268
847.972	22246
848.108	22215
848.244	22360
848.379	22128
848.515	22002
848.65	22109
848.786	22101
848.921	22078
849.057	22147
849.192	22158
849.328	22147
849.463	22169
849.598	22055
849.734	22070
849.869	21899
850.004	21808
850.14	21831
850.275	21903
850.41	21762
850.545	21911
850.68	21781
850.815	21835
850.95	21789
851.085	22032
851.22	21960
851.355	21899
851.49	21804
851.625	21781
851.76	21800
851.895	21789
852.03	21728
852.165	21797
852.299	21941
852.434	21812
852.569	21816
852.703	21789
852.838	21983
852.973	21991
853.107	22101
853.242	21762
853.376	21625
853.511	21583
853.645	21633
853.78	21846
853.914	21652
854.048	21652
854.183	21701
854.317	21686
854.451	21781
854.585	21709
854.72	21717
854.854	21838
854.988	21553
855.122	21580
855.256	21595
855.39	21599
855.524	21717
855.658	21698
855.792	21698
855.926	21728
856.06	21671
856.194	21816
856.327	21580
856.461	21648
856.595	21603
856.729	21739
856.862	21751
856.996	21698
857.13	21720
857.263	21774
857.397	21682
857.53	21713
857.664	21705
857.797	21724
857.931	21690
858.064	21641
858.197	21682
858.331	21542
858.464	21652
858.597	21564
858.731	21660
858.864	21701
858.997	21568
859.13	21648
859.263	21755
859.396	21816
859.529	21717
859.662	21576
859.795	21641
859.928	21580
860.061	21759
860.194	21857
860.327	21755
860.46	21690
860.592	21854
860.725	21907
860.858	21766
860.99	21705
861.123	21523
861.256	21599
861.388	21671
861.521	22436
861.653	21587
861.786	21523
861.918	21504
862.05	21622
862.183	21652
862.315	21549
862.447	21663
862.58	21591
862.712	21405
862.844	21348
862.976	21580
863.108	21481
863.24	21850
863.372	21412
863.504	21351
863.636	21321
863.768	21466
863.9	21317
864.032	21363
864.164	21195
864.296	21367
864.428	21408
864.559	21511
864.691	21507
864.823	21397
864.954	21302
865.086	21302
865.217	21264
865.349	21135
865.48	21218
865.612	21211
865.743	21458
865.875	21351
866.006	21211
866.137	21298
866.269	21245
866.4	21154
866.531	21264
866.662	21188
866.793	21264
866.924	21218
867.055	21310
867.186	21116
867.317	21283
867.448	21249
867.579	21180
867.71	21192
867.841	21161
867.972	21237
868.103	21089
868.233	21230
868.364	21245
868.495	21237
868.625	21386
868.756	21538
868.886	21458
869.017	21439
869.147	21526
869.278	21564
869.408	21663
869.539	21488
869.669	21515
869.799	21561
869.929	21519
870.06	21523
870.19	21816
870.32	21823
870.45	21812
870.58	21964
870.71	21827
870.84	21899
870.97	21709
871.1	21800
871.23	21994
871.36	21975
871.489	21975
871.619	22086
871.749	22048
871.879	22109
872.008	22169
872.138	22120
872.267	22010
872.397	21903
872.526	21945
872.656	21941
872.785	21842
872.915	22055
873.044	22226
873.173	22044
873.303	22135
873.432	22204
873.561	22131
873.69	22128
873.819	21930
873.948	22166
874.077	22158
874.206	21953
874.335	22044
874.464	22147
874.593	22318
874.722	22207
874.851	22276
874.979	22325
875.108	22207
875.237	22105
875.365	22093
875.494	22204
875.623	22314
875.751	22230
875.88	22295
876.008	22432
876.136	22432
876.265	22706
876.393	22736
876.521	22877
876.65	22854
876.778	22698
876.906	22755
877.034	22687
877.162	22577
877.29	22634
877.418	22721
877.546	22679
877.674	22702
877.802	22653
877.93	22710
878.058	22538
878.185	22466
878.313	22607
878.441	22607
878.568	22504
878.696	22603
878.824	22702
878.951	22706
879.079	22805
879.206	22850
879.333	22744
879.461	22755
879.588	22706
879.715	22797
879.842	23029
879.97	22748
880.097	22527
880.224	22432
880.351	22500
880.478	22504
880.605	22485
880.732	22310
880.859	22569
880.986	22481
881.112	22451
881.239	22246
881.366	22173
881.493	22074
881.619	22051
881.746	21987
881.872	22055
881.999	21979
882.125	21937
882.252	22093
882.378	21979
882.505	22105
882.631	21918
882.757	21759
882.883	21823
883.01	21800
883.136	21641
883.262	21728
883.388	21557
883.514	21701
883.64	21755
883.766	21629
883.892	21473
884.018	21591
884.143	21610
884.269	21785
884.395	21485
884.52	21435
884.646	21469
884.772	21283
884.897	21272
885.023	21473
885.148	21462
885.274	21462
885.399	21420
885.524	21374
885.65	21268
885.775	21443
885.9	21226
886.025	21439
886.15	21412
886.275	21294
886.4	21306
886.525	21435
886.65	21264
886.775	21203
886.9	21443
887.025	21443
887.149	21306
887.274	21154
887.399	21154
887.523	20990
887.648	21131
887.773	20990
887.897	21180
888.021	21291
888.146	21222
888.27	21100
888.395	21203
888.519	21104
888.643	21100
888.767	21180
888.891	21096
889.015	20933
889.139	21028
889.263	20887
889.387	20952
889.511	21066
889.635	21066
889.759	20960
889.883	20777
890.006	20963
890.13	20975
890.254	20861
890.377	20807
890.501	20720
890.624	20606
890.748	20659
890.871	20571
890.995	20400
891.118	20438
891.241	20450
891.364	20476
891.488	20697
891.611	20522
891.734	20362
891.857	20514
891.98	20469
892.103	20545
892.226	20473
892.349	20518
892.471	20278
892.594	20484
892.717	20488
892.839	20320
892.962	20282
893.085	20522
893.207	20294
893.33	20256
893.452	20362
893.575	20313
893.697	20237
893.819	20484
893.941	20632
894.064	20434
894.186	20461
894.308	20301
894.43	20423
894.552	20545
894.674	20351
894.796	20305
894.918	20389
895.04	20336
895.161	20374
895.283	20313
895.405	20347
895.526	20294
895.648	20442
895.769	20412
895.891	20415
896.012	20488
896.134	20320
896.255	20434
896.376	20362
896.498	20385
896.619	20351
896.74	20267
896.861	20400
896.982	20765
897.103	20842
897.224	20560
897.345	20640
897.466	20465
897.587	20663
897.708	20678
897.828	20686
897.949	20560
898.07	20522
898.19	20442
898.311	20678
898.431	20625
898.552	20587
898.672	20693
898.792	20743
898.913	20648
899.033	20400
899.153	20434
899.273	20317
899.393	20385
899.513	20381
899.633	20400
899.753	20450
899.873	20248
899.993	20381
900.113	20271
900.232	20320
900.352	20248
900.472	20164
900.591	20092
900.711	20130
900.83	20092
900.95	20290
901.069	20172
901.189	20043
901.308	19780
901.427	19620
901.546	19681
901.665	19765
901.784	19791
901.904	19537
902.023	19430
902.141	19202
902.26	19263
902.379	19324
902.498	19266
902.617	19099
902.735	19274
902.854	19160
902.973	19057
903.091	19072
903.21	18894
903.328	18897
903.446	18848
903.565	18646
903.683	18764
903.801	18578
903.919	18616
904.038	18566
904.156	18486
904.274	18467
904.392	18433
904.51	18498
904.627	18304
904.745	18448
904.863	18429
904.981	18216
905.098	18091
905.216	18087
905.334	18125
905.451	18098
905.569	18110
905.686	18140
905.803	18224
905.921	17863
906.038	18011
906.155	17878
906.272	17733
906.389	17798
906.506	17714
906.623	17611
906.74	17608
906.857	17566
906.974	17512
907.091	17805
907.208	17733
907.324	17668
907.441	17611
907.557	17284
907.674	17376
907.79	17216
907.907	17258
908.023	17436
908.139	17387
908.256	17284
908.372	17315
908.488	17265
908.604	17159
908.72	16999
908.836	16946
908.952	17003
909.068	17155
909.184	17136
909.3	17075
909.415	17018
909.531	17014
909.647	16866
909.762	16816
909.878	16706
909.993	16778
910.108	16702
910.224	16717
910.339	16664
910.454	16717
910.57	16554
910.685	16497
910.8	16778
910.915	16797
911.03	16508
911.145	16409
911.259	16379
911.374	16455
911.489	16352
911.604	16215
911.718	16051
911.833	16131
911.947	16086
912.062	16040
912.176	16093
912.291	16120
912.405	16048
912.519	16253
912.633	16299
912.748	16040
912.862	16051
912.976	15884
913.09	15838
913.204	15812
913.318	15915
913.431	16086
913.545	15953
913.659	15994
913.772	15823
913.886	15842
914	15717
914.113	15709
914.226	15850
914.34	15724
914.453	15576
914.566	15755
914.68	15614
914.793	15561
914.906	15374
915.019	15348
915.132	15393
915.245	15336
915.358	15348
915.47	15279
915.583	15325
915.696	15287
915.809	15584
915.921	15412
916.034	15260
916.146	15192
916.259	15195
916.371	15233
916.483	15382
916.595	15169
916.708	15131
916.82	15203
916.932	15039
917.044	15131
917.156	15100
917.268	14914
917.38	15028
917.491	14952
917.603	14979
917.715	15043
917.826	15093
917.938	14952
918.049	14864
918.161	15062
918.272	15036
918.384	15005
918.495	14815
918.606	14819
918.717	14716
918.828	14667
918.939	14792
919.05	14682
919.161	14621
919.272	14476
919.383	14552
919.494	14762
919.604	14895
919.715	14739
919.826	14644
919.936	14640
920.047	14746
920.157	14765
920.267	14872
920.378	14682
920.488	14724
920.598	14830
920.708	14967
920.818	14804
920.928	14807
921.038	14963
921.148	14960
921.258	14636
921.368	14537
921.477	14503
921.587	14408
921.697	14252
921.806	14431
921.916	14263
922.025	14092
922.134	14084
922.244	13947
922.353	14062
922.462	13909
922.571	13883
922.68	13723
922.789	13715
922.898	13674
923.007	13674
923.116	13693
923.224	13651
923.333	13651
923.442	13472
923.55	13559
923.659	13472
923.767	13647
923.876	13506
923.984	13590
924.092	13460
924.201	13480
924.309	13449
924.417	13453
924.525	13331
924.633	13358
924.741	14176
924.849	13114
924.956	13293
925.064	13175
925.172	13050
925.279	13103
925.387	13084
925.494	13175
925.602	13179
925.709	13118
925.816	12973
925.924	13000
926.031	13145
926.138	13031
926.245	13031
926.352	12993
926.459	13103
926.566	13088
926.673	13069
926.779	12890
926.886	12802
926.993	12707
927.099	12631
927.206	12650
927.312	12612
927.419	12639
927.525	12711
927.631	12711
927.737	12582
927.843	12536
927.95	12445
928.056	12464
928.162	12517
928.267	12532
928.373	13244
928.479	12623
928.585	12361
928.69	12521
928.796	12384
928.901	12308
929.007	12243
929.112	12388
929.218	12327
929.323	12197
929.428	12213
929.533	12289
929.638	12076
929.743	12117
929.848	12258
929.953	12148
930.058	12091
930.163	11893
930.267	11897
930.372	11950
930.477	11901
930.581	12072
930.685	11939
930.79	11676
930.894	11836
930.998	11741
931.103	11809
931.207	11528
931.311	11436
931.415	11315
931.519	11174
931.623	11128
