Data from test_V78500241_2833.txt Node
Date: Fri Mar 25 16:01:25 CST 2022
User: usil
Spectrometer: V785-0024
Trigger mode: 0
Integration Time (sec): 4.000000E-1
Scans to average: 1
Nonlinearity correction enabled: false
Boxcar width: 0
Storing dark spectrum: false
XAxis mode: Wavelengths
Number of Pixels in Spectrum: 1024
>>>>>Begin Spectral Data<<<<<
801.071	29261
801.214	29216
801.356	28911
801.499	28999
801.641	28866
801.783	28858
801.926	28812
802.068	28755
802.211	28637
802.353	28763
802.496	28748
802.638	28607
802.78	28390
802.923	28333
803.065	28379
803.208	28371
803.35	28493
803.492	28653
803.635	28835
803.777	28729
803.919	28618
804.061	28957
804.204	28755
804.346	28778
804.488	28622
804.63	28767
804.773	28668
804.915	28908
805.057	29022
805.199	28767
805.341	28774
805.483	28991
805.626	28919
805.768	28717
805.91	28984
806.052	28816
806.194	28820
806.336	29022
806.478	28961
806.62	28877
806.762	28968
806.904	29250
807.046	29535
807.188	29478
807.33	29356
807.472	29490
807.614	29220
807.756	29372
807.898	29288
808.04	29254
808.182	29284
808.324	29288
808.465	29349
808.607	29471
808.749	29592
808.891	29847
809.033	29802
809.174	29741
809.316	29653
809.458	29596
809.6	29642
809.741	29809
809.883	29665
810.025	30003
810.166	30007
810.308	29935
810.45	29977
810.591	29821
810.733	29775
810.875	29531
811.016	29718
811.158	29524
811.299	29779
811.441	29920
811.582	29828
811.724	29680
811.865	29516
812.007	29615
812.148	29729
812.29	29935
812.431	29855
812.573	29942
812.714	30178
812.855	30277
812.997	30201
813.138	30464
813.279	30270
813.421	30281
813.562	30087
813.703	29988
813.845	29874
813.986	29539
814.127	29577
814.268	29448
814.41	29452
814.551	29364
814.692	29535
814.833	29471
814.974	29292
815.115	29493
815.256	29242
815.397	29242
815.539	29258
815.68	29265
815.821	29231
815.962	29337
816.103	29155
816.244	29041
816.385	28949
816.526	28873
816.666	28873
816.807	28626
816.948	28797
817.089	28786
817.23	28858
817.371	28706
817.512	28740
817.653	28630
817.793	28615
817.934	28679
818.075	28717
818.216	28725
818.356	28706
818.497	28618
818.638	28546
818.778	28607
818.919	28329
819.06	28577
819.2	28607
819.341	28660
819.481	28763
819.622	28866
819.762	29033
819.903	28972
820.043	28824
820.184	28771
820.324	28934
820.465	28908
820.605	28900
820.746	28831
820.886	28622
821.026	28839
821.167	28801
821.307	28744
821.447	28843
821.588	28820
821.728	28497
821.868	28246
822.008	28226
822.149	28253
822.289	28322
822.429	27861
822.569	27838
822.709	27953
822.849	27835
822.99	27728
823.13	27816
823.27	27686
823.41	27603
823.55	27515
823.69	27511
823.83	27523
823.97	27504
824.11	27378
824.25	27169
824.389	27245
824.529	27564
824.669	27340
824.809	27401
824.949	27500
825.089	27408
825.228	27378
825.368	27241
825.508	27226
825.648	27180
825.787	27275
825.927	27256
826.067	27241
826.206	27245
826.346	27344
826.485	27298
826.625	27203
826.765	27325
826.904	27367
827.044	27074
827.183	27017
827.323	26948
827.462	27070
827.601	27070
827.741	26868
827.88	27093
828.02	26887
828.159	26990
828.298	26940
828.437	27089
828.577	27020
828.716	26944
828.855	26895
828.994	26636
829.134	26648
829.273	26682
829.412	26640
829.551	26560
829.69	26552
829.829	26667
829.968	26682
830.107	26895
830.246	26701
830.385	26568
830.524	26686
830.663	26511
830.802	26400
830.941	26229
831.08	26256
831.219	26457
831.357	26355
831.496	26632
831.635	26301
831.774	26149
831.913	26054
832.051	26126
832.19	25902
832.329	26100
832.467	25997
832.606	26088
832.744	25864
832.883	25887
833.022	25890
833.16	25818
833.299	26119
833.437	25997
833.576	26027
833.714	26084
833.852	26005
833.991	26199
834.129	26115
834.267	26168
834.406	25986
834.544	26149
834.682	26069
834.821	25864
834.959	26062
835.097	25833
835.235	26069
835.373	25932
835.511	25936
835.65	25803
835.788	25753
835.926	25662
836.064	25597
836.202	25601
836.34	25734
836.478	25814
836.615	25757
836.753	25795
836.891	25928
837.029	25822
837.167	25784
837.305	25693
837.443	25689
837.58	25571
837.718	25662
837.856	25666
837.993	25460
838.131	25655
838.269	25635
838.406	25544
838.544	25453
838.681	25384
838.819	25247
838.956	25194
839.094	25084
839.231	25168
839.369	25232
839.506	25430
839.643	25293
839.781	25126
839.918	25072
840.055	25091
840.193	25076
840.33	25004
840.467	25050
840.604	24905
840.742	25171
840.879	24935
841.016	24810
841.153	24802
841.29	25050
841.427	25019
841.564	24909
841.701	24901
841.838	25015
841.975	24981
842.112	24840
842.249	24711
842.385	24715
842.522	24985
842.659	24856
842.796	24703
842.933	24673
843.069	24669
843.206	24585
843.343	24783
843.479	24787
843.616	24741
843.752	24540
843.889	24631
844.025	24741
844.162	24570
844.298	24551
844.435	24551
844.571	24536
844.708	24570
844.844	24688
844.98	24589
845.117	24719
845.253	24525
845.389	24391
845.525	24346
845.661	24475
845.798	24365
845.934	24315
846.07	24110
846.206	24289
846.342	24384
846.478	24194
846.614	24110
846.75	23965
846.886	23916
847.022	24064
847.158	23999
847.294	23942
847.429	24072
847.565	23942
847.701	24232
847.837	23668
847.972	23623
848.108	23798
848.244	23786
848.379	23554
848.515	23547
848.65	23509
848.786	23531
848.921	23623
849.057	23729
849.192	23634
849.328	23486
849.463	23627
849.598	23459
849.734	23551
849.869	23170
850.004	23178
850.14	23235
850.275	23296
850.41	23216
850.545	23250
850.68	23216
850.815	23429
850.95	23425
851.085	23486
851.22	23436
851.355	23421
851.49	23277
851.625	23326
851.76	23284
851.895	23254
852.03	23227
852.165	23258
852.299	23330
852.434	23349
852.569	23299
852.703	23402
852.838	23337
852.973	23478
853.107	23383
853.242	23326
853.376	23197
853.511	22972
853.645	23121
853.78	23265
853.914	23193
854.048	23132
854.183	23143
854.317	23162
854.451	23376
854.585	23189
854.72	23162
854.854	23185
854.988	23109
855.122	23197
855.256	22927
855.39	23083
855.524	23151
855.658	23151
855.792	23128
855.926	23105
856.06	23136
856.194	23151
856.327	23006
856.461	23022
856.595	23090
856.729	22965
856.862	23166
856.996	23296
857.13	23185
857.263	23086
857.397	23174
857.53	23071
857.664	23132
857.797	23235
857.931	23258
858.064	23044
858.197	23265
858.331	23128
858.464	23128
858.597	23025
858.731	23018
858.864	23094
858.997	23014
859.13	23200
859.263	23200
859.396	23178
859.529	23151
859.662	23022
859.795	23052
859.928	23162
860.061	23277
860.194	23349
860.327	23292
860.46	23166
860.592	23193
860.725	23223
860.858	23265
860.99	23193
861.123	23003
861.256	23056
861.388	23189
861.521	23805
861.653	23079
861.786	22934
861.918	22858
862.05	23056
862.183	23094
862.315	23170
862.447	23090
862.58	23033
862.712	22915
862.844	22767
862.976	22831
863.108	22847
863.24	23250
863.372	22733
863.504	22778
863.636	22843
863.768	23086
863.9	22881
864.032	22820
864.164	22797
864.296	22778
864.428	22866
864.559	22923
864.691	22915
864.823	22858
864.954	22850
865.086	22816
865.217	22744
865.349	22615
865.48	22767
865.612	22637
865.743	22782
865.875	22744
866.006	22656
866.137	22653
866.269	22698
866.4	22672
866.531	22687
866.662	22478
866.793	22713
866.924	22668
867.055	22626
867.186	22618
867.317	22622
867.448	22512
867.579	22668
867.71	22546
867.841	22554
867.972	22630
868.103	22580
868.233	22675
868.364	22584
868.495	22675
868.625	22881
868.756	22949
868.886	22698
869.017	22843
869.147	23029
869.278	22934
869.408	22881
869.539	22889
869.669	22923
869.799	22885
869.929	22949
870.06	22961
870.19	23193
870.32	23102
870.45	23140
870.58	23284
870.71	23189
870.84	23307
870.97	23185
871.1	23220
871.23	23402
871.36	23497
871.489	23322
871.619	23471
871.749	23543
871.879	23531
872.008	23516
872.138	23501
872.267	23478
872.397	23368
872.526	23239
872.656	23387
872.785	23254
872.915	23554
873.044	23623
873.173	23455
873.303	23463
873.432	23642
873.561	23649
873.69	23531
873.819	23406
873.948	23490
874.077	23516
874.206	23425
874.335	23429
874.464	23535
874.593	23649
874.722	23695
874.851	23619
874.979	23687
875.108	23630
875.237	23691
875.365	23482
875.494	23604
875.623	23733
875.751	23604
875.88	23676
876.008	23912
876.136	23855
876.265	24030
876.393	24319
876.521	24152
876.65	24121
876.778	24178
876.906	23897
877.034	23935
877.162	24034
877.29	23908
877.418	24018
877.546	24068
877.674	23904
877.802	24041
877.93	23996
878.058	23984
878.185	23893
878.313	23954
878.441	24026
878.568	23870
878.696	23992
878.824	23961
878.951	24072
879.079	24125
879.206	24194
879.333	24228
879.461	24053
879.588	24213
879.715	24038
879.842	24292
879.97	24068
880.097	23790
880.224	23847
880.351	23904
880.478	23958
880.605	23805
880.732	23798
880.859	24133
880.986	23798
881.112	23786
881.239	23615
881.366	23604
881.493	23543
881.619	23349
881.746	23490
881.872	23330
881.999	23463
882.125	23425
882.252	23512
882.378	23326
882.505	23570
882.631	23212
882.757	23022
882.883	23208
883.01	23090
883.136	23003
883.262	22946
883.388	22866
883.514	22972
883.64	23052
883.766	23003
883.892	22873
884.018	22729
884.143	22889
884.269	23216
884.395	22824
884.52	22664
884.646	22679
884.772	22656
884.897	22546
885.023	22740
885.148	22752
885.274	22801
885.399	22698
885.524	22668
885.65	22797
885.775	22622
885.9	22755
886.025	22717
886.15	22721
886.275	22687
886.4	22531
886.525	22565
886.65	22702
886.775	22630
886.9	22896
887.025	22839
887.149	22588
887.274	22402
887.399	22428
887.523	22299
887.648	22512
887.773	22432
887.897	22451
888.021	22428
888.146	22344
888.27	22481
888.395	22557
888.519	22455
888.643	22485
888.767	22402
888.891	22306
889.015	22215
889.139	22291
889.263	22211
889.387	22268
889.511	22436
889.635	22398
889.759	22207
889.883	22139
890.006	22215
890.13	22394
890.254	21979
890.377	22131
890.501	22036
890.624	21903
890.748	22044
890.871	21785
890.995	21778
891.118	21656
891.241	21743
891.364	21705
891.488	21888
891.611	21781
891.734	21903
891.857	21888
891.98	21812
892.103	21930
892.226	21766
892.349	21629
892.471	21485
892.594	21663
892.717	21682
892.839	21583
892.962	21709
893.085	21698
893.207	21629
893.33	21515
893.452	21591
893.575	21709
893.697	21641
893.819	21857
893.941	21812
894.064	21823
894.186	21477
894.308	21644
894.43	21671
894.552	21892
894.674	21724
894.796	21545
894.918	21424
895.04	21667
895.161	21637
895.283	21572
895.405	21641
895.526	21405
895.648	21587
895.769	21504
895.891	21587
896.012	21663
896.134	21591
896.255	21580
896.376	21629
896.498	21660
896.619	21606
896.74	21507
896.861	21637
896.982	21972
897.103	22025
897.224	21865
897.345	21819
897.466	21781
897.587	21861
897.708	21816
897.828	21774
897.949	21739
898.07	21603
898.19	21720
898.311	21800
898.431	21713
898.552	21682
898.672	21816
898.792	21941
898.913	21770
899.033	21759
899.153	21580
899.273	21462
899.393	21485
899.513	21652
899.633	21580
899.753	21523
899.873	21462
899.993	21603
900.113	21370
900.232	21473
900.352	21462
900.472	21256
900.591	21180
900.711	21135
900.83	21195
900.95	21306
901.069	21298
901.189	21203
901.308	20910
901.427	20777
901.546	20834
901.665	20910
901.784	20857
901.904	20716
902.023	20552
902.141	20370
902.26	20366
902.379	20473
902.498	20313
902.617	20374
902.735	20309
902.854	20240
902.973	20252
903.091	20046
903.21	20001
903.328	19921
903.446	19856
903.565	19803
903.683	19761
903.801	19635
903.919	19830
904.038	19651
904.156	19518
904.274	19529
904.392	19468
904.51	19468
904.627	19571
904.745	19552
904.863	19529
904.981	19297
905.098	19247
905.216	19213
905.334	19129
905.451	19274
905.569	19168
905.686	19289
905.803	19221
905.921	18894
906.038	19000
906.155	18981
906.272	18943
906.389	18863
906.506	18741
906.623	18627
906.74	18612
906.857	18654
906.974	18631
907.091	18772
907.208	18821
907.324	18760
907.441	18661
907.557	18426
907.674	18441
907.79	18399
907.907	18327
908.023	18494
908.139	18460
908.256	18399
908.372	18296
908.488	18228
908.604	18167
908.72	18152
908.836	18148
908.952	18102
909.068	18117
909.184	18148
909.3	18114
909.415	18155
909.531	18072
909.647	17916
909.762	17779
909.878	17893
909.993	17893
910.108	17722
910.224	17729
910.339	17722
910.454	17722
910.57	17684
910.685	17497
910.8	17939
910.915	17703
911.03	17676
911.145	17482
911.259	17452
911.374	17364
911.489	17208
911.604	17239
911.718	17025
911.833	17181
911.947	17018
912.062	16957
912.176	17220
912.291	17071
912.405	17170
912.519	17250
912.633	17326
912.748	17094
912.862	17098
912.976	16980
913.09	16847
913.204	16858
913.318	16904
913.431	17022
913.545	16980
913.659	16984
913.772	16854
913.886	16752
914	16752
914.113	16900
914.226	16900
914.34	16778
914.453	16565
914.566	16805
914.68	16641
914.793	16538
914.906	16344
915.019	16242
915.132	16211
915.245	16272
915.358	16242
915.47	16253
915.583	16238
915.696	16211
915.809	16371
915.921	16352
916.034	16268
916.146	16238
916.259	16086
916.371	16181
916.483	16185
916.595	16173
916.708	16131
916.82	16154
916.932	16021
917.044	16109
917.156	15953
917.268	15987
917.38	15892
917.491	15884
917.603	15873
917.715	15918
917.826	15915
917.938	15838
918.049	15743
918.161	15865
918.272	15838
918.384	15861
918.495	15797
918.606	15656
918.717	15595
918.828	15652
918.939	15618
919.05	15587
919.161	15641
919.272	15382
919.383	15420
919.494	15652
919.604	15686
919.715	15610
919.826	15435
919.936	15622
920.047	15671
920.157	15629
920.267	15846
920.378	15637
920.488	15485
920.598	15671
920.708	15869
920.818	15709
920.928	15667
921.038	15774
921.148	15789
921.258	15515
921.368	15370
921.477	15260
921.587	15313
921.697	15195
921.806	15199
921.916	15116
922.025	14952
922.134	14979
922.244	14853
922.353	14990
922.462	14815
922.571	14701
922.68	14511
922.789	14518
922.898	14552
923.007	14473
923.116	14503
923.224	14484
923.333	14442
923.442	14412
923.55	14377
923.659	14374
923.767	14256
923.876	14248
923.984	14499
924.092	14240
924.201	14290
924.309	14225
924.417	14199
924.525	14115
924.633	14259
924.741	15089
924.849	13955
924.956	14126
925.064	13913
925.172	13894
925.279	13898
925.387	13917
925.494	13906
925.602	13967
925.709	13864
925.816	13822
925.924	13822
926.031	13921
926.138	13818
926.245	13757
926.352	13734
926.459	13849
926.566	13856
926.673	13803
926.779	13586
926.886	13613
926.993	13499
927.099	13502
927.206	13335
927.312	13415
927.419	13514
927.525	13407
927.631	13358
927.737	13301
927.843	13339
927.95	13122
928.056	13308
928.162	13236
928.267	13282
928.373	13894
928.479	13343
928.585	12993
928.69	13187
928.796	13209
928.901	12996
929.007	12916
929.112	13149
929.218	12981
929.323	12905
929.428	12958
929.533	13034
929.638	12916
929.743	12890
929.848	12909
929.953	12852
930.058	12760
930.163	12620
930.267	12669
930.372	12764
930.477	12547
930.581	12749
930.685	12616
930.79	12418
930.894	12445
930.998	12407
931.103	12528
931.207	12251
931.311	12258
931.415	11984
931.519	11767
931.623	11878
