Data from test_V78500241_3745.txt Node
Date: Fri Mar 25 16:07:44 CST 2022
User: usil
Spectrometer: V785-0024
Trigger mode: 0
Integration Time (sec): 4.000000E-1
Scans to average: 1
Nonlinearity correction enabled: false
Boxcar width: 0
Storing dark spectrum: false
XAxis mode: Wavelengths
Number of Pixels in Spectrum: 1024
>>>>>Begin Spectral Data<<<<<
801.071	28192
801.214	28166
801.356	27774
801.499	27759
801.641	27713
801.783	27682
801.926	27717
802.068	27690
802.211	27553
802.353	27629
802.496	27416
802.638	27348
802.78	27287
802.923	27298
803.065	27287
803.208	27348
803.35	27412
803.492	27435
803.635	27652
803.777	27469
803.919	27633
804.061	27949
804.204	27766
804.346	27538
804.488	27606
804.63	27538
804.773	27507
804.915	27530
805.057	27690
805.199	27629
805.341	27682
805.483	27720
805.626	27743
805.768	27709
805.91	27724
806.052	27823
806.194	27568
806.336	27846
806.478	27724
806.62	27637
806.762	27831
806.904	27994
807.046	28325
807.188	28173
807.33	28223
807.472	28177
807.614	28090
807.756	28128
807.898	27964
808.04	27861
808.182	27945
808.324	28112
808.465	28128
808.607	28306
808.749	28497
808.891	28401
809.033	28508
809.174	28489
809.316	28398
809.458	28337
809.6	28303
809.741	28443
809.883	28599
810.025	28656
810.166	28615
810.308	28596
810.45	28618
810.591	28470
810.733	28405
810.875	28375
811.016	28306
811.158	28367
811.299	28462
811.441	28554
811.582	28538
811.724	28527
811.865	28455
812.007	28485
812.148	28352
812.29	28466
812.431	28535
812.573	28687
812.714	28767
812.855	28980
812.997	28930
813.138	29261
813.279	29124
813.421	28858
813.562	28881
813.703	28702
813.845	28717
813.986	28428
814.127	28295
814.268	28200
814.41	28150
814.551	28002
814.692	28150
814.833	27899
814.974	28101
815.115	28059
815.256	27804
815.397	28010
815.539	27903
815.68	27937
815.821	27953
815.962	28025
816.103	27873
816.244	27888
816.385	27694
816.526	27679
816.666	27370
816.807	27393
816.948	27519
817.089	27439
817.23	27454
817.371	27287
817.512	27420
817.653	27374
817.793	27321
817.934	27344
818.075	27488
818.216	27435
818.356	27272
818.497	27256
818.638	27150
818.778	27241
818.919	27077
819.06	27233
819.2	27211
819.341	27241
819.481	27473
819.622	27553
819.762	27717
819.903	27686
820.043	27542
820.184	27500
820.324	27458
820.465	27526
820.605	27557
820.746	27610
820.886	27469
821.026	27443
821.167	27454
821.307	27542
821.447	27393
821.588	27302
821.728	27173
821.868	27039
822.008	26887
822.149	26857
822.289	26880
822.429	26640
822.569	26366
822.709	26587
822.849	26389
822.99	26385
823.13	26339
823.27	26221
823.41	26024
823.55	26126
823.69	26282
823.83	26210
823.97	26134
824.11	26046
824.25	25970
824.389	26077
824.529	26077
824.669	26020
824.809	26149
824.949	26103
825.089	26130
825.228	25928
825.368	25868
825.508	25894
825.648	25845
825.787	25917
825.927	25947
826.067	25761
826.206	25951
826.346	25909
826.485	25826
826.625	25845
826.765	26005
826.904	25883
827.044	25769
827.183	25635
827.323	25540
827.462	25575
827.601	25632
827.741	25514
827.88	25616
828.02	25582
828.159	25578
828.298	25525
828.437	25670
828.577	25362
828.716	25666
828.855	25479
828.994	25240
829.134	25324
829.273	25301
829.412	25247
829.551	25304
829.69	25327
829.829	25358
829.968	25476
830.107	25540
830.246	25354
830.385	25301
830.524	25171
830.663	25137
830.802	25080
830.941	24867
831.08	24753
831.219	25065
831.357	25038
831.496	25076
831.635	24890
831.774	24814
831.913	24787
832.051	24795
832.19	24730
832.329	24707
832.467	24467
832.606	24509
832.744	24563
832.883	24475
833.022	24669
833.16	24513
833.299	24692
833.437	24646
833.576	24661
833.714	24661
833.852	24681
833.991	24601
834.129	24795
834.267	24738
834.406	24684
834.544	24642
834.682	24608
834.821	24646
834.959	24711
835.097	24574
835.235	24703
835.373	24715
835.511	24631
835.65	24654
835.788	24627
835.926	24380
836.064	24228
836.202	24483
836.34	24471
836.478	24494
836.615	24391
836.753	24540
836.891	24521
837.029	24502
837.167	24369
837.305	24361
837.443	24422
837.58	24311
837.718	24437
837.856	24369
837.993	24285
838.131	24353
838.269	24228
838.406	24167
838.544	24106
838.681	23889
838.819	23885
838.956	23661
839.094	23786
839.231	23817
839.369	23988
839.506	24117
839.643	23901
839.781	23817
839.918	23836
840.055	23733
840.193	23714
840.33	23653
840.467	23657
840.604	23619
840.742	23901
840.879	23539
841.016	23680
841.153	23493
841.29	23741
841.427	23680
841.564	23668
841.701	23551
841.838	23558
841.975	23604
842.112	23425
842.249	23573
842.385	23531
842.522	23760
842.659	23657
842.796	23463
842.933	23478
843.069	23379
843.206	23364
843.343	23467
843.479	23337
843.616	23379
843.752	23220
843.889	23037
844.025	23425
844.162	23223
844.298	23181
844.435	23121
844.571	23296
844.708	23231
844.844	23315
844.98	23360
845.117	23337
845.253	23162
845.389	22987
845.525	23113
845.661	23086
845.798	22972
845.934	23067
846.07	22858
846.206	22968
846.342	22965
846.478	22957
846.614	22656
846.75	22679
846.886	22599
847.022	22790
847.158	22790
847.294	22767
847.429	22733
847.565	22721
847.701	22949
847.837	22481
847.972	22333
848.108	22443
848.244	22542
848.379	22295
848.515	22310
848.65	22333
848.786	22246
848.921	22211
849.057	22379
849.192	22417
849.328	22348
849.463	22249
849.598	22147
849.734	22223
849.869	22154
850.004	22021
850.14	22017
850.275	22055
850.41	21998
850.545	21918
850.68	22059
850.815	22124
850.95	22040
851.085	22322
851.22	22291
851.355	22029
851.49	22082
851.625	21819
851.76	21994
851.895	22021
852.03	21922
852.165	21972
852.299	22002
852.434	22090
852.569	22105
852.703	21926
852.838	22036
852.973	22150
853.107	22097
853.242	21998
853.376	21812
853.511	21724
853.645	21747
853.78	21968
853.914	21808
854.048	21804
854.183	21747
854.317	21903
854.451	22158
854.585	21884
854.72	21895
854.854	22051
854.988	21865
855.122	21861
855.256	21770
855.39	21953
855.524	21903
855.658	22074
855.792	21922
855.926	21915
856.06	21937
856.194	22051
856.327	21838
856.461	21888
856.595	21808
856.729	21857
856.862	21991
856.996	21991
857.13	21926
857.263	21949
857.397	21922
857.53	21899
857.664	21987
857.797	22010
857.931	22006
858.064	21895
858.197	21956
858.331	21899
858.464	21857
858.597	21713
858.731	21770
858.864	21846
858.997	21766
859.13	21953
859.263	21911
859.396	21918
859.529	21857
859.662	21926
859.795	21930
859.928	21865
860.061	22025
860.194	22120
860.327	21770
860.46	21968
860.592	21975
860.725	22032
860.858	22032
860.99	21964
861.123	21892
861.256	21789
861.388	21979
861.521	22641
861.653	21686
861.786	21606
861.918	21694
862.05	21755
862.183	21838
862.315	21831
862.447	21892
862.58	21816
862.712	21542
862.844	21637
862.976	21652
863.108	21549
863.24	22078
863.372	21549
863.504	21591
863.636	21622
863.768	21709
863.9	21587
864.032	21599
864.164	21580
864.296	21694
864.428	21690
864.559	21564
864.691	21663
864.823	21629
864.954	21625
865.086	21500
865.217	21447
865.349	21370
865.48	21660
865.612	21564
865.743	21690
865.875	21450
866.006	21428
866.137	21504
866.269	21507
866.4	21447
866.531	21450
866.662	21370
866.793	21397
866.924	21561
867.055	21469
867.186	21530
867.317	21359
867.448	21329
867.579	21378
867.71	21386
867.841	21279
867.972	21454
868.103	21443
868.233	21275
868.364	21367
868.495	21458
868.625	21694
868.756	21770
868.886	21564
869.017	21679
869.147	21656
869.278	21667
869.408	21819
869.539	21652
869.669	21751
869.799	21675
869.929	21793
870.06	21732
870.19	21884
870.32	21903
870.45	22017
870.58	22067
870.71	22169
870.84	22124
870.97	22059
871.1	22021
871.23	22238
871.36	22200
871.489	22185
871.619	22223
871.749	22306
871.879	22382
872.008	22424
872.138	22375
872.267	22246
872.397	22215
872.526	22097
872.656	22150
872.785	22101
872.915	22375
873.044	22424
873.173	22261
873.303	22291
873.432	22402
873.561	22478
873.69	22348
873.819	22257
873.948	22485
874.077	22234
874.206	22169
874.335	22230
874.464	22375
874.593	22459
874.722	22443
874.851	22508
874.979	22436
875.108	22577
875.237	22485
875.365	22436
875.494	22485
875.623	22668
875.751	22459
875.88	22500
876.008	22573
876.136	22713
876.265	22976
876.393	22934
876.521	23071
876.65	22904
876.778	22847
876.906	22934
877.034	22824
877.162	22953
877.29	22797
877.418	22869
877.546	22862
877.674	22824
877.802	22812
877.93	22915
878.058	22892
878.185	22660
878.313	22946
878.441	22862
878.568	22664
878.696	22816
878.824	23010
878.951	23048
879.079	23064
879.206	23170
879.333	23060
879.461	22919
879.588	23006
879.715	23037
879.842	23094
879.97	22889
880.097	22626
880.224	22725
880.351	22755
880.478	22687
880.605	22596
880.732	22615
880.859	22885
880.986	22603
881.112	22736
881.239	22508
881.366	22481
881.493	22318
881.619	22303
881.746	22265
881.872	22325
881.999	22204
882.125	22074
882.252	22375
882.378	22246
882.505	22375
882.631	22158
882.757	21800
882.883	21915
883.01	21899
883.136	21899
883.262	21835
883.388	21759
883.514	21907
883.64	22067
883.766	21953
883.892	21812
884.018	21781
884.143	21873
884.269	22048
884.395	21701
884.52	21462
884.646	21728
884.772	21481
884.897	21485
885.023	21549
885.148	21675
885.274	21629
885.399	21751
885.524	21549
885.65	21641
885.775	21538
885.9	21488
886.025	21606
886.15	21599
886.275	21549
886.4	21431
886.525	21492
886.65	21443
886.775	21492
886.9	21663
887.025	21690
887.149	21458
887.274	21367
887.399	21386
887.523	21435
887.648	21214
887.773	21298
887.897	21393
888.021	21408
888.146	21214
888.27	21428
888.395	21450
888.519	21245
888.643	21378
888.767	21233
888.891	21218
889.015	21146
889.139	21222
889.263	21188
889.387	21272
889.511	21241
889.635	21313
889.759	21024
889.883	21062
890.006	21199
890.13	21195
890.254	20998
890.377	20975
890.501	20902
890.624	20937
890.748	20899
890.871	20842
890.995	20727
891.118	20651
891.241	20701
891.364	20773
891.488	20727
891.611	20750
891.734	20796
891.857	20686
891.98	20552
892.103	20670
892.226	20632
892.349	20571
892.471	20465
892.594	20545
892.717	20648
892.839	20602
892.962	20590
893.085	20583
893.207	20568
893.33	20465
893.452	20454
893.575	20621
893.697	20404
893.819	20777
893.941	20762
894.064	20746
894.186	20480
894.308	20530
894.43	20590
894.552	20667
894.674	20663
894.796	20377
894.918	20602
895.04	20465
895.161	20594
895.283	20754
895.405	20545
895.526	20670
895.648	20644
895.769	20552
895.891	20526
896.012	20655
896.134	20667
896.255	20454
896.376	20560
896.498	20663
896.619	20625
896.74	20556
896.861	20693
896.982	20876
897.103	21081
897.224	20891
897.345	20754
897.466	20788
897.587	20781
897.708	20845
897.828	20708
897.949	20750
898.07	20750
898.19	20796
898.311	20887
898.431	20842
898.552	20716
898.672	20819
898.792	20868
898.913	20773
899.033	20754
899.153	20571
899.273	20469
899.393	20495
899.513	20613
899.633	20503
899.753	20629
899.873	20427
899.993	20503
900.113	20480
900.232	20564
900.352	20465
900.472	20404
900.591	20164
900.711	20450
900.83	20278
900.95	20419
901.069	20362
901.189	20134
901.308	19887
901.427	20001
901.546	19818
901.665	19917
901.784	19860
901.904	19693
902.023	19605
902.141	19396
902.26	19480
902.379	19495
902.498	19396
902.617	19438
902.735	19487
902.854	19384
902.973	19282
903.091	18989
903.21	19091
903.328	19221
903.446	18954
903.565	18954
903.683	18886
903.801	18772
903.919	18817
904.038	18806
904.156	18681
904.274	18760
904.392	18620
904.51	18589
904.627	18490
904.745	18688
904.863	18700
904.981	18445
905.098	18216
905.216	18239
905.334	18243
905.451	18300
905.569	18102
905.686	18350
905.803	18213
905.921	18072
906.038	18251
906.155	18114
906.272	17996
906.389	17939
906.506	17813
906.623	17824
906.74	17843
906.857	17764
906.974	17707
907.091	17863
907.208	17798
907.324	17851
907.441	17638
907.557	17676
907.674	17501
907.79	17444
907.907	17444
908.023	17467
908.139	17562
908.256	17471
908.372	17383
908.488	17395
908.604	17330
908.72	17189
908.836	17200
908.952	17117
909.068	17208
909.184	17360
909.3	17204
909.415	17181
909.531	17216
909.647	16984
909.762	16934
909.878	16946
909.993	16908
910.108	16904
910.224	16839
910.339	16839
910.454	16786
910.57	16691
910.685	16603
910.8	16987
910.915	16858
911.03	16774
911.145	16500
911.259	16542
911.374	16584
911.489	16344
911.604	16257
911.718	16291
911.833	16200
911.947	16147
912.062	16196
912.176	16253
912.291	16337
912.405	16325
912.519	16405
912.633	16470
912.748	16299
912.862	16276
912.976	16105
913.09	15937
913.204	15949
913.318	16078
913.431	16192
913.545	16139
913.659	16219
913.772	16082
913.886	15934
914	15892
914.113	15945
914.226	16040
914.34	15835
914.453	15770
914.566	15941
914.68	15751
914.793	15713
914.906	15603
915.019	15450
915.132	15389
915.245	15526
915.358	15439
915.47	15435
915.583	15591
915.696	15466
915.809	15641
915.921	15584
916.034	15298
916.146	15389
916.259	15405
916.371	15485
916.483	15348
916.595	15310
916.708	15268
916.82	15283
916.932	15344
917.044	15249
917.156	15218
917.268	15245
917.38	15123
917.491	15062
917.603	15055
917.715	15230
917.826	15195
917.938	14986
918.049	15001
918.161	15116
918.272	15093
918.384	15165
918.495	15085
918.606	14883
918.717	14830
918.828	14887
918.939	14902
919.05	14739
919.161	14758
919.272	14587
919.383	14693
919.494	14876
919.604	14975
919.715	14834
919.826	14762
919.936	14811
920.047	14906
920.157	14876
920.267	14956
920.378	14819
920.488	14735
920.598	14887
920.708	15161
920.818	14971
920.928	14952
921.038	15024
921.148	15047
921.258	14834
921.368	14739
921.477	14568
921.587	14583
921.697	14408
921.806	14598
921.916	14339
922.025	14233
922.134	14240
922.244	14149
922.353	14221
922.462	14096
922.571	14046
922.68	13925
922.789	13921
922.898	13864
923.007	13784
923.116	13879
923.224	13742
923.333	13750
923.442	13700
923.55	13620
923.659	13693
923.767	13811
923.876	13632
923.984	13681
924.092	13605
924.201	13613
924.309	13632
924.417	13563
924.525	13487
924.633	13540
924.741	14370
924.849	13339
924.956	13491
925.064	13350
925.172	13240
925.279	13282
925.387	13320
925.494	13297
925.602	13289
925.709	13354
925.816	13187
925.924	13270
926.031	13236
926.138	13187
926.245	13187
926.352	13107
926.459	13263
926.566	13308
926.673	13149
926.779	12871
926.886	12962
926.993	12867
927.099	12787
927.206	12738
927.312	12722
927.419	12848
927.525	12802
927.631	12867
927.737	12738
927.843	12688
927.95	12589
928.056	12684
928.162	12551
928.267	12673
928.373	13289
928.479	12703
928.585	12437
928.69	12616
928.796	12650
928.901	12414
929.007	12361
929.112	12456
929.218	12475
929.323	12369
929.428	12361
929.533	12452
929.638	12258
929.743	12285
929.848	12315
929.953	12213
930.058	12144
930.163	11969
930.267	12019
930.372	12129
930.477	12003
930.581	12117
930.685	12064
930.79	11870
930.894	11954
930.998	11973
931.103	12083
931.207	11642
931.311	11547
931.415	11505
931.519	11258
931.623	11349
