Data from test_V78500241_1985.txt Node
Date: Fri Mar 25 15:55:33 CST 2022
User: usil
Spectrometer: V785-0024
Trigger mode: 0
Integration Time (sec): 4.000000E-1
Scans to average: 1
Nonlinearity correction enabled: false
Boxcar width: 0
Storing dark spectrum: false
XAxis mode: Wavelengths
Number of Pixels in Spectrum: 1024
>>>>>Begin Spectral Data<<<<<
801.071	28211
801.214	28143
801.356	27914
801.499	27816
801.641	27793
801.783	27698
801.926	27861
802.068	27759
802.211	27835
802.353	27701
802.496	27477
802.638	27580
802.78	27473
802.923	27393
803.065	27431
803.208	27302
803.35	27572
803.492	27629
803.635	27648
803.777	27568
803.919	27686
804.061	28044
804.204	27930
804.346	27473
804.488	27572
804.63	27751
804.773	27625
804.915	27701
805.057	27945
805.199	27785
805.341	27892
805.483	27762
805.626	27960
805.768	27816
805.91	27846
806.052	27972
806.194	27808
806.336	28025
806.478	27778
806.62	27701
806.762	27979
806.904	28147
807.046	28265
807.188	28265
807.33	28268
807.472	28440
807.614	28226
807.756	28230
807.898	28200
808.04	28139
808.182	28173
808.324	28284
808.465	28158
808.607	28447
808.749	28535
808.891	28637
809.033	28641
809.174	28596
809.316	28436
809.458	28508
809.6	28348
809.741	28664
809.883	28706
810.025	28850
810.166	28831
810.308	28869
810.45	28740
810.591	28717
810.733	28550
810.875	28451
811.016	28337
811.158	28196
811.299	28557
811.441	28687
811.582	28679
811.724	28500
811.865	28504
812.007	28382
812.148	28542
812.29	28599
812.431	28713
812.573	28702
812.714	28858
812.855	28927
812.997	29220
813.138	29322
813.279	29022
813.421	29014
813.562	28885
813.703	28698
813.845	28915
813.986	28432
814.127	28329
814.268	28120
814.41	28287
814.551	28147
814.692	28318
814.833	28086
814.974	28242
815.115	28474
815.256	28105
815.397	28131
815.539	28158
815.68	28025
815.821	27953
815.962	28090
816.103	28059
816.244	27911
816.385	27846
816.526	27648
816.666	27682
816.807	27603
816.948	27523
817.089	27542
817.23	27504
817.371	27416
817.512	27538
817.653	27317
817.793	27530
817.934	27488
818.075	27526
818.216	27447
818.356	27389
818.497	27473
818.638	27112
818.778	27165
818.919	27283
819.06	27218
819.2	27321
819.341	27496
819.481	27325
819.622	27675
819.762	27804
819.903	27819
820.043	27698
820.184	27523
820.324	27557
820.465	27827
820.605	27656
820.746	27656
820.886	27466
821.026	27599
821.167	27622
821.307	27682
821.447	27466
821.588	27530
821.728	27268
821.868	27032
822.008	26948
822.149	27043
822.289	26887
822.429	26842
822.569	26590
822.709	26609
822.849	26461
822.99	26606
823.13	26511
823.27	26457
823.41	26374
823.55	26320
823.69	26362
823.83	26282
823.97	26290
824.11	26138
824.25	26020
824.389	26145
824.529	26225
824.669	26206
824.809	26168
824.949	26225
825.089	26134
825.228	26278
825.368	25875
825.508	25951
825.648	26069
825.787	25955
825.927	25989
826.067	25955
826.206	26050
826.346	26138
826.485	26202
826.625	25947
826.765	26199
826.904	26145
827.044	25807
827.183	25784
827.323	25559
827.462	25750
827.601	25769
827.741	25791
827.88	25769
828.02	25628
828.159	25655
828.298	25742
828.437	25761
828.577	25738
828.716	25769
828.855	25632
828.994	25240
829.134	25430
829.273	25453
829.412	25464
829.551	25358
829.69	25540
829.829	25362
829.968	25343
830.107	25472
830.246	25377
830.385	25472
830.524	25354
830.663	25251
830.802	25194
830.941	25019
831.08	25023
831.219	25228
831.357	25042
831.496	25198
831.635	25027
831.774	24890
831.913	24894
832.051	24897
832.19	24852
832.329	24882
832.467	24738
832.606	24665
832.744	24608
832.883	24635
833.022	24688
833.16	24783
833.299	24768
833.437	24760
833.576	24726
833.714	24650
833.852	24806
833.991	24787
834.129	24905
834.267	24776
834.406	24772
834.544	24719
834.682	24764
834.821	24848
834.959	24867
835.097	24570
835.235	24760
835.373	24776
835.511	24707
835.65	24639
835.788	24654
835.926	24532
836.064	24292
836.202	24380
836.34	24597
836.478	24719
836.615	24502
836.753	24517
836.891	24661
837.029	24620
837.167	24494
837.305	24540
837.443	24369
837.58	24296
837.718	24479
837.856	24445
837.993	24418
838.131	24296
838.269	24308
838.406	24315
838.544	24216
838.681	23999
838.819	24087
838.956	23790
839.094	23836
839.231	24030
839.369	24076
839.506	24254
839.643	24197
839.781	23954
839.918	23904
840.055	23912
840.193	23874
840.33	23672
840.467	23847
840.604	23870
840.742	24003
840.879	23619
841.016	23615
841.153	23691
841.29	23935
841.427	23615
841.564	23840
841.701	23676
841.838	23779
841.975	23592
842.112	23657
842.249	23623
842.385	23493
842.522	23779
842.659	23573
842.796	23547
842.933	23551
843.069	23501
843.206	23406
843.343	23596
843.479	23562
843.616	23577
843.752	23421
843.889	23231
844.025	23535
844.162	23337
844.298	23448
844.435	23311
844.571	23269
844.708	23474
844.844	23474
844.98	23524
845.117	23391
845.253	23254
845.389	23265
845.525	23162
845.661	23086
845.798	23006
845.934	23178
846.07	23071
846.206	23044
846.342	23216
846.478	23098
846.614	22896
846.75	22748
846.886	22847
847.022	22862
847.158	22847
847.294	22721
847.429	22767
847.565	22683
847.701	22911
847.837	22466
847.972	22489
848.108	22611
848.244	22599
848.379	22341
848.515	22379
848.65	22337
848.786	22276
848.921	22402
849.057	22478
849.192	22440
849.328	22394
849.463	22421
849.598	22356
849.734	22409
849.869	22291
850.004	22166
850.14	22230
850.275	22139
850.41	22169
850.545	22055
850.68	22010
850.815	22109
850.95	22063
851.085	22234
851.22	22402
851.355	22051
851.49	22086
851.625	22177
851.76	22032
851.895	22185
852.03	21994
852.165	22192
852.299	22173
852.434	22211
852.569	22299
852.703	22143
852.838	22200
852.973	22219
853.107	22215
853.242	22173
853.376	21972
853.511	21869
853.645	21964
853.78	22097
853.914	21903
854.048	21926
854.183	21895
854.317	21979
854.451	22246
854.585	21922
854.72	21994
854.854	22055
854.988	21876
855.122	21876
855.256	21694
855.39	21903
855.524	22090
855.658	22067
855.792	21884
855.926	21979
856.06	22044
856.194	21964
856.327	22006
856.461	21861
856.595	21937
856.729	21854
856.862	21998
856.996	22002
857.13	22017
857.263	22025
857.397	22040
857.53	22002
857.664	21994
857.797	21972
857.931	22032
858.064	21934
858.197	21907
858.331	21956
858.464	21926
858.597	21937
858.731	21838
858.864	21934
858.997	21884
859.13	22040
859.263	21895
859.396	21911
859.529	22013
859.662	21960
859.795	21998
859.928	21892
860.061	22036
860.194	22181
860.327	22021
860.46	21915
860.592	22070
860.725	22093
860.858	22154
860.99	22097
861.123	21804
861.256	21888
861.388	21930
861.521	22831
861.653	21945
861.786	21816
861.918	21724
862.05	21835
862.183	21819
862.315	22063
862.447	21975
862.58	21873
862.712	21656
862.844	21614
862.976	21755
863.108	21793
863.24	22116
863.372	21694
863.504	21701
863.636	21671
863.768	21637
863.9	21728
864.032	21507
864.164	21698
864.296	21614
864.428	21838
864.559	21713
864.691	21652
864.823	21724
864.954	21698
865.086	21561
865.217	21545
865.349	21416
865.48	21679
865.612	21553
865.743	21690
865.875	21568
866.006	21481
866.137	21553
866.269	21538
866.4	21458
866.531	21504
866.662	21458
866.793	21500
866.924	21477
867.055	21515
867.186	21412
867.317	21488
867.448	21477
867.579	21477
867.71	21344
867.841	21386
867.972	21496
868.103	21549
868.233	21515
868.364	21496
868.495	21572
868.625	21637
868.756	21949
868.886	21545
869.017	21736
869.147	21762
869.278	21835
869.408	21827
869.539	21698
869.669	21857
869.799	21781
869.929	21743
870.06	21869
870.19	22013
870.32	22006
870.45	22135
870.58	22150
870.71	22242
870.84	22204
870.97	22147
871.1	22143
871.23	22367
871.36	22344
871.489	22131
871.619	22280
871.749	22284
871.879	22371
872.008	22428
872.138	22322
872.267	22265
872.397	22234
872.526	22234
872.656	22196
872.785	22135
872.915	22325
873.044	22504
873.173	22421
873.303	22398
873.432	22325
873.561	22417
873.69	22333
873.819	22303
873.948	22516
874.077	22436
874.206	22276
874.335	22367
874.464	22440
874.593	22470
874.722	22436
874.851	22592
874.979	22519
875.108	22557
875.237	22516
875.365	22352
875.494	22504
875.623	22557
875.751	22504
875.88	22542
876.008	22748
876.136	22679
876.265	22968
876.393	23079
876.521	23022
876.65	23025
876.778	23056
876.906	22911
877.034	22858
877.162	22953
877.29	22763
877.418	23022
877.546	23003
877.674	22896
877.802	22850
877.93	22908
878.058	22839
878.185	22790
878.313	22984
878.441	22809
878.568	22771
878.696	22942
878.824	22900
878.951	23083
879.079	23143
879.206	23048
879.333	23044
879.461	22987
879.588	22987
879.715	23003
879.842	23189
879.97	23003
880.097	22862
880.224	22660
880.351	22763
880.478	22664
880.605	22615
880.732	22778
880.859	22942
880.986	22725
881.112	22668
881.239	22580
881.366	22493
881.493	22386
881.619	22333
881.746	22379
881.872	22291
881.999	22196
882.125	22185
882.252	22341
882.378	22333
882.505	22405
882.631	22135
882.757	22067
882.883	22188
883.01	22086
883.136	21972
883.262	21888
883.388	21774
883.514	22070
883.64	21991
883.766	21850
883.892	21667
884.018	21759
884.143	21903
884.269	22048
884.395	21686
884.52	21770
884.646	21675
884.772	21660
884.897	21572
885.023	21701
885.148	21720
885.274	21800
885.399	21660
885.524	21534
885.65	21625
885.775	21557
885.9	21572
886.025	21732
886.15	21690
886.275	21652
886.4	21526
886.525	21462
886.65	21500
886.775	21481
886.9	21682
887.025	21717
887.149	21583
887.274	21542
887.399	21348
887.523	21370
887.648	21336
887.773	21408
887.897	21428
888.021	21466
888.146	21252
888.27	21519
888.395	21428
888.519	21397
888.643	21401
888.767	21435
888.891	21222
889.015	21131
889.139	21264
889.263	21036
889.387	21256
889.511	21363
889.635	21268
889.759	21188
889.883	21230
890.006	21176
890.13	21264
890.254	21108
890.377	21222
890.501	20994
890.624	21001
890.748	20921
890.871	20845
890.995	20640
891.118	20796
891.241	20880
891.364	20686
891.488	20804
891.611	20800
891.734	20746
891.857	20743
891.98	20735
892.103	20746
892.226	20727
892.349	20781
892.471	20689
892.594	20701
892.717	20796
892.839	20568
892.962	20678
893.085	20743
893.207	20587
893.33	20526
893.452	20568
893.575	20689
893.697	20644
893.819	20781
893.941	20891
894.064	20716
894.186	20552
894.308	20469
894.43	20587
894.552	20971
894.674	20773
894.796	20396
894.918	20629
895.04	20697
895.161	20754
895.283	20598
895.405	20560
895.526	20708
895.648	20575
895.769	20609
895.891	20598
896.012	20727
896.134	20602
896.255	20594
896.376	20495
896.498	20678
896.619	20613
896.74	20602
896.861	20670
896.982	20895
897.103	21043
897.224	20895
897.345	20781
897.466	20731
897.587	20811
897.708	21024
897.828	20868
897.949	20754
898.07	20708
898.19	20758
898.311	20876
898.431	20579
898.552	20804
898.672	20998
898.792	20899
898.913	20872
899.033	20655
899.153	20693
899.273	20549
899.393	20590
899.513	20568
899.633	20617
899.753	20564
899.873	20476
899.993	20609
900.113	20594
900.232	20568
900.352	20465
900.472	20370
900.591	20347
900.711	20366
900.83	20259
900.95	20396
901.069	20454
901.189	20157
901.308	20046
901.427	19883
901.546	20035
901.665	19940
901.784	19913
901.904	19814
902.023	19700
902.141	19578
902.26	19449
902.379	19605
902.498	19392
902.617	19377
902.735	19430
902.854	19331
902.973	19244
903.091	19122
903.21	19103
903.328	19012
903.446	18905
903.565	18878
903.683	18840
903.801	18753
903.919	18848
904.038	18776
904.156	18700
904.274	18669
904.392	18700
904.51	18631
904.627	18589
904.745	18616
904.863	18738
904.981	18418
905.098	18369
905.216	18353
905.334	18441
905.451	18441
905.569	18281
905.686	18315
905.803	18277
905.921	18136
906.038	18171
906.155	18125
906.272	17988
906.389	18079
906.506	17904
906.623	17897
906.74	17737
906.857	17741
906.974	17737
907.091	17885
907.208	17973
907.324	17973
907.441	17672
907.557	17665
907.674	17577
907.79	17433
907.907	17539
908.023	17627
908.139	17532
908.256	17429
908.372	17433
908.488	17448
908.604	17334
908.72	17227
908.836	17322
908.952	17299
909.068	17242
909.184	17303
909.3	17269
909.415	17277
909.531	17155
909.647	17060
909.762	17010
909.878	16938
909.993	17048
910.108	17025
910.224	16949
910.339	16953
910.454	16858
910.57	16911
910.685	16793
910.8	16930
910.915	16946
911.03	16793
911.145	16660
911.259	16516
911.374	16599
911.489	16504
911.604	16481
911.718	16352
911.833	16276
911.947	16188
912.062	16268
912.176	16306
912.291	16318
912.405	16352
912.519	16500
912.633	16436
912.748	16337
912.862	16219
912.976	16147
913.09	15979
913.204	16059
913.318	16067
913.431	16234
913.545	16204
913.659	16230
913.772	16074
913.886	15937
914	15922
914.113	16036
914.226	16036
914.34	16021
914.453	15816
914.566	15907
914.68	15770
914.793	15816
914.906	15622
915.019	15580
915.132	15504
915.245	15466
915.358	15553
915.47	15564
915.583	15450
915.696	15507
915.809	15698
915.921	15614
916.034	15507
916.146	15485
916.259	15359
916.371	15454
916.483	15431
916.595	15355
916.708	15401
916.82	15310
916.932	15256
917.044	15298
917.156	15332
917.268	15192
917.38	15222
917.491	15066
917.603	15077
917.715	15192
917.826	15138
917.938	15001
918.049	14990
918.161	15161
918.272	15184
918.384	15310
918.495	15074
918.606	14902
918.717	14880
918.828	14842
918.939	14868
919.05	14849
919.161	14941
919.272	14708
919.383	14758
919.494	14853
919.604	15226
919.715	14895
919.826	14872
919.936	14857
920.047	14941
920.157	14842
920.267	15013
920.378	14868
920.488	14823
920.598	15085
920.708	15051
920.818	14982
920.928	15001
921.038	15188
921.148	15100
921.258	14788
921.368	14716
921.477	14587
921.587	14651
921.697	14461
921.806	14511
921.916	14541
922.025	14271
922.134	14195
922.244	14123
922.353	14267
922.462	14084
922.571	14016
922.68	13909
922.789	13849
922.898	13811
923.007	13742
923.116	13883
923.224	13807
923.333	13864
923.442	13666
923.55	13639
923.659	13655
923.767	13784
923.876	13643
923.984	13658
924.092	13632
924.201	13559
924.309	13578
924.417	13632
924.525	13499
924.633	13521
924.741	14214
924.849	13297
924.956	13529
925.064	13217
925.172	13236
925.279	13274
925.387	13217
925.494	13324
925.602	13388
925.709	13255
925.816	13122
925.924	13175
926.031	13274
926.138	13164
926.245	13213
926.352	13091
926.459	13228
926.566	13266
926.673	13065
926.779	13019
926.886	13031
926.993	12996
927.099	12848
927.206	12783
927.312	12757
927.419	12840
927.525	12894
927.631	12844
927.737	12764
927.843	12688
927.95	12578
928.056	12623
928.162	12715
928.267	12703
928.373	13316
928.479	12840
928.585	12551
928.69	12639
928.796	12616
928.901	12563
929.007	12376
929.112	12578
929.218	12445
929.323	12441
929.428	12350
929.533	12513
929.638	12350
929.743	12380
929.848	12346
929.953	12292
930.058	12266
930.163	12034
930.267	12125
930.372	12144
930.477	12041
930.581	12228
930.685	12121
930.79	12011
930.894	11969
930.998	11901
931.103	12106
931.207	11771
931.311	11623
931.415	11558
931.519	11372
931.623	11250
