Data from test_V78500241_1240.txt Node
Date: Fri Mar 25 15:50:23 CST 2022
User: usil
Spectrometer: V785-0024
Trigger mode: 0
Integration Time (sec): 4.000000E-1
Scans to average: 1
Nonlinearity correction enabled: false
Boxcar width: 0
Storing dark spectrum: false
XAxis mode: Wavelengths
Number of Pixels in Spectrum: 1024
>>>>>Begin Spectral Data<<<<<
801.071	28717
801.214	28497
801.356	28356
801.499	28348
801.641	28177
801.783	28268
801.926	28360
802.068	28265
802.211	28048
802.353	27895
802.496	28002
802.638	27812
802.78	27850
802.923	27876
803.065	27945
803.208	27804
803.35	27991
803.492	27979
803.635	28166
803.777	27941
803.919	28135
804.061	28474
804.204	28207
804.346	28093
804.488	28070
804.63	27941
804.773	28048
804.915	28124
805.057	28166
805.199	28116
805.341	28223
805.483	28318
805.626	28299
805.768	28154
805.91	28344
806.052	28287
806.194	28006
806.336	28580
806.478	28386
806.62	28382
806.762	28557
806.904	28580
807.046	28698
807.188	28835
807.33	28729
807.472	28881
807.614	28858
807.756	28797
807.898	28645
808.04	28607
808.182	28626
808.324	28508
808.465	28790
808.607	28816
808.749	29018
808.891	29151
809.033	29166
809.174	28995
809.316	29025
809.458	29010
809.6	28858
809.741	29132
809.883	29246
810.025	29387
810.166	29334
810.308	29334
810.45	29284
810.591	29322
810.733	29064
810.875	28896
811.016	28854
811.158	28919
811.299	29220
811.441	29200
811.582	29181
811.724	28995
811.865	29048
812.007	29064
812.148	28980
812.29	28984
812.431	29212
812.573	29463
812.714	29558
812.855	29566
812.997	29627
813.138	29798
813.279	29630
813.421	29608
813.562	29520
813.703	29258
813.845	29204
813.986	29041
814.127	28858
814.268	28736
814.41	28637
814.551	28641
814.692	28809
814.833	28733
814.974	28721
815.115	28812
815.256	28531
815.397	28630
815.539	28569
815.68	28755
815.821	28599
815.962	28531
816.103	28527
816.244	28379
816.385	28398
816.526	28303
816.666	28185
816.807	28021
816.948	28181
817.089	28246
817.23	28128
817.371	27968
817.512	28116
817.653	28139
817.793	27911
817.934	28051
818.075	27983
818.216	28135
818.356	28109
818.497	27945
818.638	27713
818.778	27747
818.919	27831
819.06	27953
819.2	28097
819.341	28070
819.481	28105
819.622	28169
819.762	28360
819.903	28246
820.043	28261
820.184	28367
820.324	28158
820.465	28192
820.605	28162
820.746	28181
820.886	28048
821.026	28124
821.167	28139
821.307	28226
821.447	28109
821.588	27983
821.728	27705
821.868	27690
822.008	27698
822.149	27511
822.289	27481
822.429	27378
822.569	27226
822.709	27214
822.849	27116
822.99	27199
823.13	27157
823.27	26960
823.41	26990
823.55	26887
823.69	26910
823.83	26902
823.97	26712
824.11	26693
824.25	26651
824.389	26724
824.529	26705
824.669	26488
824.809	26906
824.949	26838
825.089	26743
825.228	26792
825.368	26708
825.508	26731
825.648	26568
825.787	26590
825.927	26667
826.067	26629
826.206	26659
826.346	26758
826.485	26613
826.625	26651
826.765	26697
826.904	26602
827.044	26484
827.183	26453
827.323	26214
827.462	26256
827.601	26385
827.741	26362
827.88	26374
828.02	26233
828.159	26271
828.298	26225
828.437	26419
828.577	26290
828.716	26385
828.855	26229
828.994	26016
829.134	25887
829.273	26001
829.412	25849
829.551	26005
829.69	26024
829.829	25993
829.968	26081
830.107	26111
830.246	26107
830.385	25982
830.524	25860
830.663	25738
830.802	25738
830.941	25510
831.08	25548
831.219	25575
831.357	25780
831.496	25841
831.635	25556
831.774	25453
831.913	25533
832.051	25479
832.19	25392
832.329	25381
832.467	25441
832.606	25240
832.744	25228
832.883	25301
833.022	25263
833.16	25339
833.299	25392
833.437	25198
833.576	25430
833.714	25301
833.852	25369
833.991	25411
834.129	25426
834.267	25419
834.406	25350
834.544	25384
834.682	25521
834.821	25308
834.959	25597
835.097	25293
835.235	25354
835.373	25217
835.511	25289
835.65	25126
835.788	25232
835.926	25080
836.064	25008
836.202	25031
836.34	25171
836.478	25232
836.615	25255
836.753	25133
836.891	25202
837.029	25137
837.167	25038
837.305	25053
837.443	25023
837.58	25008
837.718	25141
837.856	25008
837.993	24894
838.131	24951
838.269	24954
838.406	24837
838.544	24837
838.681	24696
838.819	24677
838.956	24445
839.094	24483
839.231	24464
839.369	24608
839.506	24745
839.643	24665
839.781	24372
839.918	24395
840.055	24388
840.193	24426
840.33	24388
840.467	24365
840.604	24391
840.742	24696
840.879	24174
841.016	24258
841.153	24266
841.29	24448
841.427	24391
841.564	24490
841.701	24369
841.838	24251
841.975	24262
842.112	24266
842.249	24232
842.385	24133
842.522	24300
842.659	24194
842.796	24098
842.933	24095
843.069	24045
843.206	23969
843.343	24216
843.479	24072
843.616	24114
843.752	23931
843.889	23847
844.025	24018
844.162	23760
844.298	23958
844.435	23851
844.571	23870
844.708	23927
844.844	24041
844.98	23977
845.117	24030
845.253	23847
845.389	23817
845.525	23855
845.661	23760
845.798	23684
845.934	23638
846.07	23551
846.206	23672
846.342	23897
846.478	23608
846.614	23566
846.75	23193
846.886	23341
847.022	23341
847.158	23330
847.294	23261
847.429	23406
847.565	23269
847.701	23581
847.837	23075
847.972	22968
848.108	23162
848.244	23254
848.379	23060
848.515	22942
848.65	22862
848.786	22976
848.921	22725
849.057	23018
849.192	22938
849.328	23060
849.463	22828
849.598	22877
849.734	22778
849.869	22721
850.004	22736
850.14	22664
850.275	22649
850.41	22660
850.545	22508
850.68	22641
850.815	22611
850.95	22668
851.085	22847
851.22	22831
851.355	22626
851.49	22615
851.625	22596
851.76	22637
851.895	22622
852.03	22557
852.165	22691
852.299	22592
852.434	22592
852.569	22733
852.703	22656
852.838	22691
852.973	22835
853.107	22839
853.242	22622
853.376	22508
853.511	22443
853.645	22398
853.78	22580
853.914	22557
854.048	22519
854.183	22398
854.317	22470
854.451	22759
854.585	22554
854.72	22409
854.854	22535
854.988	22489
855.122	22432
855.256	22337
855.39	22500
855.524	22500
855.658	22443
855.792	22599
855.926	22470
856.06	22584
856.194	22546
856.327	22360
856.461	22474
856.595	22580
856.729	22481
856.862	22603
856.996	22489
857.13	22542
857.263	22626
857.397	22588
857.53	22462
857.664	22527
857.797	22508
857.931	22615
858.064	22481
858.197	22649
858.331	22508
858.464	22409
858.597	22481
858.731	22314
858.864	22424
858.997	22542
859.13	22569
859.263	22535
859.396	22577
859.529	22485
859.662	22519
859.795	22382
859.928	22436
860.061	22645
860.194	22599
860.327	22485
860.46	22485
860.592	22546
860.725	22656
860.858	22516
860.99	22554
861.123	22352
861.256	22428
861.388	22474
861.521	23208
861.653	22394
861.786	22371
861.918	22371
862.05	22322
862.183	22417
862.315	22451
862.447	22405
862.58	22379
862.712	22135
862.844	22268
862.976	22322
863.108	22173
863.24	22550
863.372	22268
863.504	22207
863.636	22158
863.768	22242
863.9	22272
864.032	22230
864.164	22162
864.296	22070
864.428	22215
864.559	22257
864.691	22390
864.823	22192
864.954	22169
865.086	22105
865.217	22211
865.349	22010
865.48	22109
865.612	22040
865.743	22196
865.875	22059
866.006	22055
866.137	22059
866.269	22090
866.4	22040
866.531	22036
866.662	22036
866.793	22021
866.924	21987
867.055	22029
867.186	22112
867.317	21979
867.448	21945
867.579	22013
867.71	21926
867.841	21827
867.972	21972
868.103	22013
868.233	22010
868.364	22109
868.495	22181
868.625	22192
868.756	22337
868.886	22120
869.017	22238
869.147	22382
869.278	22356
869.408	22211
869.539	22246
869.669	22284
869.799	22325
869.929	22348
870.06	22478
870.19	22557
870.32	22618
870.45	22489
870.58	22675
870.71	22630
870.84	22706
870.97	22611
871.1	22535
871.23	22767
871.36	22904
871.489	22733
871.619	22892
871.749	22843
871.879	22801
872.008	22976
872.138	22740
872.267	22828
872.397	22675
872.526	22653
872.656	22660
872.785	22596
872.915	22946
873.044	22873
873.173	22797
873.303	22839
873.432	23003
873.561	22896
873.69	22942
873.819	22896
873.948	22892
874.077	22972
874.206	22717
874.335	22892
874.464	23018
874.593	23102
874.722	23022
874.851	23098
874.979	23086
875.108	23102
875.237	23048
875.365	23018
875.494	23003
875.623	23067
875.751	22949
875.88	23117
876.008	23220
876.136	23311
876.265	23463
876.393	23505
876.521	23463
876.65	23414
876.778	23490
876.906	23383
877.034	23296
877.162	23372
877.29	23212
877.418	23433
877.546	23474
877.674	23341
877.802	23318
877.93	23387
878.058	23425
878.185	23307
878.313	23341
878.441	23383
878.568	23208
878.696	23395
878.824	23417
878.951	23376
879.079	23554
879.206	23684
879.333	23596
879.461	23364
879.588	23345
879.715	23558
879.842	23745
879.97	23554
880.097	23178
880.224	23189
880.351	23296
880.478	23105
880.605	23136
880.732	23136
880.859	23463
880.986	23105
881.112	23208
881.239	23022
881.366	23010
881.493	22930
881.619	22805
881.746	22831
881.872	22698
881.999	22759
882.125	22767
882.252	22771
882.378	22641
882.505	22946
882.631	22668
882.757	22455
882.883	22588
883.01	22432
883.136	22447
883.262	22409
883.388	22356
883.514	22519
883.64	22424
883.766	22333
883.892	22238
884.018	22242
884.143	22405
884.269	22527
884.395	22192
884.52	22013
884.646	22090
884.772	21998
884.897	21975
885.023	22116
885.148	22185
885.274	22139
885.399	22090
885.524	22154
885.65	21994
885.775	22025
885.9	22128
886.025	22059
886.15	22192
886.275	22074
886.4	21941
886.525	22044
886.65	21975
886.775	21991
886.9	22295
887.025	22211
887.149	22124
887.274	21850
887.399	21778
887.523	21911
887.648	21880
887.773	21774
887.897	21804
888.021	21892
888.146	21785
888.27	21941
888.395	21842
888.519	21876
888.643	21945
888.767	21850
888.891	21720
889.015	21599
889.139	21675
889.263	21610
889.387	21819
889.511	21778
889.635	21755
889.759	21671
889.883	21675
890.006	21660
890.13	21671
890.254	21523
890.377	21572
890.501	21374
890.624	21291
890.748	21367
890.871	21313
890.995	21313
891.118	21081
891.241	21089
891.364	21207
891.488	21264
891.611	21138
891.734	21150
891.857	21268
891.98	21157
892.103	21245
892.226	21142
892.349	21203
892.471	20948
892.594	21138
892.717	21157
892.839	21119
892.962	21070
893.085	21199
893.207	21112
893.33	20975
893.452	21047
893.575	21142
893.697	20994
893.819	21214
893.941	21230
894.064	21233
894.186	21024
894.308	20925
894.43	21195
894.552	21230
894.674	21051
894.796	20952
894.918	21009
895.04	20948
895.161	21074
895.283	21013
895.405	20880
895.526	21070
895.648	20998
895.769	21039
895.891	20998
896.012	21116
896.134	21093
896.255	21112
896.376	21070
896.498	20994
896.619	21119
896.74	21062
896.861	21058
896.982	21363
897.103	21488
897.224	21268
897.345	21317
897.466	21211
897.587	21260
897.708	21325
897.828	21226
897.949	21150
898.07	21077
898.19	21188
898.311	21405
898.431	21260
898.552	21192
898.672	21241
898.792	21321
898.913	21245
899.033	21070
899.153	21093
899.273	20967
899.393	20933
899.513	21051
899.633	21028
899.753	21009
899.873	20925
899.993	21039
900.113	20918
900.232	20960
900.352	20921
900.472	20876
900.591	20731
900.711	20826
900.83	20598
900.95	20796
901.069	20853
901.189	20746
901.308	20419
901.427	20396
901.546	20271
901.665	20396
901.784	20339
901.904	20183
902.023	20008
902.141	19940
902.26	19963
902.379	19906
902.498	19849
902.617	19791
902.735	19845
902.854	19734
902.973	19594
903.091	19514
903.21	19533
903.328	19464
903.446	19331
903.565	19259
903.683	19343
903.801	19099
903.919	19365
904.038	19221
904.156	19137
904.274	19168
904.392	19088
904.51	19027
904.627	18970
904.745	19148
904.863	19027
904.981	18890
905.098	18806
905.216	18707
905.334	18802
905.451	18707
905.569	18658
905.686	18726
905.803	18726
905.921	18513
906.038	18593
906.155	18486
906.272	18350
906.389	18414
906.506	18254
906.623	18201
906.74	18224
906.857	18243
906.974	18194
907.091	18384
907.208	18243
907.324	18289
907.441	18277
907.557	17931
907.674	17946
907.79	17878
907.907	17946
908.023	17980
908.139	17965
908.256	17824
908.372	17783
908.488	17840
908.604	17642
908.72	17608
908.836	17653
908.952	17611
909.068	17566
909.184	17695
909.3	17657
909.415	17608
909.531	17554
909.647	17501
909.762	17337
909.878	17269
909.993	17395
910.108	17299
910.224	17322
910.339	17356
910.454	17140
910.57	17124
910.685	17151
910.8	17417
910.915	17254
911.03	17178
911.145	17083
911.259	16995
911.374	17003
911.489	16748
911.604	16847
911.718	16725
911.833	16774
911.947	16618
912.062	16626
912.176	16653
912.291	16668
912.405	16748
912.519	16961
912.633	16854
912.748	16774
912.862	16679
912.976	16512
913.09	16363
913.204	16363
913.318	16538
913.431	16516
913.545	16622
913.659	16592
913.772	16421
913.886	16276
914	16310
914.113	16386
914.226	16405
914.34	16329
914.453	16158
914.566	16238
914.68	16238
914.793	16078
914.906	15934
915.019	15892
915.132	15808
915.245	15835
915.358	15918
915.47	15918
915.583	15759
915.696	15861
915.809	15903
915.921	15907
916.034	15789
916.146	15701
916.259	15743
916.371	15831
916.483	15789
916.595	15667
916.708	15595
916.82	15698
916.932	15641
917.044	15538
917.156	15557
917.268	15454
917.38	15428
917.491	15428
917.603	15447
917.715	15568
917.826	15519
917.938	15367
918.049	15351
918.161	15450
918.272	15477
918.384	15519
918.495	15389
918.606	15283
918.717	15165
918.828	15241
918.939	15302
919.05	15176
919.161	15116
919.272	14960
919.383	15013
919.494	15260
919.604	15393
919.715	15294
919.826	15131
919.936	15150
920.047	15325
920.157	15161
920.267	15260
920.378	15192
920.488	15070
920.598	15313
920.708	15443
920.818	15275
920.928	15233
921.038	15408
921.148	15397
921.258	15146
921.368	15138
921.477	14857
921.587	14921
921.697	14842
921.806	14895
921.916	14861
922.025	14571
922.134	14610
922.244	14480
922.353	14552
922.462	14431
922.571	14473
922.68	14256
922.789	14142
922.898	14187
923.007	14161
923.116	14221
923.224	14225
923.333	14130
923.442	14008
923.55	13947
923.659	14008
923.767	14008
923.876	13944
923.984	14001
924.092	13830
924.201	13906
924.309	13811
924.417	13868
924.525	13757
924.633	13746
924.741	14720
924.849	13586
924.956	13700
925.064	13559
925.172	13514
925.279	13460
925.387	13670
925.494	13559
925.602	13696
925.709	13544
925.816	13430
925.924	13563
926.031	13597
926.138	13483
926.245	13514
926.352	13407
926.459	13468
926.566	13487
926.673	13407
926.779	13289
926.886	13278
926.993	13141
927.099	13080
927.206	13065
927.312	13088
927.419	13061
927.525	13038
927.631	13187
927.737	13023
927.843	12817
927.95	12753
928.056	12867
928.162	12954
928.267	12973
928.373	13586
928.479	12962
928.585	12806
928.69	12848
928.796	12886
928.901	12787
929.007	12563
929.112	12715
929.218	12753
929.323	12578
929.428	12551
929.533	12760
929.638	12532
929.743	12570
929.848	12635
929.953	12589
930.058	12448
930.163	12388
930.267	12304
930.372	12437
930.477	12273
930.581	12403
930.685	12338
930.79	12140
930.894	12228
930.998	12102
931.103	12285
931.207	11901
931.311	11817
931.415	11786
931.519	11581
931.623	11524
