Data from test_V78500241_2645.txt Node
Date: Fri Mar 25 16:00:07 CST 2022
User: usil
Spectrometer: V785-0024
Trigger mode: 0
Integration Time (sec): 4.000000E-1
Scans to average: 1
Nonlinearity correction enabled: false
Boxcar width: 0
Storing dark spectrum: false
XAxis mode: Wavelengths
Number of Pixels in Spectrum: 1024
>>>>>Begin Spectral Data<<<<<
801.071	27827
801.214	27705
801.356	27648
801.499	27504
801.641	27348
801.783	27363
801.926	27454
802.068	27351
802.211	27241
802.353	27283
802.496	27074
802.638	27009
802.78	26979
802.923	26902
803.065	26815
803.208	26944
803.35	26967
803.492	27135
803.635	27188
803.777	27138
803.919	27313
804.061	27633
804.204	27275
804.346	27081
804.488	27028
804.63	27237
804.773	27085
804.915	27306
805.057	27256
805.199	27218
805.341	27230
805.483	27397
805.626	27355
805.768	27268
805.91	27336
806.052	27317
806.194	27287
806.336	27435
806.478	27306
806.62	27336
806.762	27507
806.904	27545
807.046	27762
807.188	27812
807.33	27778
807.472	27892
807.614	27785
807.756	27766
807.898	27618
808.04	27526
808.182	27568
808.324	27633
808.465	27686
808.607	27838
808.749	27899
808.891	28105
809.033	28223
809.174	28017
809.316	28025
809.458	27960
809.6	27945
809.741	27972
809.883	28105
810.025	28188
810.166	28139
810.308	28078
810.45	28116
810.591	28120
810.733	27914
810.875	27918
811.016	27861
811.158	27960
811.299	28036
811.441	28051
811.582	28097
811.724	27937
811.865	27956
812.007	27953
812.148	28059
812.29	28025
812.431	27998
812.573	28131
812.714	28367
812.855	28424
812.997	28508
813.138	28668
813.279	28698
813.421	28386
813.562	28421
813.703	28405
813.845	28295
813.986	27876
814.127	27781
814.268	27660
814.41	27774
814.551	27793
814.692	27800
814.833	27542
814.974	27701
815.115	27641
815.256	27591
815.397	27439
815.539	27644
815.68	27443
815.821	27367
815.962	27462
816.103	27435
816.244	27264
816.385	27222
816.526	27249
816.666	26982
816.807	26963
816.948	27051
817.089	27108
817.23	27093
817.371	26895
817.512	26944
817.653	26853
817.793	26910
817.934	26990
818.075	26796
818.216	26864
818.356	26773
818.497	26792
818.638	26739
818.778	26613
818.919	26648
819.06	26724
819.2	26914
819.341	26887
819.481	26998
819.622	27131
819.762	27294
819.903	27116
820.043	27112
820.184	26994
820.324	27055
820.465	27165
820.605	27032
820.746	27047
820.886	26857
821.026	27028
821.167	26910
821.307	27096
821.447	26940
821.588	26906
821.728	26609
821.868	26621
822.008	26412
822.149	26473
822.289	26366
822.429	26320
822.569	26122
822.709	26130
822.849	25982
822.99	26016
823.13	25966
823.27	25864
823.41	25712
823.55	25643
823.69	25742
823.83	25719
823.97	25765
824.11	25434
824.25	25441
824.389	25575
824.529	25666
824.669	25491
824.809	25651
824.949	25635
825.089	25658
825.228	25601
825.368	25453
825.508	25381
825.648	25327
825.787	25464
825.927	25327
826.067	25407
826.206	25354
826.346	25426
826.485	25365
826.625	25426
826.765	25594
826.904	25499
827.044	25148
827.183	25080
827.323	25114
827.462	25141
827.601	24985
827.741	25000
827.88	25122
828.02	24962
828.159	25091
828.298	25046
828.437	25217
828.577	25031
828.716	25152
828.855	24962
828.994	24943
829.134	24707
829.273	24989
829.412	24821
829.551	24817
829.69	24783
829.829	24859
829.968	24890
830.107	24871
830.246	24909
830.385	24719
830.524	24806
830.663	24574
830.802	24498
830.941	24445
831.08	24494
831.219	24445
831.357	24513
831.496	24563
831.635	24464
831.774	24308
831.913	24216
832.051	24148
832.19	24148
832.329	24285
832.467	23965
832.606	23996
832.744	24140
832.883	24038
833.022	24049
833.16	24163
833.299	24136
833.437	24152
833.576	24091
833.714	24247
833.852	24205
833.991	24178
834.129	24273
834.267	24178
834.406	24186
834.544	24110
834.682	24045
834.821	24152
834.959	24273
835.097	24038
835.235	24064
835.373	24068
835.511	24159
835.65	24155
835.788	23885
835.926	23783
836.064	23775
836.202	23764
836.34	24129
836.478	23958
836.615	23980
836.753	23885
836.891	24095
837.029	24091
837.167	23863
837.305	23912
837.443	23908
837.58	23840
837.718	23897
837.856	23870
837.993	23843
838.131	23760
838.269	23676
838.406	23733
838.544	23707
838.681	23539
838.819	23417
838.956	23246
839.094	23315
839.231	23280
839.369	23531
839.506	23505
839.643	23535
839.781	23356
839.918	23109
840.055	23322
840.193	23239
840.33	23231
840.467	23086
840.604	23265
840.742	23478
840.879	22889
841.016	23044
841.153	23174
841.29	23273
841.427	23151
841.564	23235
841.701	23212
841.838	23250
841.975	23155
842.112	23200
842.249	23086
842.385	22858
842.522	23265
842.659	22946
842.796	22984
842.933	22995
843.069	23010
843.206	22873
843.343	22930
843.479	23018
843.616	22976
843.752	22790
843.889	22786
844.025	22972
844.162	22637
844.298	22733
844.435	22508
844.571	22630
844.708	22782
844.844	22915
844.98	22915
845.117	22900
845.253	22774
845.389	22710
845.525	22649
845.661	22618
845.798	22459
845.934	22440
846.07	22402
846.206	22542
846.342	22546
846.478	22474
846.614	22303
846.75	22112
846.886	22223
847.022	22367
847.158	22185
847.294	22173
847.429	22219
847.565	22116
847.701	22428
847.837	21884
847.972	21930
848.108	21991
848.244	21994
848.379	21876
848.515	21831
848.65	21793
848.786	21781
848.921	21751
849.057	21918
849.192	21880
849.328	21797
849.463	21770
849.598	21713
849.734	21747
849.869	21583
850.004	21492
850.14	21591
850.275	21580
850.41	21389
850.545	21500
850.68	21644
850.815	21568
850.95	21553
851.085	21739
851.22	21583
851.355	21542
851.49	21629
851.625	21549
851.76	21572
851.895	21492
852.03	21473
852.165	21568
852.299	21553
852.434	21641
852.569	21633
852.703	21545
852.838	21614
852.973	21724
853.107	21759
853.242	21526
853.376	21500
853.511	21367
853.645	21340
853.78	21549
853.914	21473
854.048	21332
854.183	21447
854.317	21450
854.451	21538
854.585	21382
854.72	21439
854.854	21466
854.988	21367
855.122	21526
855.256	21435
855.39	21443
855.524	21553
855.658	21439
855.792	21401
855.926	21603
856.06	21500
856.194	21542
856.327	21374
856.461	21256
856.595	21401
856.729	21344
856.862	21428
856.996	21424
857.13	21504
857.263	21519
857.397	21481
857.53	21416
857.664	21408
857.797	21545
857.931	21568
858.064	21351
858.197	21450
858.331	21412
858.464	21382
858.597	21237
858.731	21302
858.864	21370
858.997	21393
859.13	21439
859.263	21458
859.396	21405
859.529	21218
859.662	21226
859.795	21351
859.928	21587
860.061	21576
860.194	21656
860.327	21412
860.46	21332
860.592	21534
860.725	21614
860.858	21519
860.99	21374
861.123	21306
861.256	21378
861.388	21405
861.521	22048
861.653	21367
861.786	21161
861.918	21310
862.05	21287
862.183	21192
862.315	21363
862.447	21481
862.58	21348
862.712	21028
862.844	21123
862.976	21173
863.108	21199
863.24	21492
863.372	21108
863.504	21138
863.636	21074
863.768	21089
863.9	21207
864.032	21051
864.164	21131
864.296	21165
864.428	21207
864.559	21195
864.691	21184
864.823	21100
864.954	21131
865.086	21089
865.217	21055
865.349	20906
865.48	21047
865.612	21123
865.743	21154
865.875	21058
866.006	20937
866.137	21001
866.269	20944
866.4	20967
866.531	21058
866.662	20925
866.793	20963
866.924	20933
867.055	20948
867.186	20883
867.317	20902
867.448	20933
867.579	20906
867.71	20925
867.841	20834
867.972	20963
868.103	20979
868.233	20925
868.364	20982
868.495	21142
868.625	21188
868.756	21431
868.886	21055
869.017	21192
869.147	21302
869.278	21344
869.408	21009
869.539	21222
869.669	21237
869.799	21157
869.929	21378
870.06	21195
870.19	21526
870.32	21519
870.45	21610
870.58	21591
870.71	21644
870.84	21629
870.97	21587
871.1	21606
871.23	21781
871.36	21766
871.489	21694
871.619	21747
871.749	21774
871.879	21766
872.008	21823
872.138	21899
872.267	21713
872.397	21686
872.526	21679
872.656	21728
872.785	21679
872.915	21861
873.044	21850
873.173	21888
873.303	21873
873.432	21854
873.561	22051
873.69	21808
873.819	21743
873.948	21964
874.077	21861
874.206	21755
874.335	21751
874.464	21972
874.593	22029
874.722	22086
874.851	22097
874.979	22040
875.108	22143
875.237	21956
875.365	21854
875.494	22143
875.623	22215
875.751	22067
875.88	22021
876.008	22276
876.136	22234
876.265	22531
876.393	22561
876.521	22447
876.65	22447
876.778	22577
876.906	22443
877.034	22402
877.162	22432
877.29	22299
877.418	22375
877.546	22348
877.674	22363
877.802	22344
877.93	22352
878.058	22272
878.185	22341
878.313	22363
878.441	22325
878.568	22219
878.696	22226
878.824	22489
878.951	22451
879.079	22478
879.206	22592
879.333	22455
879.461	22512
879.588	22618
879.715	22596
879.842	22637
879.97	22516
880.097	22265
880.224	22219
880.351	22253
880.478	22234
880.605	22173
880.732	22204
880.859	22306
880.986	22188
881.112	22223
881.239	22082
881.366	22036
881.493	21922
881.619	21751
881.746	21804
881.872	21915
881.999	21778
882.125	21770
882.252	21964
882.378	21751
882.505	21922
882.631	21743
882.757	21515
882.883	21778
883.01	21549
883.136	21378
883.262	21306
883.388	21313
883.514	21378
883.64	21496
883.766	21405
883.892	21287
884.018	21302
884.143	21447
884.269	21519
884.395	21241
884.52	21146
884.646	21123
884.772	21154
884.897	20979
885.023	21138
885.148	21256
885.274	21317
885.399	21279
885.524	21116
885.65	21176
885.775	21058
885.9	21047
886.025	21226
886.15	21256
886.275	21009
886.4	21104
886.525	21116
886.65	20990
886.775	21039
886.9	21150
887.025	21374
887.149	21036
887.274	20861
887.399	20788
887.523	20773
887.648	20845
887.773	20735
887.897	21009
888.021	21009
888.146	20743
888.27	21043
888.395	20918
888.519	21005
888.643	21157
888.767	20937
888.891	20796
889.015	20720
889.139	20849
889.263	20629
889.387	20792
889.511	20880
889.635	20823
889.759	20640
889.883	20720
890.006	20708
890.13	20880
890.254	20769
890.377	20560
890.501	20465
890.624	20351
890.748	20457
890.871	20305
890.995	20320
891.118	20263
891.241	20191
891.364	20336
891.488	20469
891.611	20275
891.734	20267
891.857	20339
891.98	20256
892.103	20336
892.226	20218
892.349	20282
892.471	20062
892.594	20199
892.717	20168
892.839	20134
892.962	20183
893.085	20195
893.207	20275
893.33	20088
893.452	19967
893.575	20206
893.697	20111
893.819	20221
893.941	20389
894.064	20305
894.186	20092
894.308	20111
894.43	20248
894.552	20278
894.674	20298
894.796	20024
894.918	20100
895.04	20122
895.161	20153
895.283	20221
895.405	20096
895.526	20229
895.648	20210
895.769	20138
895.891	20084
896.012	20294
896.134	20240
896.255	20145
896.376	20092
896.498	20122
896.619	20320
896.74	20122
896.861	20199
896.982	20423
897.103	20575
897.224	20450
897.345	20332
897.466	20301
897.587	20370
897.708	20514
897.828	20419
897.949	20332
898.07	20202
898.19	20362
898.311	20412
898.431	20290
898.552	20298
898.672	20492
898.792	20499
898.913	20400
899.033	20240
899.153	20218
899.273	20122
899.393	20187
899.513	20092
899.633	20016
899.753	20237
899.873	20069
899.993	20039
900.113	20168
900.232	20005
900.352	20058
900.472	20035
900.591	19890
900.711	19974
900.83	19849
900.95	20016
901.069	20050
901.189	19803
901.308	19605
901.427	19483
901.546	19392
901.665	19556
901.784	19510
901.904	19369
902.023	19251
902.141	19023
902.26	19076
902.379	19076
902.498	18909
902.617	18920
902.735	19015
902.854	18924
902.973	18882
903.091	18715
903.21	18677
903.328	18654
903.446	18513
903.565	18460
903.683	18525
903.801	18391
903.919	18448
904.038	18407
904.156	18334
904.274	18361
904.392	18186
904.51	18205
904.627	18117
904.745	18178
904.863	18353
904.981	17946
905.098	17901
905.216	17882
905.334	17973
905.451	18060
905.569	17817
905.686	18015
905.803	17901
905.921	17786
906.038	17855
906.155	17771
906.272	17668
906.389	17608
906.506	17436
906.623	17395
906.74	17376
906.857	17364
906.974	17296
907.091	17459
907.208	17509
907.324	17623
907.441	17326
907.557	17185
907.674	17147
907.79	17113
907.907	17128
908.023	17269
908.139	17204
908.256	17048
908.372	17033
908.488	17025
908.604	16904
908.72	16927
908.836	16881
908.952	16862
909.068	16923
909.184	17029
909.3	16892
909.415	16873
909.531	16885
909.647	16668
909.762	16622
909.878	16500
909.993	16565
910.108	16569
910.224	16523
910.339	16531
910.454	16451
910.57	16341
910.685	16314
910.8	16592
910.915	16573
911.03	16333
911.145	16249
911.259	16276
911.374	16162
911.489	16116
911.604	16097
911.718	15998
911.833	15926
911.947	15888
912.062	15751
912.176	16017
912.291	15915
912.405	15934
912.519	16109
912.633	15998
912.748	15800
912.862	15937
912.976	15747
913.09	15656
913.204	15614
913.318	15804
913.431	15751
913.545	15781
913.659	15808
913.772	15736
913.886	15580
914	15568
914.113	15694
914.226	15686
914.34	15534
914.453	15405
914.566	15488
914.68	15466
914.793	15416
914.906	15226
915.019	15169
915.132	15005
915.245	15146
915.358	15218
915.47	15135
915.583	15176
915.696	15195
915.809	15211
915.921	15214
916.034	15142
916.146	15001
916.259	15043
916.371	15150
916.483	15062
916.595	15024
916.708	15020
916.82	14975
916.932	14956
917.044	14929
917.156	14933
917.268	14758
917.38	14838
917.491	14769
917.603	14735
917.715	14838
917.826	14914
917.938	14720
918.049	14644
918.161	14845
918.272	14891
918.384	14918
918.495	14720
918.606	14583
918.717	14522
918.828	14587
918.939	14579
919.05	14438
919.161	14461
919.272	14271
919.383	14381
919.494	14629
919.604	14785
919.715	14644
919.826	14465
919.936	14419
920.047	14560
920.157	14579
920.267	14651
920.378	14526
920.488	14530
920.598	14693
920.708	14800
920.818	14651
920.928	14579
921.038	14819
921.148	14826
921.258	14419
921.368	14412
921.477	14290
921.587	14267
921.697	14100
921.806	14271
921.916	14126
922.025	13993
922.134	13974
922.244	13894
922.353	13951
922.462	13734
922.571	13670
922.68	13597
922.789	13411
922.898	13605
923.007	13533
923.116	13525
923.224	13624
923.333	13468
923.442	13358
923.55	13365
923.659	13426
923.767	13415
923.876	13346
923.984	13502
924.092	13274
924.201	13301
924.309	13308
924.417	13304
924.525	13209
924.633	13285
924.741	14149
924.849	13137
924.956	13145
925.064	12935
925.172	12916
925.279	12920
925.387	12970
925.494	12916
925.602	13031
925.709	13031
925.816	12882
925.924	12932
926.031	13031
926.138	12844
926.245	12962
926.352	12768
926.459	12890
926.566	13034
926.673	12795
926.779	12764
926.886	12688
926.993	12574
927.099	12528
927.206	12460
927.312	12388
927.419	12559
927.525	12540
927.631	12532
927.737	12418
927.843	12437
927.95	12334
928.056	12407
928.162	12391
928.267	12391
928.373	12970
928.479	12433
928.585	12091
928.69	12292
928.796	12380
928.901	12380
929.007	12053
929.112	12205
929.218	12117
929.323	12079
929.428	12095
929.533	12251
929.638	12045
929.743	12076
929.848	12068
929.953	12007
930.058	11912
930.163	11741
930.267	11722
930.372	11923
930.477	11748
930.581	11954
930.685	11870
930.79	11627
930.894	11695
930.998	11627
931.103	11729
931.207	11387
931.311	11376
931.415	11216
931.519	11052
931.623	11010
