Data from test_V78500241_3417.txt Node
Date: Fri Mar 25 16:05:28 CST 2022
User: usil
Spectrometer: V785-0024
Trigger mode: 0
Integration Time (sec): 4.000000E-1
Scans to average: 1
Nonlinearity correction enabled: false
Boxcar width: 0
Storing dark spectrum: false
XAxis mode: Wavelengths
Number of Pixels in Spectrum: 1024
>>>>>Begin Spectral Data<<<<<
801.071	28862
801.214	28900
801.356	28740
801.499	28573
801.641	28299
801.783	28428
801.926	28500
802.068	28341
802.211	28386
802.353	28329
802.496	28124
802.638	28211
802.78	28063
802.923	28013
803.065	28032
803.208	28158
803.35	28124
803.492	28306
803.635	28352
803.777	28215
803.919	28413
804.061	28637
804.204	28322
804.346	28348
804.488	28379
804.63	28276
804.773	28246
804.915	28432
805.057	28630
805.199	28432
805.341	28577
805.483	28664
805.626	28615
805.768	28474
805.91	28656
806.052	28554
806.194	28382
806.336	28748
806.478	28599
806.62	28645
806.762	28550
806.904	28797
807.046	29113
807.188	29079
807.33	28965
807.472	29181
807.614	29037
807.756	29025
807.898	29037
808.04	28831
808.182	28885
808.324	28934
808.465	28786
808.607	29060
808.749	29174
808.891	29174
809.033	29398
809.174	29414
809.316	29360
809.458	29231
809.6	29212
809.741	29311
809.883	29425
810.025	29452
810.166	29531
810.308	29539
810.45	29604
810.591	29455
810.733	29296
810.875	29239
811.016	29170
811.158	29220
811.299	29505
811.441	29402
811.582	29433
811.724	29307
811.865	29280
812.007	29140
812.148	29208
812.29	29375
812.431	29429
812.573	29581
812.714	29703
812.855	29908
812.997	29862
813.138	30057
813.279	29912
813.421	29901
813.562	29733
813.703	29790
813.845	29543
813.986	29265
814.127	29105
814.268	29200
814.41	29033
814.551	28919
814.692	29140
814.833	29018
814.974	28888
815.115	28987
815.256	28911
815.397	28866
815.539	28801
815.68	28812
815.821	28759
815.962	28908
816.103	28691
816.244	28713
816.385	28702
816.526	28531
816.666	28481
816.807	28325
816.948	28257
817.089	28386
817.23	28401
817.371	28303
817.512	28360
817.653	28310
817.793	28268
817.934	28314
818.075	28306
818.216	28363
818.356	28401
818.497	28242
818.638	28139
818.778	28139
818.919	28010
819.06	28188
819.2	28287
819.341	28417
819.481	28318
819.622	28599
819.762	28752
819.903	28618
820.043	28500
820.184	28504
820.324	28535
820.465	28474
820.605	28424
820.746	28516
820.886	28265
821.026	28432
821.167	28424
821.307	28375
821.447	28352
821.588	28185
821.728	28044
821.868	27846
822.008	27766
822.149	27876
822.289	27861
822.429	27751
822.569	27424
822.709	27557
822.849	27386
822.99	27344
823.13	27207
823.27	27260
823.41	27142
823.55	27214
823.69	27245
823.83	27192
823.97	27013
824.11	26956
824.25	26940
824.389	26845
824.529	27013
824.669	27001
824.809	27096
824.949	26979
825.089	27036
825.228	27074
825.368	26712
825.508	26845
825.648	26883
825.787	26781
825.927	26994
826.067	26944
826.206	26857
826.346	26937
826.485	26937
826.625	26731
826.765	26963
826.904	26971
827.044	26686
827.183	26659
827.323	26579
827.462	26530
827.601	26495
827.741	26503
827.88	26636
828.02	26514
828.159	26522
828.298	26579
828.437	26697
828.577	26564
828.716	26712
828.855	26594
828.994	26225
829.134	26119
829.273	26355
829.412	26248
829.551	26195
829.69	26313
829.829	26263
829.968	26301
830.107	26389
830.246	26225
830.385	26339
830.524	26191
830.663	26077
830.802	26031
830.941	25959
831.08	25776
831.219	25955
831.357	25917
831.496	26138
831.635	25928
831.774	25788
831.913	25780
832.051	25807
832.19	25601
832.329	25518
832.467	25601
832.606	25365
832.744	25487
832.883	25597
833.022	25449
833.16	25502
833.299	25529
833.437	25548
833.576	25624
833.714	25632
833.852	25727
833.991	25742
834.129	25731
834.267	25670
834.406	25578
834.544	25552
834.682	25708
834.821	25670
834.959	25700
835.097	25502
835.235	25556
835.373	25540
835.511	25594
835.65	25476
835.788	25441
835.926	25415
836.064	25148
836.202	25244
836.34	25556
836.478	25479
836.615	25434
836.753	25369
836.891	25548
837.029	25388
837.167	25419
837.305	25362
837.443	25335
837.58	25255
837.718	25388
837.856	25384
837.993	25141
838.131	25175
838.269	25122
838.406	25019
838.544	24992
838.681	24875
838.819	24905
838.956	24673
839.094	24734
839.231	24791
839.369	24897
839.506	25137
839.643	24935
839.781	24764
839.918	24620
840.055	24665
840.193	24715
840.33	24738
840.467	24601
840.604	24707
840.742	24795
840.879	24448
841.016	24551
841.153	24585
841.29	24719
841.427	24528
841.564	24635
841.701	24460
841.838	24517
841.975	24486
842.112	24532
842.249	24521
842.385	24467
842.522	24570
842.659	24350
842.796	24239
842.933	24323
843.069	24407
843.206	24251
843.343	24426
843.479	24388
843.616	24388
843.752	24273
843.889	24270
844.025	24140
844.162	24251
844.298	24174
844.435	24197
844.571	24182
844.708	24174
844.844	24273
844.98	24376
845.117	24251
845.253	24106
845.389	23942
845.525	23977
845.661	23977
845.798	23843
845.934	23984
846.07	23904
846.206	23908
846.342	24022
846.478	23779
846.614	23687
846.75	23566
846.886	23649
847.022	23589
847.158	23585
847.294	23611
847.429	23703
847.565	23501
847.701	23729
847.837	23440
847.972	23341
848.108	23391
848.244	23452
848.379	23132
848.515	23071
848.65	23086
848.786	23132
848.921	23151
849.057	23444
849.192	23349
849.328	23223
849.463	23273
849.598	23113
849.734	23044
849.869	23037
850.004	23090
850.14	22854
850.275	22991
850.41	22866
850.545	22927
850.68	22892
850.815	22991
850.95	22820
851.085	23181
851.22	23147
851.355	22999
851.49	22980
851.625	22957
851.76	22999
851.895	22965
852.03	22824
852.165	23075
852.299	22946
852.434	22961
852.569	22877
852.703	22949
852.838	23090
852.973	23109
853.107	23018
853.242	22816
853.376	22679
853.511	22607
853.645	22748
853.78	22885
853.914	22797
854.048	22706
854.183	22850
854.317	22889
854.451	22949
854.585	22672
854.72	22839
854.854	22816
854.988	22778
855.122	22828
855.256	22672
855.39	22713
855.524	22839
855.658	22809
855.792	22793
855.926	22850
856.06	22835
856.194	22915
856.327	22736
856.461	22675
856.595	22782
856.729	22618
856.862	22866
856.996	22740
857.13	22771
857.263	22896
857.397	22904
857.53	22793
857.664	22778
857.797	22755
857.931	22873
858.064	22805
858.197	22858
858.331	22828
858.464	22721
858.597	22588
858.731	22748
858.864	22862
858.997	22733
859.13	22717
859.263	22809
859.396	22847
859.529	22755
859.662	22782
859.795	22740
859.928	22847
860.061	23010
860.194	23014
860.327	22923
860.46	22752
860.592	22828
860.725	22980
860.858	22869
860.99	22797
861.123	22637
861.256	22679
861.388	22725
861.521	23379
861.653	22691
861.786	22550
861.918	22611
862.05	22672
862.183	22755
862.315	22797
862.447	22847
862.58	22649
862.712	22519
862.844	22523
862.976	22554
863.108	22436
863.24	22961
863.372	22344
863.504	22573
863.636	22577
863.768	22405
863.9	22497
864.032	22508
864.164	22402
864.296	22398
864.428	22694
864.559	22660
864.691	22546
864.823	22466
864.954	22413
865.086	22325
865.217	22421
865.349	22287
865.48	22371
865.612	22333
865.743	22478
865.875	22462
866.006	22413
866.137	22348
866.269	22333
866.4	22310
866.531	22265
866.662	22310
866.793	22322
866.924	22196
867.055	22284
867.186	22299
867.317	22253
867.448	22143
867.579	22219
867.71	22055
867.841	22230
867.972	22226
868.103	22101
868.233	22310
868.364	22257
868.495	22405
868.625	22599
868.756	22508
868.886	22447
869.017	22455
869.147	22554
869.278	22557
869.408	22538
869.539	22455
869.669	22554
869.799	22653
869.929	22694
870.06	22641
870.19	22877
870.32	22839
870.45	22927
870.58	23048
870.71	22995
870.84	23044
870.97	22889
871.1	22908
871.23	23090
871.36	23041
871.489	22980
871.619	23136
871.749	23151
871.879	23273
872.008	23231
872.138	23056
872.267	23136
872.397	23018
872.526	22919
872.656	22946
872.785	23022
872.915	23121
873.044	23223
873.173	23052
873.303	23197
873.432	23109
873.561	23315
873.69	23143
873.819	23128
873.948	23258
874.077	23071
874.206	23067
874.335	23083
874.464	23345
874.593	23368
874.722	23368
874.851	23398
874.979	23573
875.108	23277
875.237	23360
875.365	23181
875.494	23284
875.623	23322
875.751	23391
875.88	23341
876.008	23531
876.136	23448
876.265	23661
876.393	23802
876.521	23794
876.65	23794
876.778	23703
876.906	23718
877.034	23710
877.162	23748
877.29	23668
877.418	23809
877.546	23779
877.674	23741
877.802	23665
877.93	23707
878.058	23687
878.185	23608
878.313	23581
878.441	23638
878.568	23573
878.696	23699
878.824	23676
878.951	23722
879.079	23863
879.206	23889
879.333	23939
879.461	23756
879.588	23863
879.715	23783
879.842	23920
879.97	23798
880.097	23581
880.224	23444
880.351	23531
880.478	23619
880.605	23539
880.732	23455
880.859	23790
880.986	23497
881.112	23505
881.239	23299
881.366	23239
881.493	23212
881.619	23136
881.746	23162
881.872	23155
881.999	22984
882.125	22946
882.252	23094
882.378	23041
882.505	23197
882.631	22927
882.757	22755
882.883	22748
883.01	22809
883.136	22588
883.262	22611
883.388	22596
883.514	22816
883.64	22691
883.766	22668
883.892	22417
884.018	22535
884.143	22653
884.269	22759
884.395	22497
884.52	22367
884.646	22405
884.772	22318
884.897	22276
885.023	22466
885.148	22443
885.274	22478
885.399	22542
885.524	22329
885.65	22181
885.775	22303
885.9	22337
886.025	22497
886.15	22474
886.275	22276
886.4	22207
886.525	22173
886.65	22329
886.775	22371
886.9	22398
887.025	22542
887.149	22306
887.274	22154
887.399	22173
887.523	22124
887.648	22055
887.773	21987
887.897	22147
888.021	22192
888.146	22105
888.27	22185
888.395	22074
888.519	22162
888.643	22211
888.767	22090
888.891	22067
889.015	21831
889.139	21949
889.263	21941
889.387	22097
889.511	21998
889.635	22044
889.759	21846
889.883	21926
890.006	21880
890.13	21979
890.254	21789
890.377	21755
890.501	21739
890.624	21633
890.748	21610
890.871	21583
890.995	21477
891.118	21500
891.241	21496
891.364	21473
891.488	21561
891.611	21466
891.734	21485
891.857	21481
891.98	21424
892.103	21656
892.226	21488
892.349	21397
892.471	21298
892.594	21264
892.717	21363
892.839	21310
892.962	21386
893.085	21462
893.207	21359
893.33	21268
893.452	21321
893.575	21325
893.697	21207
893.819	21382
893.941	21526
894.064	21420
894.186	21287
894.308	21165
894.43	21412
894.552	21454
894.674	21340
894.796	21275
894.918	21241
895.04	21184
895.161	21378
895.283	21428
895.405	21264
895.526	21370
895.648	21302
895.769	21344
895.891	21393
896.012	21397
896.134	21401
896.255	21359
896.376	21340
896.498	21275
896.619	21424
896.74	21424
896.861	21344
896.982	21564
897.103	21770
897.224	21564
897.345	21534
897.466	21378
897.587	21610
897.708	21622
897.828	21542
897.949	21530
898.07	21462
898.19	21431
898.311	21587
898.431	21515
898.552	21481
898.672	21606
898.792	21534
898.913	21511
899.033	21389
899.153	21344
899.273	21264
899.393	21165
899.513	21233
899.633	21245
899.753	21169
899.873	21195
899.993	21367
900.113	21119
900.232	21222
900.352	21036
900.472	21005
900.591	21024
900.711	21043
900.83	21020
900.95	21066
901.069	21112
901.189	20857
901.308	20659
901.427	20541
901.546	20511
901.665	20613
901.784	20549
901.904	20476
902.023	20434
902.141	20164
902.26	20138
902.379	20233
902.498	20039
902.617	19974
902.735	20111
902.854	20035
902.973	19959
903.091	19601
903.21	19647
903.328	19795
903.446	19639
903.565	19571
903.683	19563
903.801	19400
903.919	19544
904.038	19457
904.156	19430
904.274	19365
904.392	19225
904.51	19187
904.627	19148
904.745	19217
904.863	19282
904.981	18973
905.098	19019
905.216	18935
905.334	19034
905.451	18943
905.569	18954
905.686	18951
905.803	18882
905.921	18566
906.038	18897
906.155	18715
906.272	18642
906.389	18635
906.506	18399
906.623	18448
906.74	18452
906.857	18376
906.974	18262
907.091	18506
907.208	18597
907.324	18410
907.441	18388
907.557	18285
907.674	18102
907.79	18144
907.907	18163
908.023	18197
908.139	18197
908.256	18148
908.372	18114
908.488	17992
908.604	17935
908.72	17843
908.836	17847
908.952	17878
909.068	17889
909.184	18049
909.3	17840
909.415	17809
909.531	17824
909.647	17619
909.762	17509
909.878	17543
909.993	17573
910.108	17566
910.224	17516
910.339	17581
910.454	17440
910.57	17269
910.685	17216
910.8	17592
910.915	17512
911.03	17353
911.145	17227
911.259	17208
911.374	17216
911.489	16984
911.604	16999
911.718	16881
911.833	16968
911.947	16694
912.062	16649
912.176	16858
912.291	16885
912.405	16881
912.519	17124
912.633	17060
912.748	16908
912.862	16873
912.976	16702
913.09	16596
913.204	16637
913.318	16679
913.431	16797
913.545	16790
913.659	16835
913.772	16691
913.886	16550
914	16447
914.113	16474
914.226	16577
914.34	16641
914.453	16386
914.566	16470
914.68	16352
914.793	16348
914.906	16154
915.019	16078
915.132	15998
915.245	16032
915.358	16131
915.47	15991
915.583	15987
915.696	16051
915.809	16120
915.921	16139
916.034	15960
916.146	16017
916.259	15911
916.371	16082
916.483	15964
916.595	15956
916.708	15934
916.82	15861
916.932	15789
917.044	15869
917.156	15854
917.268	15614
917.38	15656
917.491	15622
917.603	15770
917.715	15747
917.826	15793
917.938	15595
918.049	15485
918.161	15564
918.272	15667
918.384	15637
918.495	15622
918.606	15515
918.717	15340
918.828	15450
918.939	15477
919.05	15336
919.161	15374
919.272	15192
919.383	15173
919.494	15496
919.604	15641
919.715	15485
919.826	15252
919.936	15355
920.047	15424
920.157	15378
920.267	15466
920.378	15431
920.488	15367
920.598	15458
920.708	15652
920.818	15473
920.928	15519
921.038	15682
921.148	15622
921.258	15218
921.368	15367
921.477	15032
921.587	15097
921.697	14944
921.806	15089
921.916	14857
922.025	14716
922.134	14655
922.244	14556
922.353	14670
922.462	14606
922.571	14568
922.68	14396
922.789	14408
922.898	14377
923.007	14286
923.116	14362
923.224	14229
923.333	14347
923.442	14164
923.55	14252
923.659	14176
923.767	14202
923.876	14153
923.984	14240
924.092	14100
924.201	14119
924.309	14073
924.417	14024
924.525	14054
924.633	13982
924.741	14880
924.849	13765
924.956	13993
925.064	13712
925.172	13658
925.279	13651
925.387	13647
925.494	13738
925.602	13837
925.709	13761
925.816	13582
925.924	13681
926.031	13689
926.138	13609
926.245	13605
926.352	13502
926.459	13670
926.566	13742
926.673	13540
926.779	13426
926.886	13403
926.993	13365
927.099	13274
927.206	13251
927.312	13129
927.419	13289
927.525	13259
927.631	13232
927.737	13156
927.843	13133
927.95	12989
928.056	13042
928.162	13042
928.267	13107
928.373	13670
928.479	13076
928.585	12749
928.69	13042
928.796	13034
928.901	12913
929.007	12753
929.112	12875
929.218	12913
929.323	12776
929.428	12688
929.533	12977
929.638	12642
929.743	12734
929.848	12673
929.953	12776
930.058	12700
930.163	12555
930.267	12456
930.372	12544
930.477	12391
930.581	12608
930.685	12498
930.79	12384
930.894	12376
930.998	12281
931.103	12357
931.207	12106
931.311	11988
931.415	12019
931.519	11722
931.623	11707
