Data from test_V78500241_2752.txt Node
Date: Fri Mar 25 16:00:51 CST 2022
User: usil
Spectrometer: V785-0024
Trigger mode: 0
Integration Time (sec): 4.000000E-1
Scans to average: 1
Nonlinearity correction enabled: false
Boxcar width: 0
Storing dark spectrum: false
XAxis mode: Wavelengths
Number of Pixels in Spectrum: 1024
>>>>>Begin Spectral Data<<<<<
801.071	28554
801.214	28645
801.356	28478
801.499	28310
801.641	28352
801.783	28204
801.926	28310
802.068	28097
802.211	28124
802.353	28246
802.496	28021
802.638	28032
802.78	27953
802.923	28048
803.065	27694
803.208	27975
803.35	27979
803.492	28048
803.635	28147
803.777	28048
803.919	28051
804.061	28489
804.204	28124
804.346	28013
804.488	28150
804.63	28139
804.773	28150
804.915	28147
805.057	28417
805.199	28192
805.341	28200
805.483	28371
805.626	28314
805.768	28196
805.91	28177
806.052	28386
806.194	28333
806.336	28462
806.478	28314
806.62	28268
806.762	28538
806.904	28516
807.046	28755
807.188	28725
807.33	28702
807.472	28877
807.614	28713
807.756	28733
807.898	28603
808.04	28497
808.182	28649
808.324	28679
808.465	28713
808.607	28949
808.749	29018
808.891	29052
809.033	29136
809.174	28995
809.316	29029
809.458	29003
809.6	29071
809.741	28995
809.883	29200
810.025	29375
810.166	29296
810.308	29372
810.45	29273
810.591	29166
810.733	29086
810.875	28949
811.016	28934
811.158	28976
811.299	29181
811.441	29265
811.582	29189
811.724	28965
811.865	29132
812.007	28934
812.148	29136
812.29	29121
812.431	29254
812.573	29284
812.714	29558
812.855	29531
812.997	29543
813.138	29771
813.279	29672
813.421	29573
813.562	29345
813.703	29356
813.845	29231
813.986	29060
814.127	28812
814.268	28752
814.41	28759
814.551	28592
814.692	28630
814.833	28725
814.974	28687
815.115	28755
815.256	28546
815.397	28664
815.539	28694
815.68	28474
815.821	28516
815.962	28546
816.103	28565
816.244	28489
816.385	28234
816.526	28291
816.666	28162
816.807	27972
816.948	28177
817.089	28101
817.23	28093
817.371	28048
817.512	27892
817.653	28021
817.793	28082
817.934	28055
818.075	27953
818.216	28143
818.356	27987
818.497	27987
818.638	27972
818.778	27804
818.919	27850
819.06	27846
819.2	27861
819.341	28006
819.481	28162
819.622	28181
819.762	28417
819.903	28234
820.043	28223
820.184	28211
820.324	28200
820.465	28215
820.605	28207
820.746	28116
820.886	28044
821.026	28234
821.167	28093
821.307	28139
821.447	27914
821.588	27968
821.728	27838
821.868	27660
822.008	27523
822.149	27534
822.289	27583
822.429	27249
822.569	27226
822.709	27218
822.849	26982
822.99	27017
823.13	27051
823.27	27100
823.41	26895
823.55	26788
823.69	26899
823.83	26804
823.97	26777
824.11	26663
824.25	26640
824.389	26727
824.529	26788
824.669	26556
824.809	26921
824.949	26807
825.089	26697
825.228	26796
825.368	26636
825.508	26606
825.648	26682
825.787	26457
825.927	26697
826.067	26560
826.206	26511
826.346	26629
826.485	26514
826.625	26526
826.765	26765
826.904	26552
827.044	26351
827.183	26206
827.323	26248
827.462	26374
827.601	26377
827.741	26225
827.88	26263
828.02	26065
828.159	26286
828.298	26191
828.437	26438
828.577	26252
828.716	26259
828.855	26309
828.994	25879
829.134	26088
829.273	26065
829.412	25997
829.551	25913
829.69	26058
829.829	26065
829.968	26119
830.107	25997
830.246	26077
830.385	25860
830.524	25845
830.663	25795
830.802	25571
830.941	25403
831.08	25563
831.219	25616
831.357	25784
831.496	25750
831.635	25708
831.774	25495
831.913	25438
832.051	25407
832.19	25460
832.329	25419
832.467	25251
832.606	25232
832.744	25213
832.883	25213
833.022	25312
833.16	25247
833.299	25354
833.437	25175
833.576	25324
833.714	25308
833.852	25304
833.991	25274
834.129	25457
834.267	25327
834.406	25354
834.544	25331
834.682	25388
834.821	25392
834.959	25415
835.097	25232
835.235	25403
835.373	25179
835.511	25533
835.65	25175
835.788	25118
835.926	25015
836.064	25069
836.202	24970
836.34	25179
836.478	25255
836.615	25145
836.753	25236
836.891	25228
837.029	25194
837.167	25008
837.305	25118
837.443	24973
837.58	25000
837.718	25088
837.856	24863
837.993	24989
838.131	24973
838.269	24760
838.406	25050
838.544	24726
838.681	24669
838.819	24612
838.956	24494
839.094	24570
839.231	24464
839.369	24734
839.506	24928
839.643	24601
839.781	24342
839.918	24277
840.055	24410
840.193	24315
840.33	24410
840.467	24281
840.604	24342
840.742	24612
840.879	24205
841.016	24327
841.153	24300
841.29	24346
841.427	24319
841.564	24376
841.701	24247
841.838	24315
841.975	24197
842.112	24247
842.249	24098
842.385	24121
842.522	24270
842.659	24251
842.796	24049
842.933	24125
843.069	24030
843.206	23958
843.343	24133
843.479	24163
843.616	24133
843.752	23779
843.889	23798
844.025	24015
844.162	23927
844.298	23969
844.435	23920
844.571	23695
844.708	23904
844.844	23999
844.98	23927
845.117	23946
845.253	23718
845.389	23813
845.525	23623
845.661	23710
845.798	23665
845.934	23600
846.07	23581
846.206	23524
846.342	23722
846.478	23573
846.614	23402
846.75	23254
846.886	23303
847.022	23288
847.158	23307
847.294	23425
847.429	23414
847.565	23239
847.701	23573
847.837	23006
847.972	22984
848.108	23052
848.244	23105
848.379	22934
848.515	22957
848.65	22877
848.786	22968
848.921	22980
849.057	22889
849.192	23037
849.328	22915
849.463	22930
849.598	22816
849.734	22729
849.869	22759
850.004	22653
850.14	22847
850.275	22630
850.41	22527
850.545	22577
850.68	22660
850.815	22664
850.95	22672
851.085	22854
851.22	22831
851.355	22683
851.49	22618
851.625	22599
851.76	22641
851.895	22478
852.03	22630
852.165	22687
852.299	22717
852.434	22656
852.569	22679
852.703	22611
852.838	22649
852.973	22820
853.107	22828
853.242	22535
853.376	22500
853.511	22375
853.645	22462
853.78	22683
853.914	22500
854.048	22405
854.183	22611
854.317	22584
854.451	22649
854.585	22546
854.72	22523
854.854	22512
854.988	22470
855.122	22474
855.256	22481
855.39	22413
855.524	22596
855.658	22596
855.792	22519
855.926	22500
856.06	22451
856.194	22531
856.327	22538
856.461	22371
856.595	22356
856.729	22455
856.862	22580
856.996	22379
857.13	22504
857.263	22596
857.397	22531
857.53	22557
857.664	22599
857.797	22474
857.931	22702
858.064	22497
858.197	22698
858.331	22451
858.464	22405
858.597	22462
858.731	22382
858.864	22459
858.997	22367
859.13	22527
859.263	22512
859.396	22577
859.529	22394
859.662	22421
859.795	22421
859.928	22508
860.061	22626
860.194	22691
860.327	22531
860.46	22546
860.592	22687
860.725	22554
860.858	22668
860.99	22538
861.123	22421
861.256	22542
861.388	22527
861.521	23212
861.653	22341
861.786	22318
861.918	22272
862.05	22322
862.183	22447
862.315	22478
862.447	22470
862.58	22371
862.712	22215
862.844	22040
862.976	22367
863.108	22291
863.24	22637
863.372	22169
863.504	22177
863.636	22185
863.768	22207
863.9	22291
864.032	22021
864.164	22131
864.296	22257
864.428	22200
864.559	22268
864.691	22200
864.823	22116
864.954	22067
865.086	22135
865.217	22044
865.349	22010
865.48	22082
865.612	22162
865.743	22287
865.875	22040
866.006	22070
866.137	22006
866.269	22082
866.4	21994
866.531	22040
866.662	22040
866.793	21979
866.924	21972
867.055	22048
867.186	21991
867.317	22006
867.448	21831
867.579	21972
867.71	21873
867.841	21850
867.972	22002
868.103	22051
868.233	21979
868.364	22021
868.495	22139
868.625	22154
868.756	22367
868.886	22181
869.017	22207
869.147	22421
869.278	22440
869.408	22322
869.539	22192
869.669	22405
869.799	22360
869.929	22447
870.06	22322
870.19	22588
870.32	22508
870.45	22508
870.58	22645
870.71	22763
870.84	22740
870.97	22596
871.1	22725
871.23	22759
871.36	22835
871.489	22706
871.619	22835
871.749	22828
871.879	22953
872.008	22987
872.138	22812
872.267	22854
872.397	22679
872.526	22679
872.656	22771
872.785	22679
872.915	22972
873.044	22896
873.173	22816
873.303	22904
873.432	22919
873.561	22885
873.69	22771
873.819	22809
873.948	22938
874.077	22938
874.206	22793
874.335	22847
874.464	22919
874.593	23025
874.722	23170
874.851	23220
874.979	23132
875.108	23246
875.237	22991
875.365	22911
875.494	23048
875.623	23071
875.751	22991
875.88	23083
876.008	23254
876.136	23174
876.265	23482
876.393	23752
876.521	23520
876.65	23520
876.778	23467
876.906	23482
877.034	23406
877.162	23501
877.29	23250
877.418	23471
877.546	23398
877.674	23410
877.802	23387
877.93	23402
878.058	23448
878.185	23223
878.313	23387
878.441	23448
878.568	23235
878.696	23284
878.824	23402
878.951	23482
879.079	23604
879.206	23752
879.333	23562
879.461	23478
879.588	23516
879.715	23589
879.842	23714
879.97	23436
880.097	23204
880.224	23140
880.351	23360
880.478	23178
880.605	23181
880.732	23261
880.859	23474
880.986	23185
881.112	23303
881.239	23090
881.366	22938
881.493	23025
881.619	22885
881.746	22828
881.872	22820
881.999	22736
882.125	22790
882.252	22843
882.378	22698
882.505	22911
882.631	22713
882.757	22402
882.883	22630
883.01	22622
883.136	22485
883.262	22367
883.388	22348
883.514	22489
883.64	22424
883.766	22402
883.892	22333
884.018	22306
884.143	22303
884.269	22618
884.395	22150
884.52	22120
884.646	22063
884.772	22219
884.897	22063
885.023	22200
885.148	22139
885.274	22181
885.399	22196
885.524	22074
885.65	22112
885.775	22055
885.9	21956
886.025	22223
886.15	22272
886.275	22112
886.4	22048
886.525	22105
886.65	22055
886.775	22025
886.9	22352
887.025	22299
887.149	21972
887.274	21857
887.399	21911
887.523	21964
887.648	21819
887.773	21644
887.897	22040
888.021	21899
888.146	21812
888.27	21884
888.395	21987
888.519	21930
888.643	21861
888.767	21857
888.891	21736
889.015	21500
889.139	21728
889.263	21762
889.387	21835
889.511	21838
889.635	21903
889.759	21679
889.883	21686
890.006	21595
890.13	21739
890.254	21504
890.377	21679
890.501	21492
890.624	21370
890.748	21515
890.871	21329
890.995	21184
891.118	21180
891.241	21188
891.364	21207
891.488	21332
891.611	21161
891.734	21176
891.857	21294
891.98	21222
892.103	21283
892.226	21188
892.349	21138
892.471	21127
892.594	21157
892.717	21135
892.839	21161
892.962	20998
893.085	21131
893.207	21009
893.33	20975
893.452	21096
893.575	21100
893.697	21138
893.819	21226
893.941	21264
894.064	21161
894.186	21009
894.308	20990
894.43	21135
894.552	21256
894.674	21184
894.796	20986
894.918	21138
895.04	21024
895.161	21188
895.283	21176
895.405	21028
895.526	21039
895.648	21001
895.769	21100
895.891	21100
896.012	21100
896.134	21116
896.255	21169
896.376	20994
896.498	21062
896.619	21096
896.74	21176
896.861	21104
896.982	21329
897.103	21504
897.224	21291
897.345	21405
897.466	21230
897.587	21245
897.708	21416
897.828	21317
897.949	21233
898.07	21165
898.19	21329
898.311	21405
898.431	21173
898.552	21256
898.672	21283
898.792	21302
898.913	21241
899.033	21245
899.153	20998
899.273	20861
899.393	20937
899.513	21077
899.633	21001
899.753	20971
899.873	20929
899.993	20982
900.113	20876
900.232	20982
900.352	20956
900.472	20937
900.591	20868
900.711	20830
900.83	20693
900.95	20944
901.069	20948
901.189	20579
901.308	20438
901.427	20366
901.546	20389
901.665	20377
901.784	20454
901.904	20244
902.023	20027
902.141	19997
902.26	19993
902.379	19978
902.498	19940
902.617	19712
902.735	19921
902.854	19772
902.973	19700
903.091	19521
903.21	19480
903.328	19499
903.446	19548
903.565	19441
903.683	19449
903.801	19225
903.919	19346
904.038	19198
904.156	19061
904.274	19034
904.392	19099
904.51	19031
904.627	19000
904.745	19171
904.863	19076
904.981	18886
905.098	18696
905.216	18745
905.334	18772
905.451	18764
905.569	18741
905.686	18798
905.803	18757
905.921	18460
906.038	18726
906.155	18502
906.272	18528
906.389	18464
906.506	18209
906.623	18391
906.74	18129
906.857	18076
906.974	18148
907.091	18391
907.208	18376
907.324	18266
907.441	18182
907.557	17923
907.674	17999
907.79	17977
907.907	17954
908.023	17969
908.139	17977
908.256	17855
908.372	17851
908.488	17904
908.604	17623
908.72	17630
908.836	17726
908.952	17638
909.068	17710
909.184	17718
909.3	17672
909.415	17646
909.531	17623
909.647	17284
909.762	17459
909.878	17254
909.993	17303
910.108	17360
910.224	17239
910.339	17322
910.454	17265
910.57	17242
910.685	17090
910.8	17414
910.915	17288
911.03	17170
911.145	16995
911.259	17033
911.374	16980
911.489	16862
911.604	16858
911.718	16656
911.833	16721
911.947	16660
912.062	16489
912.176	16656
912.291	16626
912.405	16641
912.519	16744
912.633	16942
912.748	16698
912.862	16725
912.976	16561
913.09	16348
913.204	16546
913.318	16531
913.431	16573
913.545	16577
913.659	16592
913.772	16462
913.886	16303
914	16219
914.113	16337
914.226	16481
914.34	16299
914.453	16196
914.566	16303
914.68	16131
914.793	16147
914.906	15987
915.019	15911
915.132	15842
915.245	15994
915.358	15857
915.47	15873
915.583	15915
915.696	15812
915.809	16006
915.921	15998
916.034	15907
916.146	15675
916.259	15804
916.371	15755
916.483	15808
916.595	15747
916.708	15766
916.82	15667
916.932	15671
917.044	15644
917.156	15587
917.268	15443
917.38	15595
917.491	15477
917.603	15447
917.715	15603
917.826	15561
917.938	15386
918.049	15325
918.161	15401
918.272	15557
918.384	15610
918.495	15313
918.606	15306
918.717	15150
918.828	15264
918.939	15218
919.05	15214
919.161	15226
919.272	14918
919.383	15055
919.494	15252
919.604	15515
919.715	15214
919.826	15195
919.936	15272
920.047	15294
920.157	15131
920.267	15378
920.378	15165
920.488	15127
920.598	15344
920.708	15477
920.818	15325
920.928	15294
921.038	15450
921.148	15420
921.258	15169
921.368	15009
921.477	14948
921.587	14891
921.697	14838
921.806	14982
921.916	14788
922.025	14598
922.134	14514
922.244	14450
922.353	14560
922.462	14389
922.571	14370
922.68	14233
922.789	14168
922.898	14263
923.007	14123
923.116	14282
923.224	14195
923.333	14218
923.442	14161
923.55	13906
923.659	14035
923.767	14035
923.876	13917
923.984	13936
924.092	13906
924.201	13955
924.309	13887
924.417	13898
924.525	13837
924.633	13898
924.741	14697
924.849	13537
924.956	13799
925.064	13620
925.172	13578
925.279	13594
925.387	13616
925.494	13556
925.602	13769
925.709	13651
925.816	13525
925.924	13533
926.031	13578
926.138	13441
926.245	13567
926.352	13396
926.459	13499
926.566	13586
926.673	13415
926.779	13331
926.886	13316
926.993	13027
927.099	13103
927.206	13118
927.312	13034
927.419	13152
927.525	13129
927.631	13095
927.737	12947
927.843	12924
927.95	12867
928.056	12943
928.162	12894
928.267	12996
928.373	13476
928.479	12924
928.585	12738
928.69	12810
928.796	12924
928.901	12779
929.007	12566
929.112	12703
929.218	12783
929.323	12604
929.428	12616
929.533	12677
929.638	12513
929.743	12559
929.848	12623
929.953	12585
930.058	12479
930.163	12353
930.267	12270
930.372	12460
930.477	12239
930.581	12486
930.685	12330
930.79	12296
930.894	12216
930.998	12194
931.103	12262
931.207	12022
931.311	11817
931.415	11680
931.519	11512
931.623	11611
