Data from test_V78500241_1209.txt Node
Date: Fri Mar 25 15:50:10 CST 2022
User: usil
Spectrometer: V785-0024
Trigger mode: 0
Integration Time (sec): 4.000000E-1
Scans to average: 1
Nonlinearity correction enabled: false
Boxcar width: 0
Storing dark spectrum: false
XAxis mode: Wavelengths
Number of Pixels in Spectrum: 1024
>>>>>Begin Spectral Data<<<<<
801.071	28660
801.214	28588
801.356	28409
801.499	28276
801.641	28173
801.783	28177
801.926	28188
802.068	28177
802.211	28166
802.353	28082
802.496	28067
802.638	27884
802.78	27960
802.923	27857
803.065	27675
803.208	27892
803.35	27930
803.492	28021
803.635	28086
803.777	28093
803.919	27945
804.061	28325
804.204	28284
804.346	28013
804.488	28185
804.63	28109
804.773	28048
804.915	28204
805.057	28348
805.199	28067
805.341	28257
805.483	28303
805.626	28352
805.768	28398
805.91	28386
806.052	28287
806.194	28325
806.336	28596
806.478	28379
806.62	28451
806.762	28474
806.904	28618
807.046	28904
807.188	28805
807.33	28835
807.472	28850
807.614	28767
807.756	28626
807.898	28713
808.04	28656
808.182	28500
808.324	28637
808.465	28683
808.607	28698
808.749	28957
808.891	28999
809.033	29200
809.174	29086
809.316	28881
809.458	28946
809.6	28976
809.741	29022
809.883	29090
810.025	29227
810.166	29360
810.308	29208
810.45	29387
810.591	29166
810.733	29132
810.875	29014
811.016	28953
811.158	29064
811.299	29109
811.441	29098
811.582	29349
811.724	28957
811.865	29029
812.007	29041
812.148	28938
812.29	29105
812.431	29189
812.573	29307
812.714	29482
812.855	29535
812.997	29714
813.138	29748
813.279	29562
813.421	29630
813.562	29547
813.703	29330
813.845	29356
813.986	29147
814.127	28828
814.268	28782
814.41	28683
814.551	28847
814.692	28767
814.833	28744
814.974	28672
815.115	28771
815.256	28577
815.397	28588
815.539	28637
815.68	28489
815.821	28394
815.962	28516
816.103	28519
816.244	28401
816.385	28413
816.526	28276
816.666	28128
816.807	28154
816.948	28055
817.089	28059
817.23	28181
817.371	28063
817.512	27956
817.653	27983
817.793	27991
817.934	28067
818.075	27941
818.216	28025
818.356	27956
818.497	27869
818.638	27816
818.778	27835
818.919	27774
819.06	27899
819.2	27972
819.341	27964
819.481	28124
819.622	28265
819.762	28405
819.903	28242
820.043	28348
820.184	28287
820.324	28150
820.465	28196
820.605	28234
820.746	28177
820.886	28116
821.026	28310
821.167	28128
821.307	28124
821.447	28029
821.588	27914
821.728	27789
821.868	27698
822.008	27599
822.149	27549
822.289	27443
822.429	27294
822.569	27184
822.709	27180
822.849	26998
822.99	27096
823.13	27036
823.27	26887
823.41	26895
823.55	26689
823.69	26826
823.83	26883
823.97	26769
824.11	26739
824.25	26583
824.389	26689
824.529	26724
824.669	26716
824.809	26872
824.949	26834
825.089	26743
825.228	26819
825.368	26511
825.508	26423
825.648	26644
825.787	26537
825.927	26598
826.067	26533
826.206	26636
826.346	26758
826.485	26712
826.625	26568
826.765	26697
826.904	26629
827.044	26347
827.183	26282
827.323	26275
827.462	26396
827.601	26301
827.741	26328
827.88	26278
828.02	26142
828.159	26180
828.298	26309
828.437	26404
828.577	26263
828.716	26465
828.855	26172
828.994	25978
829.134	25864
829.273	26153
829.412	25909
829.551	25898
829.69	25986
829.829	26039
829.968	26100
830.107	25997
830.246	26020
830.385	25993
830.524	25917
830.663	25788
830.802	25609
830.941	25620
831.08	25575
831.219	25567
831.357	25563
831.496	25826
831.635	25559
831.774	25537
831.913	25548
832.051	25392
832.19	25350
832.329	25430
832.467	25274
832.606	25240
832.744	25202
832.883	25259
833.022	25270
833.16	25168
833.299	25301
833.437	25346
833.576	25285
833.714	25217
833.852	25255
833.991	25438
834.129	25525
834.267	25464
834.406	25282
834.544	25350
834.682	25362
834.821	25312
834.959	25502
835.097	25160
835.235	25308
835.373	25301
835.511	25304
835.65	25198
835.788	25190
835.926	25152
836.064	25012
836.202	24939
836.34	25095
836.478	25255
836.615	25050
836.753	25244
836.891	25179
837.029	25301
837.167	25103
837.305	25015
837.443	25031
837.58	25057
837.718	24928
837.856	25031
837.993	25008
838.131	24909
838.269	24890
838.406	24833
838.544	24810
838.681	24635
838.819	24574
838.956	24403
839.094	24391
839.231	24471
839.369	24673
839.506	24905
839.643	24665
839.781	24505
839.918	24330
840.055	24330
840.193	24296
840.33	24334
840.467	24437
840.604	24452
840.742	24585
840.879	24213
841.016	24365
841.153	24239
841.29	24300
841.427	24270
841.564	24391
841.701	24372
841.838	24277
841.975	24334
842.112	24361
842.249	24079
842.385	24068
842.522	24395
842.659	24273
842.796	24125
842.933	24251
843.069	24125
843.206	24121
843.343	24106
843.479	23939
843.616	24095
843.752	23904
843.889	23855
844.025	23980
844.162	23775
844.298	23923
844.435	23802
844.571	23805
844.708	23840
844.844	24068
844.98	23950
845.117	23965
845.253	23824
845.389	23726
845.525	23756
845.661	23760
845.798	23642
845.934	23657
846.07	23653
846.206	23676
846.342	23767
846.478	23577
846.614	23383
846.75	23166
846.886	23277
847.022	23391
847.158	23387
847.294	23391
847.429	23349
847.565	23326
847.701	23501
847.837	23018
847.972	23105
848.108	23200
848.244	23029
848.379	22908
848.515	22984
848.65	22793
848.786	22908
848.921	22869
849.057	23048
849.192	23018
849.328	22946
849.463	22805
849.598	22816
849.734	22911
849.869	22736
850.004	22778
850.14	22740
850.275	22702
850.41	22607
850.545	22569
850.68	22588
850.815	22713
850.95	22687
851.085	22862
851.22	22877
851.355	22645
851.49	22694
851.625	22557
851.76	22691
851.895	22554
852.03	22580
852.165	22645
852.299	22668
852.434	22774
852.569	22725
852.703	22736
852.838	22596
852.973	22706
853.107	22740
853.242	22599
853.376	22512
853.511	22352
853.645	22470
853.78	22622
853.914	22523
854.048	22535
854.183	22485
854.317	22557
854.451	22725
854.585	22424
854.72	22478
854.854	22481
854.988	22478
855.122	22557
855.256	22192
855.39	22348
855.524	22538
855.658	22573
855.792	22535
855.926	22451
856.06	22573
856.194	22569
856.327	22428
856.461	22447
856.595	22436
856.729	22402
856.862	22554
856.996	22405
857.13	22645
857.263	22561
857.397	22493
857.53	22497
857.664	22538
857.797	22630
857.931	22618
858.064	22451
858.197	22531
858.331	22516
858.464	22466
858.597	22356
858.731	22447
858.864	22402
858.997	22459
859.13	22493
859.263	22531
859.396	22500
859.529	22481
859.662	22421
859.795	22390
859.928	22451
860.061	22519
860.194	22611
860.327	22417
860.46	22470
860.592	22611
860.725	22668
860.858	22538
860.99	22436
861.123	22440
861.256	22386
861.388	22531
861.521	23239
861.653	22280
861.786	22185
861.918	22409
862.05	22375
862.183	22287
862.315	22398
862.447	22489
862.58	22405
862.712	22131
862.844	22185
862.976	22238
863.108	22200
863.24	22462
863.372	22234
863.504	22238
863.636	22131
863.768	22192
863.9	22363
864.032	22059
864.164	22158
864.296	22162
864.428	22166
864.559	22185
864.691	22192
864.823	22219
864.954	22063
865.086	22101
865.217	22044
865.349	21987
865.48	22048
865.612	22040
865.743	21998
865.875	21911
866.006	22116
866.137	22093
866.269	21937
866.4	21903
866.531	22029
866.662	21972
866.793	21903
866.924	22017
867.055	21975
867.186	22063
867.317	21960
867.448	21972
867.579	21960
867.71	21895
867.841	21892
867.972	22055
868.103	21983
868.233	21819
868.364	21930
868.495	22143
868.625	22268
868.756	22303
868.886	22147
869.017	22272
869.147	22348
869.278	22257
869.408	22230
869.539	22150
869.669	22261
869.799	22265
869.929	22352
870.06	22295
870.19	22599
870.32	22649
870.45	22535
870.58	22618
870.71	22577
870.84	22656
870.97	22660
871.1	22569
871.23	22782
871.36	22824
871.489	22668
871.619	22710
871.749	22869
871.879	22767
872.008	22843
872.138	22831
872.267	22812
872.397	22687
872.526	22588
872.656	22592
872.785	22694
872.915	22866
873.044	22828
873.173	22900
873.303	22873
873.432	22915
873.561	22881
873.69	22843
873.819	22831
873.948	22816
874.077	22934
874.206	22748
874.335	22889
874.464	22847
874.593	23060
874.722	23075
874.851	23029
874.979	22980
875.108	23132
875.237	22957
875.365	23056
875.494	22923
875.623	23109
875.751	23006
875.88	23041
876.008	23056
876.136	23318
876.265	23486
876.393	23497
876.521	23512
876.65	23596
876.778	23395
876.906	23292
877.034	23303
877.162	23433
877.29	23246
877.418	23440
877.546	23444
877.674	23402
877.802	23368
877.93	23425
878.058	23254
878.185	23269
878.313	23387
878.441	23284
878.568	23242
878.696	23452
878.824	23383
878.951	23585
879.079	23516
879.206	23756
879.333	23562
879.461	23292
879.588	23505
879.715	23467
879.842	23726
879.97	23505
880.097	23265
880.224	23227
880.351	23280
880.478	23178
880.605	23151
880.732	23235
880.859	23433
880.986	23208
881.112	23242
881.239	23014
881.366	22995
881.493	22911
881.619	22782
881.746	22835
881.872	22691
881.999	22801
882.125	22713
882.252	22702
882.378	22824
882.505	22873
882.631	22790
882.757	22470
882.883	22538
883.01	22497
883.136	22337
883.262	22253
883.388	22223
883.514	22409
883.64	22497
883.766	22284
883.892	22257
884.018	22207
884.143	22382
884.269	22497
884.395	22169
884.52	21964
884.646	22116
884.772	21934
884.897	21915
885.023	22055
885.148	22226
885.274	22230
885.399	22169
885.524	22048
885.65	22055
885.775	22135
885.9	21972
886.025	22158
886.15	22070
886.275	21998
886.4	21861
886.525	22063
886.65	21953
886.775	22029
886.9	22116
887.025	22325
887.149	22048
887.274	21797
887.399	21926
887.523	21956
887.648	21709
887.773	21724
887.897	21926
888.021	21903
888.146	21732
888.27	21789
888.395	21861
888.519	21739
888.643	21907
888.767	21911
888.891	21789
889.015	21709
889.139	21736
889.263	21557
889.387	21679
889.511	21884
889.635	21694
889.759	21675
889.883	21557
890.006	21553
890.13	21728
890.254	21576
890.377	21641
890.501	21389
890.624	21351
890.748	21370
890.871	21317
890.995	21043
891.118	21104
891.241	21249
891.364	21241
891.488	21218
891.611	21211
891.734	21138
891.857	21310
891.98	21226
892.103	21104
892.226	21093
892.349	21028
892.471	20990
892.594	21062
892.717	21081
892.839	21112
892.962	21081
893.085	21081
893.207	21047
893.33	20929
893.452	20979
893.575	21036
893.697	21112
893.819	21211
893.941	21195
894.064	21131
894.186	20952
894.308	20868
894.43	21024
894.552	21131
894.674	21077
894.796	20960
894.918	21028
895.04	21024
895.161	21070
895.283	21127
895.405	21039
895.526	21020
895.648	21062
895.769	21070
895.891	21058
896.012	21051
896.134	21074
896.255	21020
896.376	20979
896.498	21100
896.619	21142
896.74	21142
896.861	21066
896.982	21428
897.103	21500
897.224	21367
897.345	21279
897.466	21123
897.587	21176
897.708	21287
897.828	21275
897.949	21298
898.07	21116
898.19	21024
898.311	21332
898.431	21138
898.552	21325
898.672	21351
898.792	21363
898.913	21237
899.033	21058
899.153	21024
899.273	20925
899.393	20963
899.513	21058
899.633	20998
899.753	21020
899.873	20979
899.993	21074
900.113	20788
900.232	20963
900.352	20895
900.472	20720
900.591	20758
900.711	20705
900.83	20754
900.95	20819
901.069	20800
901.189	20609
901.308	20370
901.427	20320
901.546	20355
901.665	20313
901.784	20328
901.904	20145
902.023	20138
902.141	19909
902.26	19849
902.379	19963
902.498	19887
902.617	19860
902.735	19871
902.854	19833
902.973	19761
903.091	19457
903.21	19426
903.328	19460
903.446	19358
903.565	19251
903.683	19232
903.801	19228
903.919	19327
904.038	19148
904.156	19008
904.274	19076
904.392	18962
904.51	19027
904.627	19008
904.745	18993
904.863	19061
904.981	18791
905.098	18833
905.216	18677
905.334	18715
905.451	18760
905.569	18627
905.686	18757
905.803	18768
905.921	18494
906.038	18551
906.155	18464
906.272	18410
906.389	18467
906.506	18190
906.623	18266
906.74	18194
906.857	18121
906.974	18186
907.091	18190
907.208	18315
907.324	18197
907.441	18110
907.557	18026
907.674	17920
907.79	17931
907.907	17866
908.023	17965
908.139	17969
908.256	17805
908.372	17802
908.488	17760
908.604	17604
908.72	17551
908.836	17657
908.952	17619
909.068	17585
909.184	17802
909.3	17600
909.415	17695
909.531	17691
909.647	17330
909.762	17391
909.878	17360
909.993	17421
910.108	17334
910.224	17383
910.339	17349
910.454	17136
910.57	17105
910.685	17033
910.8	17356
910.915	17208
911.03	17147
911.145	16968
911.259	16908
911.374	16930
911.489	16873
911.604	16866
911.718	16580
911.833	16698
911.947	16649
912.062	16497
912.176	16691
912.291	16759
912.405	16710
912.519	16873
912.633	16801
912.748	16755
912.862	16706
912.976	16500
913.09	16371
913.204	16421
913.318	16504
913.431	16592
913.545	16565
913.659	16451
913.772	16459
913.886	16325
914	16287
914.113	16253
914.226	16341
914.34	16230
914.453	16112
914.566	16295
914.68	16169
914.793	16032
914.906	15854
915.019	15873
915.132	15751
915.245	15880
915.358	15857
915.47	15934
915.583	15747
915.696	15915
915.809	15956
915.921	15968
916.034	15720
916.146	15770
916.259	15789
916.371	15755
916.483	15690
916.595	15728
916.708	15591
916.82	15705
916.932	15561
917.044	15603
917.156	15572
917.268	15485
917.38	15485
917.491	15504
917.603	15439
917.715	15481
917.826	15610
917.938	15344
918.049	15245
918.161	15439
918.272	15447
918.384	15458
918.495	15332
918.606	15233
918.717	15188
918.828	15325
918.939	15249
919.05	15184
919.161	15222
919.272	14933
919.383	15108
919.494	15154
919.604	15462
919.715	15233
919.826	15077
919.936	15104
920.047	15214
920.157	15222
920.267	15336
920.378	15138
920.488	15100
920.598	15424
920.708	15397
920.818	15230
920.928	15302
921.038	15469
921.148	15378
921.258	15020
921.368	15013
921.477	14929
921.587	14899
921.697	14731
921.806	14845
921.916	14743
922.025	14568
922.134	14583
922.244	14526
922.353	14583
922.462	14298
922.571	14309
922.68	14172
922.789	14191
922.898	14176
923.007	14153
923.116	14195
923.224	14149
923.333	14115
923.442	14043
923.55	13890
923.659	14069
923.767	14069
923.876	13978
923.984	13959
924.092	13875
924.201	13967
924.309	13906
924.417	13826
924.525	13776
924.633	13791
924.741	14571
924.849	13605
924.956	13708
925.064	13613
925.172	13510
925.279	13556
925.387	13544
925.494	13533
925.602	13582
925.709	13575
925.816	13400
925.924	13571
926.031	13639
926.138	13537
926.245	13445
926.352	13331
926.459	13449
926.566	13552
926.673	13362
926.779	13228
926.886	13297
926.993	13198
927.099	13156
927.206	13008
927.312	12970
927.419	13149
927.525	12977
927.631	13156
927.737	12905
927.843	12958
927.95	12833
928.056	12924
928.162	12875
928.267	12973
928.373	13636
928.479	13038
928.585	12760
928.69	12795
928.796	12684
928.901	12726
929.007	12665
929.112	12738
929.218	12719
929.323	12665
929.428	12570
929.533	12772
929.638	12517
929.743	12498
929.848	12597
929.953	12551
930.058	12502
930.163	12292
930.267	12319
930.372	12403
930.477	12194
930.581	12391
930.685	12372
930.79	12159
930.894	12216
930.998	12182
931.103	12213
931.207	11954
931.311	11828
931.415	11699
931.519	11547
931.623	11490
