Data from test_V78500241_626.txt Node
Date: Fri Mar 25 15:46:08 CST 2022
User: usil
Spectrometer: V785-0024
Trigger mode: 0
Integration Time (sec): 4.000000E-1
Scans to average: 1
Nonlinearity correction enabled: false
Boxcar width: 0
Storing dark spectrum: false
XAxis mode: Wavelengths
Number of Pixels in Spectrum: 1024
>>>>>Begin Spectral Data<<<<<
801.071	27945
801.214	27918
801.356	27576
801.499	27694
801.641	27549
801.783	27481
801.926	27595
802.068	27488
802.211	27389
802.353	27283
802.496	27184
802.638	27184
802.78	27108
802.923	27214
803.065	27138
803.208	27116
803.35	27150
803.492	27378
803.635	27252
803.777	27313
803.919	27256
804.061	27637
804.204	27408
804.346	27226
804.488	27298
804.63	27256
804.773	27214
804.915	27431
805.057	27408
805.199	27310
805.341	27435
805.483	27492
805.626	27450
805.768	27351
805.91	27500
806.052	27580
806.194	27435
806.336	27610
806.478	27450
806.62	27359
806.762	27682
806.904	27850
807.046	27888
807.188	27907
807.33	27793
807.472	27857
807.614	27823
807.756	27808
807.898	27827
808.04	27633
808.182	27751
808.324	27568
808.465	27641
808.607	27960
808.749	28158
808.891	28120
809.033	28291
809.174	28204
809.316	28093
809.458	28306
809.6	28226
809.741	28246
809.883	28287
810.025	28287
810.166	28428
810.308	28421
810.45	28318
810.591	28238
810.733	28135
810.875	27964
811.016	27960
811.158	27998
811.299	28234
811.441	28219
811.582	28295
811.724	28192
811.865	28029
812.007	28090
812.148	28101
812.29	28158
812.431	28280
812.573	28485
812.714	28538
812.855	28649
812.997	28702
813.138	28900
813.279	28858
813.421	28630
813.562	28660
813.703	28546
813.845	28310
813.986	28128
814.127	27812
814.268	27762
814.41	27842
814.551	27816
814.692	27983
814.833	27686
814.974	27827
815.115	27869
815.256	27656
815.397	27762
815.539	27557
815.68	27648
815.821	27481
815.962	27538
816.103	27549
816.244	27447
816.385	27332
816.526	27355
816.666	27272
816.807	27051
816.948	27173
817.089	27173
817.23	27119
817.371	27142
817.512	27116
817.653	27024
817.793	27074
817.934	27112
818.075	27203
818.216	27165
818.356	27001
818.497	26883
818.638	26895
818.778	26834
818.919	26826
819.06	26838
819.2	27077
819.341	27028
819.481	26921
819.622	27119
819.762	27355
819.903	27344
820.043	27344
820.184	27241
820.324	27268
820.465	27389
820.605	27233
820.746	27268
820.886	27058
821.026	27013
821.167	27279
821.307	27207
821.447	27127
821.588	26975
821.728	26960
821.868	26769
822.008	26564
822.149	26537
822.289	26457
822.429	26343
822.569	26240
822.709	26164
822.849	26069
822.99	26092
823.13	25986
823.27	26119
823.41	25883
823.55	25712
823.69	25776
823.83	25738
823.97	25849
824.11	25635
824.25	25575
824.389	25655
824.529	25864
824.669	25704
824.809	25788
824.949	25841
825.089	25856
825.228	25738
825.368	25582
825.508	25674
825.648	25548
825.787	25651
825.927	25670
826.067	25567
826.206	25674
826.346	25689
826.485	25582
826.625	25632
826.765	25586
826.904	25563
827.044	25270
827.183	25362
827.323	25388
827.462	25346
827.601	25259
827.741	25217
827.88	25304
828.02	25285
828.159	25187
828.298	25278
828.437	25206
828.577	25255
828.716	25415
828.855	25209
828.994	24935
829.134	25072
829.273	25050
829.412	25012
829.551	24890
829.69	25023
829.829	25015
829.968	24897
830.107	25148
830.246	24897
830.385	24817
830.524	24886
830.663	24711
830.802	24802
830.941	24525
831.08	24559
831.219	24623
831.357	24616
831.496	24730
831.635	24601
831.774	24429
831.913	24407
832.051	24296
832.19	24296
832.329	24433
832.467	24064
832.606	24224
832.744	24197
832.883	24262
833.022	24136
833.16	24254
833.299	24205
833.437	24197
833.576	24346
833.714	24262
833.852	24357
833.991	24292
834.129	24319
834.267	24429
834.406	24334
834.544	24372
834.682	24311
834.821	24365
834.959	24464
835.097	24319
835.235	24334
835.373	24292
835.511	24311
835.65	24079
835.788	24167
835.926	23939
836.064	23885
836.202	24076
836.34	24220
836.478	24262
836.615	24194
836.753	24155
836.891	24121
837.029	24163
837.167	24057
837.305	24030
837.443	24068
837.58	23984
837.718	24041
837.856	24117
837.993	24068
838.131	23984
838.269	23954
838.406	23851
838.544	23885
838.681	23665
838.819	23680
838.956	23398
839.094	23360
839.231	23429
839.369	23611
839.506	23775
839.643	23634
839.781	23349
839.918	23376
840.055	23398
840.193	23307
840.33	23398
840.467	23417
840.604	23478
840.742	23684
840.879	23151
841.016	23288
841.153	23307
841.29	23562
841.427	23425
841.564	23258
841.701	23337
841.838	23277
841.975	23273
842.112	23227
842.249	23155
842.385	23117
842.522	23311
842.659	23223
842.796	23079
842.933	23128
843.069	22980
843.206	23003
843.343	23132
843.479	23105
843.616	23170
843.752	22786
843.889	22915
844.025	23010
844.162	22801
844.298	22930
844.435	22911
844.571	22877
844.708	22927
844.844	22949
844.98	22961
845.117	22942
845.253	22698
845.389	22790
845.525	22816
845.661	22691
845.798	22634
845.934	22759
846.07	22550
846.206	22592
846.342	22820
846.478	22637
846.614	22417
846.75	22344
846.886	22120
847.022	22497
847.158	22325
847.294	22337
847.429	22409
847.565	22367
847.701	22542
847.837	22002
847.972	22112
848.108	22006
848.244	22105
848.379	21975
848.515	21899
848.65	21808
848.786	21972
848.921	22101
849.057	21960
849.192	21880
849.328	21930
849.463	21979
849.598	21922
849.734	21884
849.869	21785
850.004	21633
850.14	21751
850.275	21671
850.41	21671
850.545	21637
850.68	21724
850.815	21698
850.95	21808
851.085	21846
851.22	21899
851.355	21759
851.49	21751
851.625	21648
851.76	21709
851.895	21583
852.03	21538
852.165	21660
852.299	21663
852.434	21808
852.569	21717
852.703	21576
852.838	21648
852.973	21827
853.107	21869
853.242	21629
853.376	21462
853.511	21325
853.645	21488
853.78	21629
853.914	21622
854.048	21530
854.183	21431
854.317	21542
854.451	21614
854.585	21542
854.72	21462
854.854	21477
854.988	21523
855.122	21587
855.256	21397
855.39	21477
855.524	21564
855.658	21591
855.792	21511
855.926	21466
856.06	21526
856.194	21549
856.327	21549
856.461	21435
856.595	21443
856.729	21534
856.862	21671
856.996	21610
857.13	21561
857.263	21648
857.397	21599
857.53	21462
857.664	21526
857.797	21671
857.931	21709
858.064	21511
858.197	21705
858.331	21458
858.464	21420
858.597	21462
858.731	21408
858.864	21416
858.997	21393
859.13	21595
859.263	21549
859.396	21618
859.529	21416
859.662	21557
859.795	21351
859.928	21530
860.061	21622
860.194	21656
860.327	21450
860.46	21572
860.592	21656
860.725	21663
860.858	21652
860.99	21492
861.123	21386
861.256	21492
861.388	21424
861.521	22246
861.653	21416
861.786	21264
861.918	21450
862.05	21504
862.183	21477
862.315	21370
862.447	21515
862.58	21389
862.712	21150
862.844	21169
862.976	21287
863.108	21405
863.24	21477
863.372	21237
863.504	21233
863.636	21214
863.768	21161
863.9	21176
864.032	21146
864.164	21218
864.296	21252
864.428	21363
864.559	21268
864.691	21291
864.823	21192
864.954	21245
865.086	21169
865.217	21203
865.349	21028
865.48	21135
865.612	21066
865.743	21211
865.875	21096
866.006	21055
866.137	21070
866.269	21074
866.4	20998
866.531	21096
866.662	21100
866.793	21066
866.924	20960
867.055	21119
867.186	20952
867.317	20967
867.448	20937
867.579	21001
867.71	20929
867.841	20944
867.972	20979
868.103	21013
868.233	21036
868.364	21138
868.495	21024
868.625	21359
868.756	21321
868.886	21135
869.017	21291
869.147	21420
869.278	21435
869.408	21230
869.539	21298
869.669	21397
869.799	21313
869.929	21428
870.06	21420
870.19	21583
870.32	21595
870.45	21770
870.58	21701
870.71	21823
870.84	21789
870.97	21663
871.1	21488
871.23	21709
871.36	21850
871.489	21743
871.619	21865
871.749	22013
871.879	21960
872.008	21903
872.138	21747
872.267	21774
872.397	21812
872.526	21747
872.656	21732
872.785	21713
872.915	22006
873.044	21934
873.173	21880
873.303	21873
873.432	21987
873.561	21930
873.69	21926
873.819	21869
873.948	22040
874.077	21895
874.206	21934
874.335	21876
874.464	21968
874.593	22147
874.722	22078
874.851	22154
874.979	22051
875.108	22192
875.237	22032
875.365	21922
875.494	22002
875.623	22105
875.751	22150
875.88	22147
876.008	22215
876.136	22276
876.265	22550
876.393	22634
876.521	22577
876.65	22443
876.778	22470
876.906	22459
877.034	22462
877.162	22485
877.29	22417
877.418	22348
877.546	22447
877.674	22538
877.802	22352
877.93	22390
878.058	22413
878.185	22223
878.313	22382
878.441	22443
878.568	22249
878.696	22367
878.824	22554
878.951	22584
879.079	22691
879.206	22740
879.333	22664
879.461	22440
879.588	22584
879.715	22713
879.842	22626
879.97	22569
880.097	22169
880.224	22291
880.351	22306
880.478	22276
880.605	22265
880.732	22390
880.859	22577
880.986	22295
881.112	22272
881.239	22101
881.366	22051
881.493	21945
881.619	21842
881.746	21892
881.872	21770
881.999	21964
882.125	21762
882.252	21831
882.378	21865
882.505	21949
882.631	21652
882.757	21610
882.883	21561
883.01	21690
883.136	21507
883.262	21549
883.388	21389
883.514	21591
883.64	21534
883.766	21515
883.892	21306
884.018	21340
884.143	21549
884.269	21728
884.395	21279
884.52	21211
884.646	21154
884.772	21119
884.897	21062
885.023	21199
885.148	21336
885.274	21287
885.399	21382
885.524	21218
885.65	21176
885.775	21272
885.9	21085
886.025	21370
886.15	21173
886.275	21165
886.4	21131
886.525	21123
886.65	21146
886.775	21043
886.9	21260
887.025	21397
887.149	21058
887.274	20929
887.399	21017
887.523	20914
887.648	20804
887.773	20857
887.897	21017
888.021	21005
888.146	20979
888.27	21089
888.395	21024
888.519	21032
888.643	21020
888.767	20887
888.891	20921
889.015	20838
889.139	20891
889.263	20842
889.387	20834
889.511	20872
889.635	20902
889.759	20746
889.883	20758
890.006	20891
890.13	20861
890.254	20651
890.377	20769
890.501	20503
890.624	20438
890.748	20609
890.871	20374
890.995	20427
891.118	20282
891.241	20442
891.364	20317
891.488	20427
891.611	20298
891.734	20324
891.857	20408
891.98	20282
892.103	20374
892.226	20191
892.349	20248
892.471	20134
892.594	20202
892.717	20286
892.839	20180
892.962	20252
893.085	20351
893.207	20142
893.33	20122
893.452	20084
893.575	20259
893.697	20210
893.819	20317
893.941	20427
894.064	20339
894.186	20256
894.308	20073
894.43	20240
894.552	20396
894.674	20370
894.796	20153
894.918	20172
895.04	20214
895.161	20294
895.283	20370
895.405	20145
895.526	20244
895.648	20339
895.769	20252
895.891	20233
896.012	20358
896.134	20324
896.255	20164
896.376	20142
896.498	20237
896.619	20263
896.74	20252
896.861	20298
896.982	20526
897.103	20644
897.224	20564
897.345	20503
897.466	20423
897.587	20404
897.708	20457
897.828	20488
897.949	20415
898.07	20153
898.19	20412
898.311	20613
898.431	20434
898.552	20423
898.672	20461
898.792	20530
898.913	20408
899.033	20400
899.153	20244
899.273	20202
899.393	20233
899.513	20149
899.633	20248
899.753	20199
899.873	20168
899.993	20305
900.113	20005
900.232	20130
900.352	19963
900.472	20088
900.591	19928
900.711	20069
900.83	20005
900.95	20062
901.069	20138
901.189	19902
901.308	19700
901.427	19510
901.546	19499
901.665	19525
901.784	19529
901.904	19396
902.023	19343
902.141	19160
902.26	19061
902.379	19053
902.498	19175
902.617	18985
902.735	19069
902.854	19069
902.973	19004
903.091	18730
903.21	18692
903.328	18722
903.446	18582
903.565	18353
903.683	18483
903.801	18422
903.919	18506
904.038	18486
904.156	18304
904.274	18483
904.392	18243
904.51	18353
904.627	18243
904.745	18350
904.863	18262
904.981	18114
905.098	18072
905.216	18003
905.334	18007
905.451	17992
905.569	17999
905.686	17988
905.803	17904
905.921	17733
906.038	17828
906.155	17699
906.272	17668
906.389	17676
906.506	17535
906.623	17581
906.74	17493
906.857	17315
906.974	17444
907.091	17505
907.208	17604
907.324	17524
907.441	17326
907.557	17204
907.674	17143
907.79	17094
907.907	17208
908.023	17250
908.139	17227
908.256	17178
908.372	17239
908.488	17045
908.604	16995
908.72	16858
908.836	16892
908.952	16999
909.068	17006
909.184	17083
909.3	16927
909.415	17025
909.531	16942
909.647	16759
909.762	16679
909.878	16675
909.993	16729
910.108	16630
910.224	16607
910.339	16672
910.454	16455
910.57	16493
910.685	16390
910.8	16683
910.915	16504
911.03	16344
911.145	16234
911.259	16329
911.374	16280
911.489	16211
911.604	16044
911.718	16059
911.833	15918
911.947	15884
912.062	15736
912.176	15979
912.291	16055
912.405	15994
912.519	16196
912.633	16093
912.748	15907
912.862	15816
912.976	15850
913.09	15701
913.204	15633
913.318	15816
913.431	15903
913.545	15854
913.659	15869
913.772	15774
913.886	15564
914	15686
914.113	15682
914.226	15720
914.34	15625
914.453	15424
914.566	15568
914.68	15447
914.793	15351
914.906	15321
915.019	15203
915.132	15131
915.245	15146
915.358	15203
915.47	15268
915.583	15195
915.696	15260
915.809	15363
915.921	15329
916.034	15093
916.146	15100
916.259	15150
916.371	15180
916.483	15081
916.595	15009
916.708	15028
916.82	14994
916.932	15058
917.044	15036
917.156	14914
917.268	14857
917.38	14883
917.491	14861
917.603	14921
917.715	14914
917.826	14956
917.938	14788
918.049	14678
918.161	14754
918.272	14941
918.384	14883
918.495	14796
918.606	14598
918.717	14583
918.828	14640
918.939	14648
919.05	14518
919.161	14590
919.272	14362
919.383	14476
919.494	14701
919.604	14697
919.715	14613
919.826	14454
919.936	14583
920.047	14712
920.157	14621
920.267	14743
920.378	14579
920.488	14461
920.598	14693
920.708	14815
920.818	14762
920.928	14762
921.038	14830
921.148	14743
921.258	14568
921.368	14476
921.477	14309
921.587	14244
921.697	14107
921.806	14240
921.916	14092
922.025	13986
922.134	14027
922.244	13989
922.353	13997
922.462	13811
922.571	13803
922.68	13590
922.789	13571
922.898	13594
923.007	13521
923.116	13643
923.224	13609
923.333	13594
923.442	13464
923.55	13377
923.659	13453
923.767	13472
923.876	13400
923.984	13438
924.092	13304
924.201	13327
924.309	13316
924.417	13331
924.525	13209
924.633	13206
924.741	13970
924.849	13023
924.956	13110
925.064	13023
925.172	13031
925.279	12973
925.387	12966
925.494	13050
925.602	13114
925.709	13118
925.816	12928
925.924	12901
926.031	12973
926.138	12981
926.245	12943
926.352	12798
926.459	12970
926.566	12939
926.673	12909
926.779	12711
926.886	12787
926.993	12665
927.099	12574
927.206	12597
927.312	12570
927.419	12639
927.525	12540
927.631	12570
927.737	12479
927.843	12311
927.95	12361
928.056	12353
928.162	12338
928.267	12433
928.373	13042
928.479	12399
928.585	12254
928.69	12388
928.796	12403
928.901	12247
929.007	12155
929.112	12224
929.218	12235
929.323	12190
929.428	12087
929.533	12289
929.638	12087
929.743	12003
929.848	12136
929.953	12026
930.058	12007
930.163	11798
930.267	11805
930.372	11889
930.477	11748
930.581	12064
930.685	11783
930.79	11627
930.894	11748
930.998	11646
931.103	11764
931.207	11436
931.311	11334
931.415	11193
931.519	11086
931.623	11094
