Data from test_V78500241_97.txt Node
Date: Fri Mar 25 15:42:28 CST 2022
User: usil
Spectrometer: V785-0024
Trigger mode: 0
Integration Time (sec): 4.000000E-1
Scans to average: 1
Nonlinearity correction enabled: false
Boxcar width: 0
Storing dark spectrum: false
XAxis mode: Wavelengths
Number of Pixels in Spectrum: 1024
>>>>>Begin Spectral Data<<<<<
801.071	29680
801.214	29520
801.356	29395
801.499	29288
801.641	29204
801.783	29056
801.926	29090
802.068	29197
802.211	29075
802.353	28930
802.496	28858
802.638	28805
802.78	28774
802.923	28580
803.065	28580
803.208	28535
803.35	28809
803.492	28843
803.635	29006
803.777	28820
803.919	28942
804.061	29105
804.204	28790
804.346	28797
804.488	28706
804.63	28831
804.773	28748
804.915	28596
805.057	28946
805.199	28759
805.341	28911
805.483	28896
805.626	28999
805.768	28824
805.91	28999
806.052	29071
806.194	28900
806.336	29109
806.478	29052
806.62	28965
806.762	29048
806.904	29033
807.046	29410
807.188	29353
807.33	29395
807.472	29311
807.614	29170
807.756	29280
807.898	29147
808.04	29143
808.182	29094
808.324	29121
808.465	29124
808.607	29265
808.749	29372
808.891	29589
809.033	29653
809.174	29611
809.316	29478
809.458	29368
809.6	29478
809.741	29509
809.883	29486
810.025	29623
810.166	29570
810.308	29748
810.45	29661
810.591	29627
810.733	29600
810.875	29406
811.016	29402
811.158	29284
811.299	29619
811.441	29547
811.582	29623
811.724	29368
811.865	29410
812.007	29288
812.148	29524
812.29	29364
812.431	29615
812.573	29790
812.714	29726
812.855	29977
812.997	29893
813.138	30163
813.279	30159
813.421	29939
813.562	29916
813.703	29714
813.845	29474
813.986	29467
814.127	29174
814.268	28972
814.41	29018
814.551	28987
814.692	29235
814.833	28972
814.974	28968
815.115	28946
815.256	28900
815.397	28782
815.539	28968
815.68	28729
815.821	28691
815.962	28771
816.103	28641
816.244	28641
816.385	28409
816.526	28443
816.666	28272
816.807	28177
816.948	28306
817.089	28192
817.23	28261
817.371	28063
817.512	28105
817.653	28158
817.793	28173
817.934	28101
818.075	28128
818.216	28112
818.356	27991
818.497	27994
818.638	27785
818.778	27838
818.919	27785
819.06	27922
819.2	27865
819.341	28055
819.481	28090
819.622	28128
819.762	28348
819.903	28310
820.043	28093
820.184	28177
820.324	28204
820.465	28436
820.605	28249
820.746	28078
820.886	27861
821.026	27937
821.167	28131
821.307	28154
821.447	28044
821.588	27991
821.728	27686
821.868	27705
822.008	27462
822.149	27572
822.289	27576
822.429	27397
822.569	27184
822.709	27195
822.849	26880
822.99	26899
823.13	26994
823.27	26701
823.41	26674
823.55	26621
823.69	26792
823.83	26655
823.97	26617
824.11	26381
824.25	26415
824.389	26488
824.529	26598
824.669	26492
824.809	26663
824.949	26415
825.089	26648
825.228	26533
825.368	26317
825.508	26404
825.648	26438
825.787	26248
825.927	26465
826.067	26324
826.206	26244
826.346	26450
826.485	26419
826.625	26275
826.765	26404
826.904	26396
827.044	26149
827.183	26008
827.323	25921
827.462	26012
827.601	25970
827.741	25989
827.88	26058
828.02	25932
828.159	25883
828.298	25978
828.437	25989
828.577	25966
828.716	25955
828.855	25955
828.994	25635
829.134	25594
829.273	25677
829.412	25647
829.551	25578
829.69	25655
829.829	25651
829.968	25776
830.107	25605
830.246	25559
830.385	25647
830.524	25502
830.663	25312
830.802	25152
830.941	25171
831.08	25076
831.219	25183
831.357	25190
831.496	25365
831.635	25160
831.774	25129
831.913	25015
832.051	24935
832.19	24905
832.329	25012
832.467	24753
832.606	24658
832.744	24612
832.883	24753
833.022	24593
833.16	24688
833.299	24924
833.437	24726
833.576	24814
833.714	24798
833.852	24741
833.991	24802
834.129	24878
834.267	24749
834.406	24875
834.544	24707
834.682	24817
834.821	24753
834.959	24935
835.097	24779
835.235	24852
835.373	24791
835.511	24696
835.65	24540
835.788	24639
835.926	24384
836.064	24437
836.202	24353
836.34	24559
836.478	24570
836.615	24464
836.753	24631
836.891	24547
837.029	24658
837.167	24445
837.305	24437
837.443	24502
837.58	24414
837.718	24471
837.856	24414
837.993	24410
838.131	24422
838.269	24171
838.406	24429
838.544	24270
838.681	24110
838.819	24049
838.956	23790
839.094	23859
839.231	23870
839.369	24018
839.506	24205
839.643	24095
839.781	23783
839.918	23737
840.055	23722
840.193	23657
840.33	23630
840.467	23649
840.604	23684
840.742	23920
840.879	23554
841.016	23531
841.153	23668
841.29	23691
841.427	23589
841.564	23783
841.701	23726
841.838	23668
841.975	23539
842.112	23512
842.249	23520
842.385	23528
842.522	23490
842.659	23436
842.796	23402
842.933	23326
843.069	23288
843.206	23292
843.343	23299
843.479	23410
843.616	23395
843.752	23140
843.889	23090
844.025	23220
844.162	23086
844.298	23155
844.435	23064
844.571	23090
844.708	23041
844.844	23292
844.98	23216
845.117	23155
845.253	23037
845.389	22915
845.525	22984
845.661	22927
845.798	22847
845.934	22938
846.07	22752
846.206	22824
846.342	22824
846.478	22637
846.614	22691
846.75	22542
846.886	22580
847.022	22588
847.158	22554
847.294	22485
847.429	22535
847.565	22504
847.701	22843
847.837	22287
847.972	22223
848.108	22360
848.244	22226
848.379	22055
848.515	21960
848.65	22093
848.786	22147
848.921	22090
849.057	22162
849.192	22116
849.328	22120
849.463	22112
849.598	21998
849.734	21918
849.869	21926
850.004	21880
850.14	21789
850.275	21747
850.41	21724
850.545	21724
850.68	21545
850.815	21865
850.95	21732
851.085	21998
851.22	21835
851.355	21766
851.49	21755
851.625	21713
851.76	21656
851.895	21732
852.03	21614
852.165	21698
852.299	21766
852.434	21778
852.569	21713
852.703	21778
852.838	21732
852.973	21907
853.107	21762
853.242	21576
853.376	21603
853.511	21473
853.645	21595
853.78	21660
853.914	21637
854.048	21428
854.183	21462
854.317	21564
854.451	21736
854.585	21606
854.72	21561
854.854	21614
854.988	21462
855.122	21462
855.256	21412
855.39	21538
855.524	21686
855.658	21523
855.792	21618
855.926	21614
856.06	21511
856.194	21610
856.327	21530
856.461	21538
856.595	21485
856.729	21458
856.862	21648
856.996	21557
857.13	21591
857.263	21549
857.397	21568
857.53	21469
857.664	21515
857.797	21481
857.931	21576
858.064	21561
858.197	21618
858.331	21504
858.464	21412
858.597	21382
858.731	21523
858.864	21416
858.997	21428
859.13	21485
859.263	21618
859.396	21599
859.529	21542
859.662	21397
859.795	21397
859.928	21454
860.061	21595
860.194	21701
860.327	21553
860.46	21504
860.592	21580
860.725	21504
860.858	21667
860.99	21530
861.123	21485
861.256	21332
861.388	21458
861.521	22070
861.653	21393
861.786	21268
861.918	21374
862.05	21355
862.183	21587
862.315	21454
862.447	21519
862.58	21401
862.712	21310
862.844	21188
862.976	21367
863.108	21199
863.24	21557
863.372	21036
863.504	21192
863.636	21077
863.768	21226
863.9	21157
864.032	20979
864.164	21135
864.296	21089
864.428	21203
864.559	21188
864.691	21249
864.823	21283
864.954	21081
865.086	21146
865.217	21108
865.349	20967
865.48	21017
865.612	21043
865.743	21184
865.875	20902
866.006	21085
866.137	21047
866.269	21055
866.4	21047
866.531	20982
866.662	20990
866.793	20952
866.924	21005
867.055	20910
867.186	21017
867.317	21047
867.448	20834
867.579	20849
867.71	20921
867.841	20773
867.972	21043
868.103	20906
868.233	20899
868.364	20891
868.495	20975
868.625	21230
868.756	21226
868.886	21112
869.017	21146
869.147	21287
869.278	21313
869.408	21211
869.539	21150
869.669	21241
869.799	21169
869.929	21340
870.06	21241
870.19	21450
870.32	21507
870.45	21488
870.58	21629
870.71	21682
870.84	21717
870.97	21572
871.1	21557
871.23	21842
871.36	21816
871.489	21694
871.619	21808
871.749	21629
871.879	21747
872.008	21857
872.138	21819
872.267	21743
872.397	21667
872.526	21633
872.656	21690
872.785	21572
872.915	21831
873.044	21975
873.173	21804
873.303	21949
873.432	21899
873.561	21964
873.69	21724
873.819	21785
873.948	21838
874.077	21869
874.206	21751
874.335	21793
874.464	21892
874.593	22044
874.722	21994
874.851	22238
874.979	22002
875.108	22124
875.237	21956
875.365	21884
875.494	21979
875.623	22063
875.751	22048
875.88	22257
876.008	22093
876.136	22238
876.265	22512
876.393	22462
876.521	22546
876.65	22535
876.778	22550
876.906	22424
877.034	22413
877.162	22424
877.29	22299
877.418	22363
877.546	22390
877.674	22459
877.802	22390
877.93	22386
878.058	22386
878.185	22249
878.313	22325
878.441	22363
878.568	22204
878.696	22382
878.824	22417
878.951	22440
879.079	22554
879.206	22702
879.333	22618
879.461	22348
879.588	22413
879.715	22478
879.842	22694
879.97	22352
880.097	22181
880.224	22204
880.351	22204
880.478	22211
880.605	22124
880.732	22131
880.859	22440
880.986	22322
881.112	22109
881.239	22067
881.366	21987
881.493	21922
881.619	21800
881.746	21918
881.872	21781
881.999	21732
882.125	21770
882.252	21785
882.378	21770
882.505	21861
882.631	21709
882.757	21542
882.883	21526
883.01	21690
883.136	21485
883.262	21317
883.388	21363
883.514	21549
883.64	21458
883.766	21553
883.892	21306
884.018	21378
884.143	21370
884.269	21431
884.395	21325
884.52	21127
884.646	21138
884.772	21077
884.897	21051
885.023	21218
885.148	21184
885.274	21291
885.399	21211
885.524	21150
885.65	21093
885.775	21165
885.9	21116
886.025	21081
886.15	21275
886.275	21138
886.4	20998
886.525	21138
886.65	21081
886.775	20956
886.9	21218
887.025	21272
887.149	21108
887.274	20982
887.399	20948
887.523	20918
887.648	20804
887.773	20720
887.897	20982
888.021	20986
888.146	20781
888.27	20876
888.395	21066
888.519	20857
888.643	20887
888.767	20952
888.891	20769
889.015	20663
889.139	20705
889.263	20606
889.387	20834
889.511	20807
889.635	20663
889.759	20689
889.883	20606
890.006	20655
890.13	20762
890.254	20579
890.377	20560
890.501	20389
890.624	20313
890.748	20446
890.871	20271
890.995	20305
891.118	20138
891.241	20324
891.364	20111
891.488	20400
891.611	20339
891.734	20332
891.857	20343
891.98	20252
892.103	20282
892.226	20267
892.349	20176
892.471	20168
892.594	20180
892.717	20202
892.839	20115
892.962	20210
893.085	20138
893.207	20027
893.33	20016
893.452	19967
893.575	20210
893.697	20043
893.819	20282
893.941	20332
894.064	20343
894.186	19997
894.308	20107
894.43	20263
894.552	20259
894.674	20199
894.796	20126
894.918	20024
895.04	20119
895.161	20191
895.283	20183
895.405	20016
895.526	20107
895.648	20100
895.769	20164
895.891	20298
896.012	20206
896.134	20153
896.255	20233
896.376	20119
896.498	20180
896.619	20199
896.74	20149
896.861	20244
896.982	20583
897.103	20731
897.224	20541
897.345	20374
897.466	20389
897.587	20495
897.708	20434
897.828	20484
897.949	20317
898.07	20240
898.19	20393
898.311	20503
898.431	20408
898.552	20423
898.672	20469
898.792	20450
898.913	20267
899.033	20248
899.153	20096
899.273	19978
899.393	20107
899.513	19986
899.633	20027
899.753	20039
899.873	19986
899.993	20027
900.113	20035
900.232	20039
900.352	19898
900.472	19974
900.591	19723
900.711	19921
900.83	19734
900.95	19974
901.069	19917
901.189	19746
901.308	19514
901.427	19468
901.546	19415
901.665	19476
901.784	19559
901.904	19293
902.023	19282
902.141	19137
902.26	19065
902.379	19065
902.498	18859
902.617	18977
902.735	18920
902.854	18802
902.973	18954
903.091	18631
903.21	18506
903.328	18475
903.446	18532
903.565	18486
903.683	18384
903.801	18247
903.919	18338
904.038	18384
904.156	18072
904.274	18270
904.392	18041
904.51	18019
904.627	18102
904.745	18155
904.863	18186
904.981	17954
905.098	17840
905.216	17821
905.334	17843
905.451	17897
905.569	17786
905.686	17786
905.803	17805
905.921	17604
906.038	17623
906.155	17604
906.272	17497
906.389	17474
906.506	17429
906.623	17376
906.74	17364
906.857	17223
906.974	17288
907.091	17429
907.208	17444
907.324	17398
907.441	17235
907.557	17174
907.674	16949
907.79	17003
907.907	16991
908.023	17037
908.139	16968
908.256	16991
908.372	16854
908.488	16862
908.604	16740
908.72	16645
908.836	16755
908.952	16649
909.068	16641
909.184	16809
909.3	16679
909.415	16744
909.531	16653
909.647	16390
909.762	16451
909.878	16322
909.993	16466
910.108	16284
910.224	16375
910.339	16363
910.454	16303
910.57	16139
910.685	16105
910.8	16394
910.915	16325
911.03	16196
911.145	15972
911.259	15972
911.374	15926
911.489	15907
911.604	15831
911.718	15682
911.833	15747
911.947	15675
912.062	15538
912.176	15751
912.291	15698
912.405	15709
912.519	15884
912.633	15918
912.748	15720
912.862	15694
912.976	15492
913.09	15405
913.204	15473
913.318	15507
913.431	15629
913.545	15568
913.659	15538
913.772	15492
913.886	15382
914	15351
914.113	15408
914.226	15443
914.34	15424
914.453	15112
914.566	15317
914.68	15306
914.793	15188
914.906	14994
915.019	14906
915.132	14952
915.245	14982
915.358	14944
915.47	14849
915.583	14994
915.696	14830
915.809	15020
915.921	15089
916.034	14807
916.146	14842
916.259	14830
916.371	14876
916.483	14830
916.595	14811
916.708	14743
916.82	14769
916.932	14731
917.044	14777
917.156	14674
917.268	14629
917.38	14716
917.491	14617
917.603	14511
917.715	14579
917.826	14667
917.938	14514
918.049	14404
918.161	14514
918.272	14621
918.384	14648
918.495	14579
918.606	14442
918.717	14336
918.828	14362
918.939	14404
919.05	14248
919.161	14275
919.272	14054
919.383	14111
919.494	14415
919.604	14499
919.715	14252
919.826	14233
919.936	14176
920.047	14332
920.157	14298
920.267	14423
920.378	14301
920.488	14180
920.598	14404
920.708	14537
920.818	14412
920.928	14423
921.038	14602
921.148	14511
921.258	14294
921.368	14111
921.477	13963
921.587	14016
921.697	13814
921.806	13997
921.916	13807
922.025	13712
922.134	13738
922.244	13544
922.353	13693
922.462	13552
922.571	13396
922.68	13365
922.789	13324
922.898	13324
923.007	13198
923.116	13297
923.224	13289
923.333	13240
923.442	13149
923.55	13149
923.659	13057
923.767	13152
923.876	13065
923.984	13145
924.092	13004
924.201	13046
924.309	13065
924.417	12996
924.525	12909
924.633	12951
924.741	13616
924.849	12802
924.956	12932
925.064	12681
925.172	12700
925.279	12642
925.387	12707
925.494	12631
925.602	12795
925.709	12726
925.816	12639
925.924	12658
926.031	12753
926.138	12555
926.245	12662
926.352	12517
926.459	12646
926.566	12776
926.673	12631
926.779	12479
926.886	12441
926.993	12281
927.099	12277
927.206	12178
927.312	12266
927.419	12372
927.525	12281
927.631	12224
927.737	12220
927.843	12117
927.95	12034
928.056	12072
928.162	12102
928.267	12091
928.373	12776
928.479	12197
928.585	11824
928.69	12098
928.796	11999
928.901	11965
929.007	11733
929.112	11977
929.218	11969
929.323	11828
929.428	11764
929.533	11920
929.638	11733
929.743	11756
929.848	11836
929.953	11771
930.058	11710
930.163	11482
930.267	11478
930.372	11642
930.477	11459
930.581	11688
930.685	11467
930.79	11379
930.894	11387
930.998	11368
931.103	11505
931.207	11083
931.311	11056
931.415	10930
931.519	10797
931.623	10767
