Data from test_V78500241_2187.txt Node
Date: Fri Mar 25 15:56:57 CST 2022
User: usil
Spectrometer: V785-0024
Trigger mode: 0
Integration Time (sec): 4.000000E-1
Scans to average: 1
Nonlinearity correction enabled: false
Boxcar width: 0
Storing dark spectrum: false
XAxis mode: Wavelengths
Number of Pixels in Spectrum: 1024
>>>>>Begin Spectral Data<<<<<
801.071	29052
801.214	29025
801.356	28869
801.499	28710
801.641	28554
801.783	28527
801.926	28698
802.068	28588
802.211	28497
802.353	28390
802.496	28360
802.638	28390
802.78	28306
802.923	28253
803.065	28204
803.208	28268
803.35	28303
803.492	28440
803.635	28466
803.777	28306
803.919	28599
804.061	28835
804.204	28786
804.346	28557
804.488	28299
804.63	28641
804.773	28447
804.915	28538
805.057	28702
805.199	28577
805.341	28774
805.483	28694
805.626	28656
805.768	28683
805.91	28683
806.052	28828
806.194	28538
806.336	28946
806.478	28843
806.62	28706
806.762	28953
806.904	29006
807.046	29189
807.188	29151
807.33	29185
807.472	29216
807.614	29254
807.756	29143
807.898	29041
808.04	28839
808.182	28873
808.324	28991
808.465	29025
808.607	29330
808.749	29296
808.891	29482
809.033	29646
809.174	29410
809.316	29349
809.458	29429
809.6	29379
809.741	29417
809.883	29668
810.025	29611
810.166	29615
810.308	29623
810.45	29695
810.591	29573
810.733	29459
810.875	29452
811.016	29444
811.158	29345
811.299	29585
811.441	29524
811.582	29581
811.724	29440
811.865	29455
812.007	29406
812.148	29436
812.29	29531
812.431	29634
812.573	29737
812.714	29855
812.855	29939
812.997	30057
813.138	30254
813.279	30083
813.421	29961
813.562	29984
813.703	29802
813.845	29771
813.986	29360
814.127	29273
814.268	29174
814.41	29189
814.551	29121
814.692	29220
814.833	29064
814.974	29159
815.115	29136
815.256	29033
815.397	29018
815.539	29033
815.68	28991
815.821	28801
815.962	28949
816.103	28923
816.244	28767
816.385	28869
816.526	28656
816.666	28584
816.807	28363
816.948	28596
817.089	28550
817.23	28436
817.371	28447
817.512	28557
817.653	28466
817.793	28478
817.934	28489
818.075	28504
818.216	28497
818.356	28375
818.497	28386
818.638	28295
818.778	28344
818.919	28276
819.06	28341
819.2	28443
819.341	28459
819.481	28478
819.622	28531
819.762	28850
819.903	28782
820.043	28615
820.184	28668
820.324	28615
820.465	28660
820.605	28611
820.746	28573
820.886	28440
821.026	28398
821.167	28500
821.307	28649
821.447	28603
821.588	28390
821.728	28341
821.868	28116
822.008	28067
822.149	27918
822.289	27911
822.429	27717
822.569	27603
822.709	27789
822.849	27526
822.99	27302
823.13	27367
823.27	27458
823.41	27256
823.55	27294
823.69	27317
823.83	27359
823.97	27386
824.11	27218
824.25	27036
824.389	27135
824.529	27226
824.669	27169
824.809	27321
824.949	27317
825.089	27226
825.228	27104
825.368	27001
825.508	26971
825.648	27070
825.787	26994
825.927	27165
826.067	26838
826.206	27055
826.346	27214
826.485	27058
826.625	27127
826.765	27249
826.904	27104
827.044	26838
827.183	26914
827.323	26735
827.462	26826
827.601	26739
827.741	26910
827.88	26720
828.02	26678
828.159	26625
828.298	26739
828.437	26739
828.577	26727
828.716	26899
828.855	26648
828.994	26545
829.134	26427
829.273	26533
829.412	26636
829.551	26488
829.69	26465
829.829	26408
829.968	26492
830.107	26473
830.246	26518
830.385	26446
830.524	26355
830.663	26332
830.802	26092
830.941	25970
831.08	26024
831.219	26168
831.357	26183
831.496	26206
831.635	26050
831.774	26046
831.913	26005
832.051	25936
832.19	26035
832.329	25951
832.467	25830
832.606	25647
832.744	25548
832.883	25662
833.022	25635
833.16	25727
833.299	25799
833.437	25734
833.576	25715
833.714	25791
833.852	25833
833.991	25761
834.129	25780
834.267	25799
834.406	25803
834.544	25811
834.682	25856
834.821	25845
834.959	25890
835.097	25712
835.235	25727
835.373	25814
835.511	25742
835.65	25704
835.788	25624
835.926	25510
836.064	25476
836.202	25441
836.34	25655
836.478	25628
836.615	25479
836.753	25499
836.891	25689
837.029	25643
837.167	25609
837.305	25419
837.443	25559
837.58	25445
837.718	25597
837.856	25510
837.993	25312
838.131	25441
838.269	25255
838.406	25289
838.544	25171
838.681	25091
838.819	25019
838.956	24886
839.094	24867
839.231	24901
839.369	25012
839.506	25202
839.643	25088
839.781	24935
839.918	24802
840.055	24928
840.193	24829
840.33	24802
840.467	24897
840.604	24894
840.742	25099
840.879	24608
841.016	24692
841.153	24764
841.29	24848
841.427	24730
841.564	24768
841.701	24722
841.838	24741
841.975	24719
842.112	24703
842.249	24646
842.385	24559
842.522	24768
842.659	24566
842.796	24490
842.933	24479
843.069	24555
843.206	24601
843.343	24566
843.479	24559
843.616	24532
843.752	24334
843.889	24285
844.025	24433
844.162	24315
844.298	24460
844.435	24178
844.571	24239
844.708	24334
844.844	24456
844.98	24479
845.117	24422
845.253	24167
845.389	24247
845.525	24330
845.661	24144
845.798	24064
845.934	24053
846.07	24049
846.206	24095
846.342	24057
846.478	24060
846.614	23851
846.75	23802
846.886	23760
847.022	23710
847.158	23790
847.294	23627
847.429	23745
847.565	23691
847.701	24026
847.837	23543
847.972	23486
848.108	23649
848.244	23551
848.379	23364
848.515	23326
848.65	23391
848.786	23463
848.921	23345
849.057	23383
849.192	23337
849.328	23379
849.463	23269
849.598	23307
849.734	23250
849.869	23200
850.004	23143
850.14	23079
850.275	23200
850.41	22976
850.545	23250
850.68	23113
850.815	23174
850.95	23105
851.085	23303
851.22	23174
851.355	23132
851.49	23075
851.625	23223
851.76	23121
851.895	22938
852.03	22984
852.165	23166
852.299	23197
852.434	23155
852.569	23140
852.703	23121
852.838	23143
852.973	23216
853.107	23170
853.242	22919
853.376	22980
853.511	22744
853.645	22869
853.78	23029
853.914	23006
854.048	22854
854.183	22824
854.317	23044
854.451	23071
854.585	22911
854.72	22942
854.854	23113
854.988	22953
855.122	22908
855.256	22801
855.39	22968
855.524	22987
855.658	22976
855.792	22965
855.926	22919
856.06	22885
856.194	22968
856.327	22911
856.461	22847
856.595	22957
856.729	22995
856.862	22900
856.996	22892
857.13	22999
857.263	23025
857.397	23014
857.53	22847
857.664	22908
857.797	23003
857.931	23006
858.064	22957
858.197	22919
858.331	22889
858.464	22816
858.597	22930
858.731	22930
858.864	22809
858.997	22824
859.13	22968
859.263	22946
859.396	23098
859.529	22889
859.662	22793
859.795	22862
859.928	23041
860.061	23132
860.194	23124
860.327	23033
860.46	22828
860.592	23022
860.725	23102
860.858	23025
860.99	22923
861.123	22820
861.256	22850
861.388	22949
861.521	23714
861.653	22736
861.786	22672
861.918	22782
862.05	22660
862.183	22771
862.315	22748
862.447	22835
862.58	22733
862.712	22733
862.844	22592
862.976	22725
863.108	22710
863.24	23105
863.372	22588
863.504	22649
863.636	22512
863.768	22752
863.9	22710
864.032	22573
864.164	22599
864.296	22634
864.428	22736
864.559	22702
864.691	22752
864.823	22641
864.954	22565
865.086	22649
865.217	22500
865.349	22485
865.48	22512
865.612	22523
865.743	22622
865.875	22508
866.006	22481
866.137	22413
866.269	22508
866.4	22527
866.531	22417
866.662	22333
866.793	22402
866.924	22409
867.055	22379
867.186	22455
867.317	22481
867.448	22386
867.579	22478
867.71	22306
867.841	22394
867.972	22405
868.103	22428
868.233	22375
868.364	22310
868.495	22447
868.625	22561
868.756	22649
868.886	22656
869.017	22672
869.147	22854
869.278	22763
869.408	22687
869.539	22607
869.669	22634
869.799	22748
869.929	22824
870.06	22752
870.19	23010
870.32	22995
870.45	23037
870.58	23041
870.71	23105
870.84	23056
870.97	23025
871.1	23075
871.23	23094
871.36	23398
871.489	23212
871.619	23284
871.749	23326
871.879	23387
872.008	23421
872.138	23258
872.267	23143
872.397	23006
872.526	23140
872.656	23056
872.785	23079
872.915	23212
873.044	23433
873.173	23197
873.303	23273
873.432	23341
873.561	23459
873.69	23307
873.819	23284
873.948	23372
874.077	23448
874.206	23273
874.335	23250
874.464	23292
874.593	23455
874.722	23387
874.851	23566
874.979	23444
875.108	23547
875.237	23395
875.365	23349
875.494	23524
875.623	23448
875.751	23326
875.88	23433
876.008	23581
876.136	23619
876.265	24022
876.393	23920
876.521	23923
876.65	23923
876.778	23805
876.906	23817
877.034	23676
877.162	23817
877.29	23786
877.418	23863
877.546	23802
877.674	23832
877.802	23912
877.93	23790
878.058	23745
878.185	23615
878.313	23733
878.441	23695
878.568	23634
878.696	23714
878.824	23843
878.951	23874
879.079	23969
879.206	24095
879.333	23923
879.461	23813
879.588	23950
879.715	24041
879.842	24049
879.97	23859
880.097	23767
880.224	23665
880.351	23668
880.478	23589
880.605	23493
880.732	23573
880.859	23794
880.986	23642
881.112	23687
881.239	23471
881.366	23410
881.493	23345
881.619	23147
881.746	23258
881.872	23254
881.999	23113
882.125	23105
882.252	23212
882.378	23071
882.505	23132
882.631	23105
882.757	22972
882.883	22771
883.01	22942
883.136	22778
883.262	22843
883.388	22675
883.514	22908
883.64	22866
883.766	22664
883.892	22634
884.018	22717
884.143	22755
884.269	22869
884.395	22546
884.52	22512
884.646	22432
884.772	22432
884.897	22276
885.023	22417
885.148	22580
885.274	22611
885.399	22489
885.524	22519
885.65	22519
885.775	22550
885.9	22417
886.025	22588
886.15	22577
886.275	22379
886.4	22329
886.525	22405
886.65	22466
886.775	22436
886.9	22535
887.025	22531
887.149	22443
887.274	22352
887.399	22314
887.523	22261
887.648	22188
887.773	22124
887.897	22253
888.021	22325
888.146	22207
888.27	22219
888.395	22196
888.519	22226
888.643	22337
888.767	22329
888.891	22253
889.015	22070
889.139	22116
889.263	21998
889.387	21960
889.511	22162
889.635	22040
889.759	22029
889.883	21998
890.006	22067
890.13	22139
890.254	21975
890.377	21956
890.501	21739
890.624	21690
890.748	21705
890.871	21583
890.995	21515
891.118	21466
891.241	21603
891.364	21492
891.488	21679
891.611	21553
891.734	21580
891.857	21583
891.98	21481
892.103	21504
892.226	21614
892.349	21454
892.471	21336
892.594	21473
892.717	21500
892.839	21412
892.962	21291
893.085	21447
893.207	21466
893.33	21325
893.452	21386
893.575	21492
893.697	21488
893.819	21603
893.941	21633
894.064	21496
894.186	21405
894.308	21389
894.43	21511
894.552	21644
894.674	21629
894.796	21458
894.918	21351
895.04	21340
895.161	21439
895.283	21469
895.405	21355
895.526	21370
895.648	21386
895.769	21359
895.891	21458
896.012	21428
896.134	21500
896.255	21355
896.376	21389
896.498	21466
896.619	21454
896.74	21378
896.861	21481
896.982	21671
897.103	21808
897.224	21679
897.345	21698
897.466	21606
897.587	21717
897.708	21823
897.828	21633
897.949	21595
898.07	21473
898.19	21549
898.311	21675
898.431	21526
898.552	21534
898.672	21751
898.792	21652
898.913	21458
899.033	21481
899.153	21336
899.273	21329
899.393	21348
899.513	21405
899.633	21264
899.753	21363
899.873	21306
899.993	21370
900.113	21192
900.232	21359
900.352	21283
900.472	21127
900.591	21104
900.711	21055
900.83	21138
900.95	21161
901.069	21268
901.189	20971
901.308	20598
901.427	20750
901.546	20693
901.665	20651
901.784	20636
901.904	20457
902.023	20377
902.141	20298
902.26	20221
902.379	20282
902.498	20263
902.617	20069
902.735	20191
902.854	20058
902.973	20065
903.091	19909
903.21	19769
903.328	19833
903.446	19708
903.565	19624
903.683	19605
903.801	19476
903.919	19552
904.038	19571
904.156	19422
904.274	19476
904.392	19327
904.51	19297
904.627	19430
904.745	19331
904.863	19255
904.981	19160
905.098	18913
905.216	19008
905.334	19126
905.451	19034
905.569	19027
905.686	19072
905.803	18989
905.921	18928
906.038	18768
906.155	18837
906.272	18620
906.389	18681
906.506	18582
906.623	18570
906.74	18661
906.857	18452
906.974	18521
907.091	18616
907.208	18589
907.324	18521
907.441	18506
907.557	18178
907.674	18327
907.79	18232
907.907	18095
908.023	18296
908.139	18270
908.256	18186
908.372	18087
908.488	18102
908.604	17977
908.72	18053
908.836	18064
908.952	17840
909.068	17897
909.184	18079
909.3	17923
909.415	17889
909.531	17980
909.647	17726
909.762	17665
909.878	17573
909.993	17600
910.108	17661
910.224	17615
910.339	17558
910.454	17444
910.57	17501
910.685	17368
910.8	17661
910.915	17592
911.03	17425
911.145	17337
911.259	17223
911.374	17284
911.489	17189
911.604	17124
911.718	16782
911.833	16938
911.947	16972
912.062	16748
912.176	16957
912.291	17060
912.405	16961
912.519	17143
912.633	17098
912.748	16980
912.862	16927
912.976	16847
913.09	16736
913.204	16694
913.318	16694
913.431	16862
913.545	16847
913.659	16904
913.772	16675
913.886	16634
914	16497
914.113	16607
914.226	16649
914.34	16588
914.453	16356
914.566	16523
914.68	16398
914.793	16459
914.906	16299
915.019	16116
915.132	16063
915.245	16105
915.358	16223
915.47	16109
915.583	16246
915.696	16135
915.809	16211
915.921	16207
916.034	16010
916.146	16006
916.259	15994
916.371	16006
916.483	16006
916.595	15968
916.708	15876
916.82	15857
916.932	15892
917.044	15808
917.156	15857
917.268	15713
917.38	15781
917.491	15694
917.603	15728
917.715	15865
917.826	15842
917.938	15622
918.049	15580
918.161	15705
918.272	15842
918.384	15789
918.495	15686
918.606	15500
918.717	15363
918.828	15507
918.939	15481
919.05	15401
919.161	15549
919.272	15241
919.383	15321
919.494	15564
919.604	15713
919.715	15568
919.826	15382
919.936	15393
920.047	15431
920.157	15332
920.267	15614
920.378	15485
920.488	15397
920.598	15526
920.708	15698
920.818	15523
920.928	15504
921.038	15690
921.148	15690
921.258	15340
921.368	15294
921.477	15237
921.587	15112
921.697	14895
921.806	15180
921.916	15032
922.025	14902
922.134	14754
922.244	14674
922.353	14765
922.462	14655
922.571	14518
922.68	14526
922.789	14423
922.898	14412
923.007	14259
923.116	14336
923.224	14431
923.333	14465
923.442	14183
923.55	14191
923.659	14225
923.767	14366
923.876	14100
923.984	14282
924.092	14031
924.201	14145
924.309	14161
924.417	14157
924.525	14031
924.633	14084
924.741	14811
924.849	13822
924.956	13959
925.064	13807
925.172	13753
925.279	13753
925.387	13807
925.494	13841
925.602	13932
925.709	13784
925.816	13689
925.924	13639
926.031	13841
926.138	13765
926.245	13795
926.352	13575
926.459	13700
926.566	13696
926.673	13712
926.779	13559
926.886	13381
926.993	13308
927.099	13285
927.206	13274
927.312	13278
927.419	13392
927.525	13263
927.631	13293
927.737	13190
927.843	13187
927.95	12985
928.056	13110
928.162	13027
928.267	13152
928.373	13772
928.479	13255
928.585	12943
928.69	13122
928.796	13133
928.901	12996
929.007	12856
929.112	12935
929.218	12901
929.323	12837
929.428	12806
929.533	12954
929.638	12654
929.743	12772
929.848	12806
929.953	12734
930.058	12703
930.163	12589
930.267	12551
930.372	12677
930.477	12437
930.581	12623
930.685	12494
930.79	12338
930.894	12403
930.998	12338
931.103	12483
931.207	12083
931.311	11988
931.415	11988
931.519	11665
931.623	11703
