Data from test_V78500241_1285.txt Node
Date: Fri Mar 25 15:50:42 CST 2022
User: usil
Spectrometer: V785-0024
Trigger mode: 0
Integration Time (sec): 4.000000E-1
Scans to average: 1
Nonlinearity correction enabled: false
Boxcar width: 0
Storing dark spectrum: false
XAxis mode: Wavelengths
Number of Pixels in Spectrum: 1024
>>>>>Begin Spectral Data<<<<<
801.071	28318
801.214	28371
801.356	28082
801.499	27991
801.641	27831
801.783	27835
801.926	27972
802.068	27968
802.211	27850
802.353	27770
802.496	27641
802.638	27534
802.78	27591
802.923	27523
803.065	27412
803.208	27458
803.35	27675
803.492	27698
803.635	27770
803.777	27717
803.919	27907
804.061	28025
804.204	27774
804.346	27751
804.488	27641
804.63	27762
804.773	27717
804.915	27713
805.057	28040
805.199	27736
805.341	27804
805.483	27972
805.626	27953
805.768	27873
805.91	27979
806.052	27953
806.194	27831
806.336	28074
806.478	27899
806.62	28013
806.762	28105
806.904	28147
807.046	28485
807.188	28413
807.33	28394
807.472	28428
807.614	28329
807.756	28173
807.898	28310
808.04	28356
808.182	28234
808.324	28219
808.465	28291
808.607	28508
808.749	28573
808.891	28630
809.033	28824
809.174	28748
809.316	28672
809.458	28611
809.6	28417
809.741	28763
809.883	28812
810.025	28938
810.166	28938
810.308	28957
810.45	28850
810.591	28873
810.733	28755
810.875	28710
811.016	28649
811.158	28417
811.299	28637
811.441	28771
811.582	28915
811.724	28660
811.865	28603
812.007	28573
812.148	28599
812.29	28660
812.431	28824
812.573	28938
812.714	29010
812.855	29075
812.997	29414
813.138	29208
813.279	29318
813.421	29181
813.562	29227
813.703	29098
813.845	28915
813.986	28691
814.127	28481
814.268	28303
814.41	28234
814.551	28314
814.692	28390
814.833	28413
814.974	28211
815.115	28401
815.256	28230
815.397	28253
815.539	28238
815.68	28074
815.821	28207
815.962	28200
816.103	28082
816.244	28097
816.385	28036
816.526	27934
816.666	27797
816.807	27667
816.948	27682
817.089	27869
817.23	27747
817.371	27637
817.512	27686
817.653	27648
817.793	27610
817.934	27519
818.075	27747
818.216	27701
818.356	27538
818.497	27564
818.638	27310
818.778	27382
818.919	27450
819.06	27412
819.2	27599
819.341	27644
819.481	27580
819.622	27762
819.762	28093
819.903	27842
820.043	27827
820.184	27808
820.324	27743
820.465	27899
820.605	27850
820.746	27774
820.886	27545
821.026	27842
821.167	27713
821.307	27812
821.447	27614
821.588	27492
821.728	27488
821.868	27363
822.008	27222
822.149	27100
822.289	27127
822.429	26842
822.569	26708
822.709	26849
822.849	26659
822.99	26598
823.13	26594
823.27	26667
823.41	26370
823.55	26355
823.69	26351
823.83	26465
823.97	26427
824.11	26332
824.25	26206
824.389	26214
824.529	26404
824.669	26275
824.809	26355
824.949	26351
825.089	26438
825.228	26393
825.368	26183
825.508	26092
825.648	26282
825.787	26142
825.927	26317
826.067	26100
826.206	26145
826.346	26138
826.485	26290
826.625	26225
826.765	26237
826.904	26153
827.044	26001
827.183	25951
827.323	25822
827.462	25856
827.601	25811
827.741	25761
827.88	25879
828.02	25837
828.159	25830
828.298	25788
828.437	25906
828.577	25750
828.716	25864
828.855	25772
828.994	25559
829.134	25582
829.273	25578
829.412	25571
829.551	25582
829.69	25529
829.829	25563
829.968	25597
830.107	25594
830.246	25601
830.385	25575
830.524	25453
830.663	25354
830.802	25282
830.941	25129
831.08	25244
831.219	25240
831.357	25392
831.496	25457
831.635	25110
831.774	25065
831.913	25042
832.051	24916
832.19	24947
832.329	25008
832.467	24913
832.606	24711
832.744	24779
832.883	24909
833.022	24901
833.16	24745
833.299	24901
833.437	24783
833.576	24810
833.714	24844
833.852	24920
833.991	24939
834.129	25019
834.267	24909
834.406	24951
834.544	25088
834.682	24970
834.821	24730
834.959	24958
835.097	24894
835.235	24791
835.373	24806
835.511	24856
835.65	24692
835.788	24711
835.926	24658
836.064	24547
836.202	24536
836.34	24703
836.478	24863
836.615	24654
836.753	24635
836.891	24692
837.029	24802
837.167	24631
837.305	24658
837.443	24620
837.58	24517
837.718	24635
837.856	24563
837.993	24544
838.131	24623
838.269	24376
838.406	24403
838.544	24323
838.681	24159
838.819	24148
838.956	24114
839.094	24133
839.231	24003
839.369	24228
839.506	24395
839.643	24251
839.781	24011
839.918	23973
840.055	24007
840.193	23882
840.33	23961
840.467	23889
840.604	24057
840.742	24194
840.879	23798
841.016	23764
841.153	23855
841.29	24018
841.427	23961
841.564	23843
841.701	23958
841.838	23798
841.975	23912
842.112	23870
842.249	23733
842.385	23649
842.522	23942
842.659	23646
842.796	23798
842.933	23764
843.069	23600
843.206	23726
843.343	23748
843.479	23767
843.616	23634
843.752	23395
843.889	23410
844.025	23589
844.162	23440
844.298	23615
844.435	23440
844.571	23379
844.708	23471
844.844	23524
844.98	23611
845.117	23490
845.253	23391
845.389	23280
845.525	23356
845.661	23197
845.798	23292
845.934	23212
846.07	23204
846.206	23197
846.342	23307
846.478	23265
846.614	22953
846.75	22892
846.886	22991
847.022	22938
847.158	23094
847.294	22942
847.429	22915
847.565	22797
847.701	23162
847.837	22710
847.972	22691
848.108	22713
848.244	22733
848.379	22557
848.515	22645
848.65	22516
848.786	22417
848.921	22607
849.057	22618
849.192	22618
849.328	22436
849.463	22493
849.598	22478
849.734	22363
849.869	22310
850.004	22318
850.14	22284
850.275	22303
850.41	22261
850.545	22234
850.68	22337
850.815	22249
850.95	22185
851.085	22523
851.22	22386
851.355	22246
851.49	22341
851.625	22086
851.76	22226
851.895	22154
852.03	22154
852.165	22299
852.299	22261
852.434	22459
852.569	22447
852.703	22181
852.838	22428
852.973	22329
853.107	22459
853.242	22261
853.376	22097
853.511	22067
853.645	22086
853.78	22204
853.914	22116
854.048	22021
854.183	22040
854.317	22059
854.451	22314
854.585	21998
854.72	22090
854.854	22120
854.988	21972
855.122	22048
855.256	22029
855.39	21991
855.524	22109
855.658	22147
855.792	22185
855.926	21983
856.06	22086
856.194	22173
856.327	22173
856.461	21880
856.595	22055
856.729	22017
856.862	22169
856.996	22181
857.13	22211
857.263	22185
857.397	22067
857.53	22101
857.664	22158
857.797	22139
857.931	22188
858.064	22238
858.197	22063
858.331	22055
858.464	22002
858.597	21983
858.731	22055
858.864	22006
858.997	22055
859.13	22185
859.263	22040
859.396	22105
859.529	21956
859.662	21949
859.795	22101
859.928	22063
860.061	22211
860.194	22291
860.327	22200
860.46	22044
860.592	22169
860.725	22265
860.858	22147
860.99	22051
861.123	22101
861.256	22059
861.388	22036
861.521	22630
861.653	22017
861.786	21888
861.918	22013
862.05	21922
862.183	21979
862.315	22166
862.447	22109
862.58	21930
862.712	21857
862.844	21732
862.976	21922
863.108	21869
863.24	22200
863.372	21667
863.504	21842
863.636	21800
863.768	21819
863.9	21865
864.032	21641
864.164	21743
864.296	21812
864.428	21812
864.559	21857
864.691	21816
864.823	21717
864.954	21698
865.086	21679
865.217	21778
865.349	21561
865.48	21717
865.612	21652
865.743	21732
865.875	21599
866.006	21568
866.137	21526
866.269	21656
866.4	21667
866.531	21690
866.662	21561
866.793	21644
866.924	21671
867.055	21538
867.186	21637
867.317	21587
867.448	21542
867.579	21557
867.71	21504
867.841	21549
867.972	21576
868.103	21675
868.233	21622
868.364	21576
868.495	21572
868.625	21793
868.756	21865
868.886	21713
869.017	21778
869.147	21983
869.278	21964
869.408	21998
869.539	21800
869.669	21937
869.799	21964
869.929	21949
870.06	21994
870.19	22173
870.32	22078
870.45	22158
870.58	22249
870.71	22253
870.84	22409
870.97	22310
871.1	22287
871.23	22329
871.36	22356
871.489	22318
871.619	22409
871.749	22246
871.879	22546
872.008	22577
872.138	22512
872.267	22344
872.397	22352
872.526	22314
872.656	22234
872.785	22166
872.915	22531
873.044	22656
873.173	22493
873.303	22516
873.432	22440
873.561	22615
873.69	22402
873.819	22478
873.948	22531
874.077	22474
874.206	22367
874.335	22440
874.464	22569
874.593	22668
874.722	22736
874.851	22713
874.979	22653
875.108	22733
875.237	22641
875.365	22565
875.494	22656
875.623	22717
875.751	22660
875.88	22721
876.008	22812
876.136	22938
876.265	23178
876.393	23090
876.521	23048
876.65	23136
876.778	23098
876.906	22984
877.034	23041
877.162	23022
877.29	23006
877.418	22976
877.546	22976
877.674	22976
877.802	23052
877.93	23006
878.058	23083
878.185	22991
878.313	22953
878.441	23006
878.568	22911
878.696	23018
878.824	23071
878.951	23052
879.079	23143
879.206	23387
879.333	23197
879.461	23044
879.588	23162
879.715	23216
879.842	23376
879.97	23052
880.097	22850
880.224	22915
880.351	22908
880.478	22843
880.605	22862
880.732	22850
880.859	23132
880.986	22831
881.112	22828
881.239	22698
881.366	22504
881.493	22523
881.619	22512
881.746	22542
881.872	22451
881.999	22348
882.125	22371
882.252	22344
882.378	22356
882.505	22485
882.631	22207
882.757	22105
882.883	22093
883.01	22090
883.136	21987
883.262	21945
883.388	21937
883.514	22086
883.64	22093
883.766	21979
883.892	21846
884.018	21884
884.143	22021
884.269	22143
884.395	21869
884.52	21766
884.646	21675
884.772	21641
884.897	21622
885.023	21652
885.148	21884
885.274	21838
885.399	21926
885.524	21846
885.65	21816
885.775	21812
885.9	21667
886.025	21816
886.15	21785
886.275	21591
886.4	21538
886.525	21728
886.65	21629
886.775	21622
886.9	21770
887.025	21895
887.149	21603
887.274	21496
887.399	21538
887.523	21599
887.648	21401
887.773	21393
887.897	21504
888.021	21504
888.146	21405
888.27	21587
888.395	21557
888.519	21466
888.643	21534
888.767	21496
888.891	21431
889.015	21203
889.139	21374
889.263	21287
889.387	21382
889.511	21412
889.635	21348
889.759	21218
889.883	21237
890.006	21252
890.13	21397
890.254	21268
890.377	21173
890.501	20948
890.624	20971
890.748	21005
890.871	20906
890.995	20853
891.118	20762
891.241	20876
891.364	20750
891.488	21020
891.611	20788
891.734	20853
891.857	20918
891.98	20872
892.103	20990
892.226	20823
892.349	20674
892.471	20575
892.594	20663
892.717	20724
892.839	20769
892.962	20777
893.085	20773
893.207	20705
893.33	20560
893.452	20655
893.575	20781
893.697	20636
893.819	20883
893.941	20788
894.064	20929
894.186	20697
894.308	20613
894.43	20868
894.552	20769
894.674	20701
894.796	20511
894.918	20731
895.04	20579
895.161	20777
895.283	20804
895.405	20602
895.526	20765
895.648	20640
895.769	20579
895.891	20765
896.012	20853
896.134	20792
896.255	20693
896.376	20670
896.498	20697
896.619	20678
896.74	20632
896.861	20769
896.982	21036
897.103	21211
897.224	20952
897.345	20971
897.466	20895
897.587	20925
897.708	21119
897.828	20937
897.949	20838
898.07	20838
898.19	20864
898.311	20975
898.431	20960
898.552	20849
898.672	20948
898.792	21028
898.913	20895
899.033	20781
899.153	20735
899.273	20583
899.393	20785
899.513	20712
899.633	20533
899.753	20758
899.873	20621
899.993	20583
900.113	20564
900.232	20629
900.352	20625
900.472	20549
900.591	20377
900.711	20461
900.83	20454
900.95	20480
901.069	20461
901.189	20400
901.308	20180
901.427	20016
901.546	20073
901.665	20031
901.784	20043
901.904	19940
902.023	19868
902.141	19582
902.26	19594
902.379	19643
902.498	19464
902.617	19525
902.735	19487
902.854	19464
902.973	19365
903.091	19084
903.21	19293
903.328	19221
903.446	19015
903.565	19012
903.683	19004
903.801	18882
903.919	18920
904.038	18928
904.156	18817
904.274	18779
904.392	18631
904.51	18650
904.627	18707
904.745	18715
904.863	18856
904.981	18490
905.098	18464
905.216	18456
905.334	18448
905.451	18380
905.569	18452
905.686	18395
905.803	18315
905.921	18186
906.038	18277
906.155	18251
906.272	18041
906.389	18125
906.506	18030
906.623	17984
906.74	17927
906.857	17794
906.974	17851
907.091	17908
907.208	18144
907.324	17980
907.441	17863
907.557	17646
907.674	17543
907.79	17543
907.907	17600
908.023	17657
908.139	17691
908.256	17570
908.372	17524
908.488	17520
908.604	17417
908.72	17425
908.836	17315
908.952	17395
909.068	17368
909.184	17444
909.3	17395
909.415	17307
909.531	17330
909.647	17033
909.762	17071
909.878	17083
909.993	17041
910.108	16968
910.224	16938
910.339	17060
910.454	16923
910.57	16942
910.685	16862
910.8	17052
910.915	17006
911.03	16854
911.145	16729
911.259	16538
911.374	16607
911.489	16485
911.604	16493
911.718	16436
911.833	16455
911.947	16329
912.062	16158
912.176	16405
912.291	16382
912.405	16390
912.519	16550
912.633	16603
912.748	16405
912.862	16329
912.976	16261
913.09	16051
913.204	16143
913.318	16223
913.431	16375
913.545	16325
913.659	16257
913.772	16204
913.886	16044
914	15991
914.113	16074
914.226	16196
914.34	16071
914.453	15915
914.566	16059
914.68	15831
914.793	15827
914.906	15701
915.019	15614
915.132	15500
915.245	15526
915.358	15545
915.47	15549
915.583	15629
915.696	15625
915.809	15633
915.921	15656
916.034	15481
916.146	15496
916.259	15382
916.371	15564
916.483	15549
916.595	15443
916.708	15355
916.82	15359
916.932	15359
917.044	15382
917.156	15431
917.268	15203
917.38	15195
917.491	15188
917.603	15332
917.715	15367
917.826	15332
917.938	15112
918.049	15146
918.161	15070
918.272	15298
918.384	15184
918.495	15199
918.606	14956
918.717	14929
918.828	14998
918.939	15055
919.05	14834
919.161	14872
919.272	14693
919.383	14845
919.494	14941
919.604	15142
919.715	15036
919.826	14929
919.936	14921
920.047	15032
920.157	14906
920.267	15077
920.378	15017
920.488	14899
920.598	15070
920.708	15256
920.818	15028
920.928	15047
921.038	15283
921.148	15214
921.258	14823
921.368	14807
921.477	14697
921.587	14587
921.697	14610
921.806	14629
921.916	14552
922.025	14355
922.134	14278
922.244	14233
922.353	14336
922.462	14153
922.571	14031
922.68	13978
922.789	13894
922.898	13967
923.007	13841
923.116	13986
923.224	13887
923.333	13845
923.442	13807
923.55	13849
923.659	13887
923.767	13856
923.876	13674
923.984	13772
924.092	13677
924.201	13689
924.309	13647
924.417	13708
924.525	13651
924.633	13620
924.741	14560
924.849	13407
924.956	13552
925.064	13407
925.172	13278
925.279	13339
925.387	13324
925.494	13278
925.602	13426
925.709	13396
925.816	13251
925.924	13270
926.031	13365
926.138	13240
926.245	13274
926.352	13141
926.459	13266
926.566	13308
926.673	13061
926.779	13000
926.886	13057
926.993	12856
927.099	12901
927.206	12776
927.312	12802
927.419	12901
927.525	12932
927.631	12996
927.737	12863
927.843	12711
927.95	12525
928.056	12563
928.162	12684
928.267	12700
928.373	13278
928.479	12802
928.585	12494
928.69	12639
928.796	12665
928.901	12555
929.007	12437
929.112	12593
929.218	12525
929.323	12471
929.428	12486
929.533	12525
929.638	12342
929.743	12338
929.848	12384
929.953	12323
930.058	12258
930.163	12117
930.267	12133
930.372	12270
930.477	12049
930.581	12407
930.685	12171
930.79	11958
930.894	11958
930.998	11950
931.103	12129
931.207	11733
931.311	11634
931.415	11573
931.519	11334
931.623	11292
