Data from test_V78500241_3025.txt Node
Date: Fri Mar 25 16:02:45 CST 2022
User: usil
Spectrometer: V785-0024
Trigger mode: 0
Integration Time (sec): 4.000000E-1
Scans to average: 1
Nonlinearity correction enabled: false
Boxcar width: 0
Storing dark spectrum: false
XAxis mode: Wavelengths
Number of Pixels in Spectrum: 1024
>>>>>Begin Spectral Data<<<<<
801.071	28721
801.214	28557
801.356	28409
801.499	28352
801.641	28257
801.783	28352
801.926	28268
802.068	28162
802.211	28230
802.353	28097
802.496	27884
802.638	27956
802.78	27899
802.923	27827
803.065	27728
803.208	27759
803.35	27930
803.492	28116
803.635	28219
803.777	27972
803.919	28044
804.061	28470
804.204	28185
804.346	28017
804.488	28048
804.63	28036
804.773	28150
804.915	28223
805.057	28322
805.199	28284
805.341	28356
805.483	28234
805.626	28226
805.768	28124
805.91	28177
806.052	28386
806.194	28265
806.336	28413
806.478	28352
806.62	28405
806.762	28470
806.904	28641
807.046	28816
807.188	28755
807.33	28904
807.472	28850
807.614	28736
807.756	28763
807.898	28618
808.04	28557
808.182	28596
808.324	28641
808.465	28653
808.607	28805
808.749	29006
808.891	29090
809.033	29010
809.174	29067
809.316	28965
809.458	29037
809.6	28972
809.741	28999
809.883	29185
810.025	29326
810.166	29200
810.308	29189
810.45	29105
810.591	29189
810.733	29083
810.875	28961
811.016	28938
811.158	28816
811.299	29044
811.441	29185
811.582	29117
811.724	29044
811.865	28873
812.007	29018
812.148	28965
812.29	29090
812.431	29132
812.573	29273
812.714	29349
812.855	29562
812.997	29592
813.138	29809
813.279	29657
813.421	29402
813.562	29406
813.703	29383
813.845	29170
813.986	28877
814.127	28755
814.268	28752
814.41	28805
814.551	28672
814.692	28862
814.833	28569
814.974	28729
815.115	28812
815.256	28546
815.397	28622
815.539	28596
815.68	28637
815.821	28371
815.962	28489
816.103	28508
816.244	28413
816.385	28276
816.526	28322
816.666	28036
816.807	27937
816.948	28059
817.089	28067
817.23	28013
817.371	28067
817.512	28010
817.653	27907
817.793	28025
817.934	27975
818.075	28051
818.216	28029
818.356	28032
818.497	27937
818.638	27797
818.778	27762
818.919	27789
819.06	27899
819.2	27926
819.341	28055
819.481	28017
819.622	28109
819.762	28322
819.903	28249
820.043	28280
820.184	28188
820.324	28074
820.465	28211
820.605	28082
820.746	28109
820.886	28006
821.026	28105
821.167	28067
821.307	28067
821.447	28006
821.588	27812
821.728	27603
821.868	27671
822.008	27561
822.149	27545
822.289	27420
822.429	27211
822.569	27131
822.709	27214
822.849	27074
822.99	27047
823.13	26834
823.27	26940
823.41	26925
823.55	26724
823.69	26857
823.83	26876
823.97	26735
824.11	26659
824.25	26522
824.389	26606
824.529	26826
824.669	26621
824.809	26693
824.949	26670
825.089	26781
825.228	26640
825.368	26453
825.508	26381
825.648	26537
825.787	26533
825.927	26594
826.067	26564
826.206	26450
826.346	26598
826.485	26583
826.625	26492
826.765	26617
826.904	26537
827.044	26336
827.183	26309
827.323	26248
827.462	26427
827.601	26362
827.741	26176
827.88	26328
828.02	26103
828.159	26278
828.298	26362
828.437	26385
828.577	26206
828.716	26301
828.855	26191
828.994	25902
829.134	25902
829.273	25959
829.412	25849
829.551	25811
829.69	25947
829.829	26031
829.968	26027
830.107	26035
830.246	25993
830.385	25811
830.524	25868
830.663	25738
830.802	25662
830.941	25518
831.08	25518
831.219	25540
831.357	25525
831.496	25696
831.635	25483
831.774	25438
831.913	25312
832.051	25403
832.19	25430
832.329	25335
832.467	25152
832.606	25126
832.744	25038
832.883	25183
833.022	25156
833.16	25320
833.299	25228
833.437	25259
833.576	25384
833.714	25228
833.852	25282
833.991	25251
834.129	25354
834.267	25430
834.406	25362
834.544	25225
834.682	25145
834.821	25194
834.959	25400
835.097	25240
835.235	25346
835.373	25270
835.511	25244
835.65	25069
835.788	25266
835.926	25053
836.064	24913
836.202	24932
836.34	25194
836.478	25206
836.615	25137
836.753	25202
836.891	25152
837.029	25103
837.167	24954
837.305	24935
837.443	24996
837.58	24943
837.718	25019
837.856	25050
837.993	24909
838.131	24913
838.269	24753
838.406	24814
838.544	24806
838.681	24525
838.819	24658
838.956	24429
839.094	24350
839.231	24426
839.369	24547
839.506	24890
839.643	24650
839.781	24426
839.918	24395
840.055	24350
840.193	24418
840.33	24429
840.467	24247
840.604	24315
840.742	24547
840.879	24083
841.016	24148
841.153	24251
841.29	24441
841.427	24239
841.564	24239
841.701	24292
841.838	24152
841.975	24186
842.112	24159
842.249	24060
842.385	24079
842.522	24251
842.659	24095
842.796	23946
842.933	24060
843.069	24034
843.206	23984
843.343	24030
843.479	24171
843.616	24117
843.752	23802
843.889	23988
844.025	23901
844.162	23813
844.298	23977
844.435	23836
844.571	23882
844.708	23870
844.844	23847
844.98	24079
845.117	23939
845.253	23847
845.389	23551
845.525	23741
845.661	23661
845.798	23528
845.934	23608
846.07	23539
846.206	23566
846.342	23672
846.478	23482
846.614	23322
846.75	23235
846.886	23269
847.022	23258
847.158	23303
847.294	23372
847.429	23368
847.565	23212
847.701	23573
847.837	23052
847.972	22972
848.108	23056
848.244	23121
848.379	22984
848.515	22805
848.65	22771
848.786	22919
848.921	22987
849.057	22946
849.192	22919
849.328	22877
849.463	22862
849.598	22866
849.734	22790
849.869	22774
850.004	22672
850.14	22713
850.275	22706
850.41	22565
850.545	22557
850.68	22622
850.815	22538
850.95	22725
851.085	22729
851.22	22790
851.355	22710
851.49	22687
851.625	22622
851.76	22637
851.895	22519
852.03	22675
852.165	22626
852.299	22672
852.434	22733
852.569	22748
852.703	22557
852.838	22717
852.973	22889
853.107	22752
853.242	22577
853.376	22489
853.511	22459
853.645	22447
853.78	22519
853.914	22390
854.048	22341
854.183	22386
854.317	22561
854.451	22706
854.585	22497
854.72	22455
854.854	22474
854.988	22531
855.122	22634
855.256	22318
855.39	22443
855.524	22519
855.658	22394
855.792	22508
855.926	22489
856.06	22466
856.194	22596
856.327	22405
856.461	22421
856.595	22375
856.729	22512
856.862	22546
856.996	22493
857.13	22573
857.263	22508
857.397	22584
857.53	22367
857.664	22447
857.797	22508
857.931	22527
858.064	22462
858.197	22500
858.331	22432
858.464	22478
858.597	22489
858.731	22432
858.864	22436
858.997	22379
859.13	22386
859.263	22295
859.396	22527
859.529	22390
859.662	22413
859.795	22382
859.928	22500
860.061	22656
860.194	22634
860.327	22489
860.46	22493
860.592	22611
860.725	22561
860.858	22584
860.99	22527
861.123	22402
861.256	22318
861.388	22447
861.521	23284
861.653	22337
861.786	22226
861.918	22284
862.05	22386
862.183	22348
862.315	22382
862.447	22417
862.58	22303
862.712	22131
862.844	22143
862.976	22265
863.108	22223
863.24	22554
863.372	22139
863.504	22219
863.636	22147
863.768	22268
863.9	22166
864.032	22131
864.164	22105
864.296	22246
864.428	22234
864.559	22207
864.691	22116
864.823	22143
864.954	22074
865.086	22109
865.217	22093
865.349	21972
865.48	22120
865.612	22036
865.743	22291
865.875	22143
866.006	21926
866.137	22055
866.269	22051
866.4	21934
866.531	22048
866.662	21975
866.793	22055
866.924	21945
867.055	22017
867.186	22006
867.317	21972
867.448	21899
867.579	21903
867.71	21846
867.841	21873
867.972	22013
868.103	22029
868.233	21816
868.364	22017
868.495	22211
868.625	22261
868.756	22310
868.886	22097
869.017	22242
869.147	22204
869.278	22246
869.408	22299
869.539	22234
869.669	22325
869.799	22261
869.929	22379
870.06	22310
870.19	22668
870.32	22554
870.45	22554
870.58	22470
870.71	22668
870.84	22786
870.97	22691
871.1	22603
871.23	22812
871.36	22786
871.489	22683
871.619	22691
871.749	22786
871.879	22911
872.008	22885
872.138	22790
872.267	22847
872.397	22763
872.526	22740
872.656	22603
872.785	22771
872.915	22949
873.044	22854
873.173	22946
873.303	22942
873.432	22793
873.561	22934
873.69	22889
873.819	22877
873.948	22873
874.077	22885
874.206	22736
874.335	22904
874.464	22927
874.593	23048
874.722	22980
874.851	23044
874.979	23083
875.108	23143
875.237	23056
875.365	22965
875.494	23064
875.623	23178
875.751	23136
875.88	23109
876.008	23220
876.136	23223
876.265	23406
876.393	23634
876.521	23634
876.65	23509
876.778	23501
876.906	23497
877.034	23360
877.162	23368
877.29	23406
877.418	23414
877.546	23391
877.674	23395
877.802	23330
877.93	23345
878.058	23356
878.185	23311
878.313	23360
878.441	23242
878.568	23159
878.696	23239
878.824	23452
878.951	23528
879.079	23509
879.206	23577
879.333	23573
879.461	23444
879.588	23512
879.715	23501
879.842	23623
879.97	23425
880.097	23345
880.224	23280
880.351	23143
880.478	23265
880.605	23102
880.732	23208
880.859	23478
880.986	23231
881.112	23273
881.239	22968
881.366	22965
881.493	22869
881.619	22664
881.746	22862
881.872	22759
881.999	22710
882.125	22679
882.252	22744
882.378	22854
882.505	22767
882.631	22691
882.757	22542
882.883	22519
883.01	22474
883.136	22375
883.262	22360
883.388	22287
883.514	22432
883.64	22466
883.766	22291
883.892	22147
884.018	22246
884.143	22421
884.269	22466
884.395	22105
884.52	22105
884.646	21972
884.772	22074
884.897	22055
885.023	22067
885.148	22120
885.274	22211
885.399	22223
885.524	22036
885.65	22067
885.775	22158
885.9	22040
886.025	22147
886.15	22082
886.275	22048
886.4	22059
886.525	21934
886.65	22090
886.775	21911
886.9	22196
887.025	22207
887.149	22093
887.274	21968
887.399	21797
887.523	21956
887.648	21759
887.773	21717
887.897	21915
888.021	21903
888.146	21660
888.27	21941
888.395	22002
888.519	21762
888.643	21857
888.767	21755
888.891	21728
889.015	21679
889.139	21800
889.263	21682
889.387	21804
889.511	21762
889.635	21831
889.759	21549
889.883	21648
890.006	21682
890.13	21800
890.254	21534
890.377	21618
890.501	21329
890.624	21397
890.748	21496
890.871	21370
890.995	21036
891.118	21100
891.241	21245
891.364	21260
891.488	21329
891.611	21157
891.734	21142
891.857	21230
891.98	21294
892.103	21249
892.226	21188
892.349	21195
892.471	20838
892.594	21135
892.717	21047
892.839	21112
892.962	21112
893.085	21154
893.207	21108
893.33	20990
893.452	20956
893.575	21165
893.697	21024
893.819	21180
893.941	21329
894.064	21306
894.186	21036
894.308	20918
894.43	21195
894.552	21184
894.674	21066
894.796	21036
894.918	21142
895.04	21165
895.161	21116
895.283	21173
895.405	20979
895.526	20986
895.648	21104
895.769	21089
895.891	21112
896.012	21195
896.134	20994
896.255	21184
896.376	21028
896.498	21066
896.619	21001
896.74	21157
896.861	21077
896.982	21241
897.103	21572
897.224	21294
897.345	21294
897.466	21268
897.587	21233
897.708	21401
897.828	21249
897.949	21249
898.07	21146
898.19	21306
898.311	21389
898.431	21226
898.552	21340
898.672	21245
898.792	21370
898.913	21146
899.033	21066
899.153	21070
899.273	20899
899.393	21013
899.513	20956
899.633	20925
899.753	20952
899.873	20929
899.993	20918
900.113	20895
900.232	20960
900.352	20792
900.472	20746
900.591	20777
900.711	20845
900.83	20708
900.95	20800
901.069	20842
901.189	20617
901.308	20530
901.427	20358
901.546	20343
901.665	20355
901.784	20259
901.904	20244
902.023	20001
902.141	19860
902.26	19902
902.379	19932
902.498	19830
902.617	19852
902.735	19875
902.854	19784
902.973	19681
903.091	19502
903.21	19476
903.328	19480
903.446	19365
903.565	19282
903.683	19285
903.801	19114
903.919	19213
904.038	19164
904.156	19057
904.274	19038
904.392	19031
904.51	18989
904.627	19110
904.745	19057
904.863	19076
904.981	18852
905.098	18722
905.216	18837
905.334	18623
905.451	18798
905.569	18734
905.686	18738
905.803	18620
905.921	18544
906.038	18620
906.155	18593
906.272	18380
906.389	18350
906.506	18292
906.623	18251
906.74	18174
906.857	18079
906.974	18186
907.091	18270
907.208	18357
907.324	18213
907.441	18091
907.557	17984
907.674	17935
907.79	17885
907.907	17958
908.023	17999
908.139	17863
908.256	17882
908.372	17870
908.488	17863
908.604	17646
908.72	17589
908.836	17680
908.952	17649
909.068	17684
909.184	17752
909.3	17703
909.415	17653
909.531	17649
909.647	17414
909.762	17379
909.878	17425
909.993	17501
910.108	17280
910.224	17330
910.339	17216
910.454	17231
910.57	17056
910.685	17083
910.8	17372
910.915	17353
911.03	17056
911.145	16961
911.259	16915
911.374	16930
911.489	16877
911.604	16862
911.718	16710
911.833	16679
911.947	16622
912.062	16466
912.176	16645
912.291	16694
912.405	16599
912.519	16854
912.633	16934
912.748	16664
912.862	16664
912.976	16367
913.09	16478
913.204	16462
913.318	16440
913.431	16554
913.545	16531
913.659	16702
913.772	16500
913.886	16280
914	16394
914.113	16375
914.226	16363
914.34	16303
914.453	16154
914.566	16276
914.68	16173
914.793	16200
914.906	16040
915.019	15854
915.132	15778
915.245	15785
915.358	15781
915.47	15781
915.583	15926
915.696	15869
915.809	16017
915.921	16010
916.034	15785
916.146	15770
916.259	15804
916.371	15819
916.483	15838
916.595	15682
916.708	15774
916.82	15709
916.932	15663
917.044	15633
917.156	15618
917.268	15511
917.38	15584
917.491	15545
917.603	15367
917.715	15542
917.826	15595
917.938	15439
918.049	15264
918.161	15435
918.272	15462
918.384	15580
918.495	15488
918.606	15245
918.717	15260
918.828	15214
918.939	15241
919.05	15207
919.161	15214
919.272	14998
919.383	15077
919.494	15180
919.604	15321
919.715	15230
919.826	15100
919.936	15180
920.047	15241
920.157	15214
920.267	15458
920.378	15142
920.488	15119
920.598	15332
920.708	15492
920.818	15279
920.928	15332
921.038	15511
921.148	15401
921.258	15070
921.368	15036
921.477	14944
921.587	14811
921.697	14769
921.806	14902
921.916	14720
922.025	14606
922.134	14606
922.244	14412
922.353	14484
922.462	14484
922.571	14282
922.68	14191
922.789	14202
922.898	14210
923.007	14164
923.116	14271
923.224	14103
923.333	14130
923.442	14020
923.55	13986
923.659	14130
923.767	14164
923.876	13925
923.984	14084
924.092	13875
924.201	13883
924.309	13871
924.417	13769
924.525	13814
924.633	13772
924.741	14564
924.849	13647
924.956	13772
925.064	13647
925.172	13491
925.279	13662
925.387	13552
925.494	13597
925.602	13784
925.709	13521
925.816	13381
925.924	13518
926.031	13540
926.138	13525
926.245	13445
926.352	13384
926.459	13540
926.566	13544
926.673	13457
926.779	13308
926.886	13301
926.993	13061
927.099	13088
927.206	13072
927.312	13076
927.419	13213
927.525	13027
927.631	13046
927.737	13057
927.843	12958
927.95	12844
928.056	12859
928.162	12894
928.267	12989
928.373	13453
928.479	12905
928.585	12738
928.69	12825
928.796	12882
928.901	12734
929.007	12658
929.112	12703
929.218	12741
929.323	12681
929.428	12544
929.533	12726
929.638	12593
929.743	12620
929.848	12627
929.953	12578
930.058	12433
930.163	12376
930.267	12258
930.372	12376
930.477	12258
930.581	12433
930.685	12254
930.79	12171
930.894	12178
930.998	12117
931.103	12277
931.207	11904
931.311	11927
931.415	11726
931.519	11558
931.623	11520
