Data from test_V78500241_1140.txt Node
Date: Fri Mar 25 15:49:41 CST 2022
User: usil
Spectrometer: V785-0024
Trigger mode: 0
Integration Time (sec): 4.000000E-1
Scans to average: 1
Nonlinearity correction enabled: false
Boxcar width: 0
Storing dark spectrum: false
XAxis mode: Wavelengths
Number of Pixels in Spectrum: 1024
>>>>>Begin Spectral Data<<<<<
801.071	28246
801.214	28295
801.356	28105
801.499	27899
801.641	27880
801.783	27797
801.926	27979
802.068	27892
802.211	27865
802.353	27671
802.496	27625
802.638	27412
802.78	27523
802.923	27310
803.065	27374
803.208	27553
803.35	27507
803.492	27572
803.635	27819
803.777	27652
803.919	27739
804.061	28013
804.204	27759
804.346	27671
804.488	27656
804.63	27595
804.773	27599
804.915	27675
805.057	27759
805.199	27819
805.341	27709
805.483	27968
805.626	27781
805.768	27762
805.91	27819
806.052	27960
806.194	27774
806.336	28101
806.478	28002
806.62	27888
806.762	28086
806.904	28128
807.046	28497
807.188	28504
807.33	28344
807.472	28401
807.614	28314
807.756	28333
807.898	28166
808.04	28246
808.182	28188
808.324	28249
808.465	28341
808.607	28462
808.749	28516
808.891	28611
809.033	28721
809.174	28573
809.316	28577
809.458	28474
809.6	28459
809.741	28569
809.883	28744
810.025	28896
810.166	28820
810.308	28934
810.45	28812
810.591	28710
810.733	28759
810.875	28508
811.016	28500
811.158	28485
811.299	28493
811.441	28862
811.582	28759
811.724	28740
811.865	28607
812.007	28599
812.148	28550
812.29	28645
812.431	28668
812.573	28847
812.714	29136
812.855	29124
812.997	29208
813.138	29379
813.279	29334
813.421	29075
813.562	28965
813.703	28915
813.845	28816
813.986	28603
814.127	28314
814.268	28398
814.41	28291
814.551	28272
814.692	28295
814.833	28124
814.974	28356
815.115	28261
815.256	28093
815.397	28215
815.539	28078
815.68	28044
815.821	28124
815.962	28173
816.103	28006
816.244	27998
816.385	27842
816.526	27895
816.666	27690
816.807	27587
816.948	27724
817.089	27622
817.23	27694
817.371	27637
817.512	27656
817.653	27580
817.793	27622
817.934	27671
818.075	27660
818.216	27648
818.356	27530
818.497	27420
818.638	27287
818.778	27325
818.919	27424
819.06	27439
819.2	27511
819.341	27599
819.481	27660
819.622	27819
819.762	27956
819.903	27903
820.043	27812
820.184	27755
820.324	27755
820.465	27865
820.605	27694
820.746	27606
820.886	27576
821.026	27690
821.167	27694
821.307	27759
821.447	27576
821.588	27542
821.728	27405
821.868	27306
822.008	27070
822.149	27013
822.289	27074
822.429	26834
822.569	26678
822.709	26819
822.849	26712
822.99	26541
823.13	26533
823.27	26606
823.41	26385
823.55	26267
823.69	26290
823.83	26389
823.97	26309
824.11	26202
824.25	26286
824.389	26164
824.529	26396
824.669	26180
824.809	26267
824.949	26488
825.089	26442
825.228	26275
825.368	26122
825.508	26050
825.648	26096
825.787	26145
825.927	26290
826.067	26214
826.206	26088
826.346	26157
826.485	26237
826.625	26183
826.765	26172
826.904	26183
827.044	25887
827.183	25860
827.323	25902
827.462	25970
827.601	25879
827.741	25902
827.88	25944
828.02	25590
828.159	25761
828.298	25883
828.437	25940
828.577	25719
828.716	25811
828.855	25807
828.994	25529
829.134	25609
829.273	25518
829.412	25643
829.551	25544
829.69	25582
829.829	25548
829.968	25643
830.107	25556
830.246	25575
830.385	25483
830.524	25567
830.663	25308
830.802	25259
830.941	25221
831.08	25194
831.219	25236
831.357	25285
831.496	25289
831.635	25297
831.774	25133
831.913	25057
832.051	24992
832.19	24856
832.329	24973
832.467	24779
832.606	24840
832.744	24734
832.883	24779
833.022	24783
833.16	24760
833.299	24882
833.437	24943
833.576	24825
833.714	24722
833.852	24920
833.991	24966
834.129	24848
834.267	24920
834.406	24947
834.544	24916
834.682	24833
834.821	24897
834.959	25103
835.097	24726
835.235	24947
835.373	24848
835.511	24951
835.65	24696
835.788	24745
835.926	24627
836.064	24475
836.202	24696
836.34	24913
836.478	24707
836.615	24791
836.753	24715
836.891	24681
837.029	24749
837.167	24623
837.305	24536
837.443	24532
837.58	24544
837.718	24578
837.856	24582
837.993	24426
838.131	24505
838.269	24357
838.406	24498
838.544	24388
838.681	24129
838.819	24155
838.956	23893
839.094	24026
839.231	24159
839.369	24163
839.506	24452
839.643	24296
839.781	23954
839.918	23980
840.055	24015
840.193	23920
840.33	23958
840.467	24110
840.604	23939
840.742	24190
840.879	23771
841.016	23912
841.153	23794
841.29	23946
841.427	23927
841.564	24038
841.701	23840
841.838	24041
841.975	23904
842.112	23923
842.249	23684
842.385	23775
842.522	23748
842.659	23771
842.796	23608
842.933	23794
843.069	23687
843.206	23665
843.343	23726
843.479	23680
843.616	23707
843.752	23398
843.889	23509
844.025	23558
844.162	23531
844.298	23478
844.435	23459
844.571	23414
844.708	23535
844.844	23577
844.98	23665
845.117	23600
845.253	23440
845.389	23353
845.525	23372
845.661	23277
845.798	23193
845.934	23246
846.07	23117
846.206	23132
846.342	23273
846.478	23193
846.614	22968
846.75	22782
846.886	22881
847.022	22816
847.158	22987
847.294	22843
847.429	22930
847.565	22854
847.701	23121
847.837	22641
847.972	22618
848.108	22706
848.244	22668
848.379	22603
848.515	22531
848.65	22478
848.786	22527
848.921	22470
849.057	22512
849.192	22630
849.328	22542
849.463	22405
849.598	22531
849.734	22318
849.869	22337
850.004	22276
850.14	22363
850.275	22173
850.41	22211
850.545	22158
850.68	22306
850.815	22291
850.95	22257
851.085	22379
851.22	22299
851.355	22284
851.49	22253
851.625	22261
851.76	22284
851.895	22215
852.03	22147
852.165	22265
852.299	22219
852.434	22226
852.569	22169
852.703	22223
852.838	22265
852.973	22459
853.107	22367
853.242	22223
853.376	22097
853.511	21880
853.645	22063
853.78	22135
853.914	22078
854.048	22063
854.183	21941
854.317	22143
854.451	22253
854.585	22158
854.72	22055
854.854	22188
854.988	22128
855.122	22082
855.256	22025
855.39	22101
855.524	22143
855.658	22173
855.792	22097
855.926	22162
856.06	22234
856.194	22169
856.327	22006
856.461	22002
856.595	21918
856.729	21991
856.862	22124
856.996	22082
857.13	22063
857.263	22234
857.397	22226
857.53	22124
857.664	22150
857.797	22139
857.931	22120
858.064	21964
858.197	22177
858.331	22051
858.464	21930
858.597	21865
858.731	21979
858.864	22067
858.997	21956
859.13	22086
859.263	22169
859.396	22150
859.529	22112
859.662	22116
859.795	21888
859.928	22139
860.061	22204
860.194	22352
860.327	22055
860.46	22086
860.592	22344
860.725	22207
860.858	22257
860.99	22021
861.123	21941
861.256	22040
861.388	22154
861.521	22774
861.653	22002
861.786	21991
861.918	21865
862.05	21960
862.183	21979
862.315	21903
862.447	21991
862.58	21915
862.712	21842
862.844	21679
862.976	21892
863.108	21835
863.24	22337
863.372	21663
863.504	21736
863.636	21652
863.768	21701
863.9	21641
864.032	21701
864.164	21717
864.296	21747
864.428	21831
864.559	21854
864.691	21835
864.823	21789
864.954	21770
865.086	21873
865.217	21690
865.349	21610
865.48	21663
865.612	21682
865.743	21850
865.875	21682
866.006	21637
866.137	21644
866.269	21500
866.4	21652
866.531	21667
866.662	21500
866.793	21572
866.924	21492
867.055	21728
867.186	21587
867.317	21633
867.448	21443
867.579	21633
867.71	21477
867.841	21454
867.972	21610
868.103	21568
868.233	21572
868.364	21625
868.495	21694
868.625	21800
868.756	21808
868.886	21762
869.017	21728
869.147	21922
869.278	22025
869.408	21873
869.539	21861
869.669	21998
869.799	21838
869.929	21865
870.06	21819
870.19	22105
870.32	22177
870.45	22010
870.58	22166
870.71	22303
870.84	22341
870.97	22234
871.1	22196
871.23	22318
871.36	22462
871.489	22367
871.619	22356
871.749	22588
871.879	22417
872.008	22596
872.138	22375
872.267	22417
872.397	22333
872.526	22280
872.656	22417
872.785	22314
872.915	22405
873.044	22656
873.173	22512
873.303	22478
873.432	22497
873.561	22497
873.69	22443
873.819	22462
873.948	22481
874.077	22508
874.206	22432
874.335	22390
874.464	22569
874.593	22721
874.722	22470
874.851	22561
874.979	22721
875.108	22698
875.237	22630
875.365	22634
875.494	22531
875.623	22733
875.751	22637
875.88	22698
876.008	22805
876.136	22946
876.265	23014
876.393	23189
876.521	23071
876.65	23216
876.778	22885
876.906	22968
877.034	23029
877.162	22976
877.29	22980
877.418	22957
877.546	23079
877.674	23060
877.802	23098
877.93	22999
878.058	22919
878.185	22816
878.313	22999
878.441	23022
878.568	22733
878.696	22930
878.824	22976
878.951	23056
879.079	23140
879.206	23296
879.333	23292
879.461	23018
879.588	23060
879.715	23143
879.842	23292
879.97	23075
880.097	22885
880.224	22820
880.351	22915
880.478	22889
880.605	22778
880.732	22763
880.859	23048
880.986	22797
881.112	22839
881.239	22687
881.366	22599
881.493	22535
881.619	22451
881.746	22466
881.872	22382
881.999	22310
882.125	22318
882.252	22333
882.378	22398
882.505	22512
882.631	22284
882.757	22067
882.883	22162
883.01	22013
883.136	21956
883.262	21884
883.388	21972
883.514	22204
883.64	22116
883.766	21903
883.892	21941
884.018	21823
884.143	21892
884.269	21926
884.395	21861
884.52	21644
884.646	21759
884.772	21762
884.897	21538
885.023	21705
885.148	21766
885.274	21854
885.399	21766
885.524	21675
885.65	21663
885.775	21675
885.9	21789
886.025	21808
886.15	21857
886.275	21576
886.4	21557
886.525	21690
886.65	21523
886.775	21739
886.9	21694
887.025	21930
887.149	21736
887.274	21492
887.399	21469
887.523	21545
887.648	21538
887.773	21458
887.897	21431
888.021	21481
888.146	21378
888.27	21561
888.395	21466
888.519	21401
888.643	21485
888.767	21469
888.891	21393
889.015	21275
889.139	21279
889.263	21256
889.387	21408
889.511	21435
889.635	21488
889.759	21306
889.883	21344
890.006	21241
890.13	21408
890.254	21154
890.377	21340
890.501	21051
890.624	21020
890.748	20998
890.871	20880
890.995	20796
891.118	20727
891.241	20849
891.364	20743
891.488	20971
891.611	20864
891.734	20819
891.857	20861
891.98	20823
892.103	20724
892.226	20754
892.349	20670
892.471	20518
892.594	20765
892.717	20785
892.839	20693
892.962	20735
893.085	20838
893.207	20621
893.33	20594
893.452	20701
893.575	20712
893.697	20621
893.819	20746
893.941	20902
894.064	20819
894.186	20609
894.308	20549
894.43	20743
894.552	20887
894.674	20644
894.796	20701
894.918	20621
895.04	20724
895.161	20701
895.283	20731
895.405	20674
895.526	20739
895.648	20712
895.769	20716
895.891	20777
896.012	20819
896.134	20712
896.255	20807
896.376	20621
896.498	20727
896.619	20716
896.74	20655
896.861	20682
896.982	20944
897.103	21085
897.224	21013
897.345	20975
897.466	20880
897.587	20960
897.708	21055
897.828	20876
897.949	20819
898.07	20758
898.19	20823
898.311	20990
898.431	20777
898.552	20925
898.672	20937
898.792	21043
898.913	20952
899.033	20762
899.153	20716
899.273	20541
899.393	20667
899.513	20651
899.633	20724
899.753	20674
899.873	20552
899.993	20644
900.113	20488
900.232	20609
900.352	20552
900.472	20480
900.591	20385
900.711	20381
900.83	20317
900.95	20533
901.069	20507
901.189	20252
901.308	20134
901.427	19925
901.546	19982
901.665	19936
901.784	20020
901.904	19921
902.023	19731
902.141	19487
902.26	19514
902.379	19548
902.498	19525
902.617	19365
902.735	19495
902.854	19487
902.973	19373
903.091	19187
903.21	19240
903.328	19232
903.446	19099
903.565	18943
903.683	18932
903.801	18776
903.919	18852
904.038	18859
904.156	18783
904.274	18688
904.392	18635
904.51	18707
904.627	18711
904.745	18768
904.863	18882
904.981	18582
905.098	18292
905.216	18414
905.334	18471
905.451	18369
905.569	18429
905.686	18494
905.803	18395
905.921	18144
906.038	18300
906.155	18140
906.272	18140
906.389	17969
906.506	17878
906.623	17923
906.74	17958
906.857	17794
906.974	17767
907.091	17958
907.208	18015
907.324	17874
907.441	17798
907.557	17634
907.674	17570
907.79	17638
907.907	17615
908.023	17745
908.139	17600
908.256	17611
908.372	17493
908.488	17474
908.604	17372
908.72	17372
908.836	17406
908.952	17353
909.068	17345
909.184	17368
909.3	17364
909.415	17417
909.531	17273
909.647	17151
909.762	17006
909.878	17071
909.993	17056
910.108	16923
910.224	16961
910.339	17052
910.454	16946
910.57	16881
910.685	16733
910.8	17033
910.915	17029
911.03	16862
911.145	16607
911.259	16672
911.374	16687
911.489	16531
911.604	16382
911.718	16360
911.833	16424
911.947	16276
912.062	16299
912.176	16386
912.291	16394
912.405	16428
912.519	16592
912.633	16523
912.748	16436
912.862	16352
912.976	16131
913.09	16071
913.204	16097
913.318	16200
913.431	16253
913.545	16185
913.659	16284
913.772	16086
913.886	15991
914	15926
914.113	16086
914.226	16013
914.34	16063
914.453	15831
914.566	15983
914.68	15800
914.793	15838
914.906	15652
915.019	15637
915.132	15549
915.245	15599
915.358	15625
915.47	15553
915.583	15526
915.696	15576
915.809	15732
915.921	15663
916.034	15393
916.146	15389
916.259	15515
916.371	15538
916.483	15511
916.595	15325
916.708	15412
916.82	15458
916.932	15435
917.044	15256
917.156	15249
917.268	15237
917.38	15218
917.491	15294
917.603	15313
917.715	15306
917.826	15340
917.938	15154
918.049	15047
918.161	15085
918.272	15275
918.384	15195
918.495	15176
918.606	15047
918.717	14963
918.828	14910
918.939	14990
919.05	14823
919.161	14853
919.272	14796
919.383	14842
919.494	14933
919.604	15135
919.715	14857
919.826	14807
919.936	14872
920.047	14971
920.157	14956
920.267	15093
920.378	14861
920.488	14826
920.598	15119
920.708	15203
920.818	15138
920.928	15104
921.038	15203
921.148	15211
921.258	14804
921.368	14743
921.477	14644
921.587	14644
921.697	14533
921.806	14754
921.916	14404
922.025	14324
922.134	14271
922.244	14149
922.353	14229
922.462	14210
922.571	14138
922.68	13841
922.789	13849
922.898	13898
923.007	13864
923.116	13864
923.224	13856
923.333	13932
923.442	13708
923.55	13753
923.659	13719
923.767	13811
923.876	13636
923.984	13742
924.092	13609
924.201	13723
924.309	13647
924.417	13563
924.525	13575
924.633	13468
924.741	14313
924.849	13403
924.956	13624
925.064	13240
925.172	13244
925.279	13320
925.387	13301
925.494	13346
925.602	13415
925.709	13331
925.816	13251
925.924	13270
926.031	13346
926.138	13285
926.245	13282
926.352	13160
926.459	13369
926.566	13339
926.673	13187
926.779	13095
926.886	13023
926.993	12928
927.099	12829
927.206	12844
927.312	12829
927.419	12882
927.525	12977
927.631	12871
927.737	12726
927.843	12738
927.95	12597
928.056	12673
928.162	12650
928.267	12783
928.373	13308
928.479	12745
928.585	12498
928.69	12665
928.796	12635
928.901	12563
929.007	12456
929.112	12521
929.218	12502
929.323	12380
929.428	12384
929.533	12513
929.638	12350
929.743	12361
929.848	12365
929.953	12380
930.058	12247
930.163	12022
930.267	12091
930.372	12262
930.477	12057
930.581	12243
930.685	12110
930.79	12015
930.894	12019
930.998	11950
931.103	12095
931.207	11726
931.311	11642
931.415	11543
931.519	11360
931.623	11303
