Data from test_V78500241_1677.txt Node
Date: Fri Mar 25 15:53:25 CST 2022
User: usil
Spectrometer: V785-0024
Trigger mode: 0
Integration Time (sec): 4.000000E-1
Scans to average: 1
Nonlinearity correction enabled: false
Boxcar width: 0
Storing dark spectrum: false
XAxis mode: Wavelengths
Number of Pixels in Spectrum: 1024
>>>>>Begin Spectral Data<<<<<
801.071	28147
801.214	28219
801.356	28029
801.499	27850
801.641	27785
801.783	27747
801.926	27789
802.068	27751
802.211	27759
802.353	27641
802.496	27530
802.638	27523
802.78	27439
802.923	27344
803.065	27226
803.208	27291
803.35	27458
803.492	27610
803.635	27743
803.777	27618
803.919	27618
804.061	27907
804.204	27679
804.346	27580
804.488	27671
804.63	27637
804.773	27496
804.915	27587
805.057	27846
805.199	27637
805.341	27724
805.483	27808
805.626	27698
805.768	27618
805.91	27728
806.052	27865
806.194	27713
806.336	27998
806.478	27705
806.62	27903
806.762	27888
806.904	28086
807.046	28265
807.188	28234
807.33	28150
807.472	28352
807.614	28238
807.756	28158
807.898	28017
808.04	28070
808.182	28036
808.324	28090
808.465	28086
808.607	28306
808.749	28401
808.891	28504
809.033	28523
809.174	28603
809.316	28428
809.458	28443
809.6	28421
809.741	28516
809.883	28569
810.025	28759
810.166	28763
810.308	28733
810.45	28828
810.591	28675
810.733	28519
810.875	28363
811.016	28462
811.158	28261
811.299	28500
811.441	28596
811.582	28577
811.724	28451
811.865	28344
812.007	28394
812.148	28303
812.29	28386
812.431	28603
812.573	28850
812.714	28801
812.855	28923
812.997	29109
813.138	28995
813.279	29071
813.421	28980
813.562	28976
813.703	28778
813.845	28687
813.986	28409
814.127	28226
814.268	28135
814.41	28173
814.551	28280
814.692	28143
814.833	28063
814.974	28158
815.115	28181
815.256	28013
815.397	27945
815.539	27949
815.68	27983
815.821	27903
815.962	27934
816.103	27998
816.244	27869
816.385	27679
816.526	27743
816.666	27637
816.807	27332
816.948	27393
817.089	27587
817.23	27466
817.371	27523
817.512	27298
817.653	27340
817.793	27431
817.934	27397
818.075	27557
818.216	27355
818.356	27469
818.497	27233
818.638	27211
818.778	27214
818.919	27207
819.06	27214
819.2	27424
819.341	27355
819.481	27287
819.622	27701
819.762	27747
819.903	27648
820.043	27660
820.184	27583
820.324	27549
820.465	27511
820.605	27526
820.746	27648
820.886	27351
821.026	27610
821.167	27542
821.307	27591
821.447	27492
821.588	27325
821.728	27294
821.868	27306
822.008	27131
822.149	26902
822.289	26933
822.429	26712
822.569	26564
822.709	26530
822.849	26476
822.99	26385
823.13	26438
823.27	26590
823.41	26161
823.55	26138
823.69	26195
823.83	26286
823.97	26187
824.11	26077
824.25	26088
824.389	26016
824.529	26119
824.669	26214
824.809	26081
824.949	26008
825.089	26096
825.228	26153
825.368	25947
825.508	25799
825.648	25936
825.787	26016
825.927	26073
826.067	25841
826.206	25894
826.346	25993
826.485	25921
826.625	25811
826.765	26046
826.904	26012
827.044	25643
827.183	25799
827.323	25708
827.462	25567
827.601	25674
827.741	25575
827.88	25620
828.02	25605
828.159	25632
828.298	25708
828.437	25681
828.577	25635
828.716	25776
828.855	25499
828.994	25335
829.134	25301
829.273	25396
829.412	25392
829.551	25198
829.69	25225
829.829	25365
829.968	25384
830.107	25449
830.246	25274
830.385	25141
830.524	25190
830.663	25156
830.802	25126
830.941	24977
831.08	24795
831.219	25080
831.357	24909
831.496	25152
831.635	24970
831.774	24947
831.913	24852
832.051	24764
832.19	24661
832.329	24620
832.467	24787
832.606	24631
832.744	24578
832.883	24627
833.022	24517
833.16	24787
833.299	24646
833.437	24646
833.576	24734
833.714	24749
833.852	24768
833.991	24741
834.129	24726
834.267	24787
834.406	24726
834.544	24734
834.682	24642
834.821	24669
834.959	24920
835.097	24574
835.235	24711
835.373	24559
835.511	24612
835.65	24475
835.788	24513
835.926	24372
836.064	24273
836.202	24281
836.34	24418
836.478	24658
836.615	24437
836.753	24483
836.891	24467
837.029	24521
837.167	24353
837.305	24365
837.443	24410
837.58	24232
837.718	24334
837.856	24243
837.993	24292
838.131	24403
838.269	24209
838.406	24220
838.544	24076
838.681	24155
838.819	24018
838.956	23935
839.094	23714
839.231	23691
839.369	23874
839.506	24304
839.643	24018
839.781	23843
839.918	23809
840.055	23741
840.193	23764
840.33	23653
840.467	23745
840.604	23840
840.742	23984
840.879	23497
841.016	23718
841.153	23608
841.29	23889
841.427	23680
841.564	23771
841.701	23680
841.838	23577
841.975	23573
842.112	23687
842.249	23604
842.385	23501
842.522	23581
842.659	23444
842.796	23528
842.933	23486
843.069	23406
843.206	23311
843.343	23459
843.479	23444
843.616	23455
843.752	23410
843.889	23140
844.025	23368
844.162	23284
844.298	23410
844.435	23204
844.571	23067
844.708	23220
844.844	23364
844.98	23482
845.117	23326
845.253	23212
845.389	23064
845.525	23113
845.661	23067
845.798	22942
845.934	23022
846.07	22976
846.206	22900
846.342	23033
846.478	22980
846.614	22793
846.75	22599
846.886	22683
847.022	22691
847.158	22900
847.294	22721
847.429	22786
847.565	22630
847.701	22934
847.837	22527
847.972	22398
848.108	22523
848.244	22512
848.379	22436
848.515	22379
848.65	22246
848.786	22303
848.921	22371
849.057	22535
849.192	22299
849.328	22325
849.463	22249
849.598	22337
849.734	22223
849.869	22223
850.004	22139
850.14	22093
850.275	22017
850.41	22048
850.545	21987
850.68	21945
850.815	21972
850.95	22086
851.085	22314
851.22	22280
851.355	22029
851.49	21953
851.625	21934
851.76	21998
851.895	21994
852.03	22010
852.165	22105
852.299	22082
852.434	22086
852.569	21975
852.703	21998
852.838	22143
852.973	22249
853.107	22204
853.242	21922
853.376	21949
853.511	21846
853.645	21876
853.78	22055
853.914	21949
854.048	21831
854.183	21827
854.317	21926
854.451	22097
854.585	21934
854.72	21991
854.854	21968
854.988	21671
855.122	21884
855.256	21816
855.39	21926
855.524	22017
855.658	21926
855.792	21960
855.926	22010
856.06	21865
856.194	22112
856.327	21774
856.461	21823
856.595	21816
856.729	21926
856.862	22048
856.996	21994
857.13	21937
857.263	22025
857.397	21926
857.53	21930
857.664	21861
857.797	22055
857.931	21899
858.064	22013
858.197	21991
858.331	21842
858.464	21911
858.597	21953
858.731	21793
858.864	21827
858.997	21838
859.13	21876
859.263	21941
859.396	21983
859.529	21892
859.662	21781
859.795	21850
859.928	21876
860.061	22067
860.194	22211
860.327	21915
860.46	22097
860.592	22135
860.725	22086
860.858	22044
860.99	22093
861.123	21797
861.256	21880
861.388	21998
861.521	22717
861.653	21816
861.786	21663
861.918	21717
862.05	21899
862.183	21808
862.315	21793
862.447	21903
862.58	21819
862.712	21656
862.844	21553
862.976	21644
863.108	21690
863.24	22181
863.372	21526
863.504	21637
863.636	21595
863.768	21656
863.9	21663
864.032	21534
864.164	21580
864.296	21705
864.428	21701
864.559	21747
864.691	21625
864.823	21652
864.954	21713
865.086	21553
865.217	21641
865.349	21530
865.48	21462
865.612	21424
865.743	21679
865.875	21405
866.006	21431
866.137	21519
866.269	21564
866.4	21348
866.531	21428
866.662	21473
866.793	21477
866.924	21466
867.055	21450
867.186	21439
867.317	21355
867.448	21439
867.579	21348
867.71	21321
867.841	21298
867.972	21462
868.103	21370
868.233	21431
868.364	21367
868.495	21511
868.625	21682
868.756	21686
868.886	21614
869.017	21587
869.147	21705
869.278	21690
869.408	21743
869.539	21755
869.669	21838
869.799	21736
869.929	21778
870.06	21759
870.19	21880
870.32	21949
870.45	21998
870.58	22063
870.71	22154
870.84	22173
870.97	21975
871.1	22143
871.23	22188
871.36	22200
871.489	22162
871.619	22162
871.749	22177
871.879	22344
872.008	22379
872.138	22207
872.267	22128
872.397	22101
872.526	22082
872.656	22196
872.785	22135
872.915	22314
873.044	22341
873.173	22344
873.303	22367
873.432	22310
873.561	22485
873.69	22299
873.819	22375
873.948	22379
874.077	22272
874.206	22234
874.335	22257
874.464	22421
874.593	22577
874.722	22481
874.851	22519
874.979	22637
875.108	22519
875.237	22443
875.365	22402
875.494	22542
875.623	22459
875.751	22497
875.88	22588
876.008	22637
876.136	22660
876.265	22790
876.393	22999
876.521	23006
876.65	23003
876.778	22892
876.906	22839
877.034	22828
877.162	22771
877.29	22805
877.418	22866
877.546	22927
877.674	22862
877.802	22786
877.93	22839
878.058	22843
878.185	22679
878.313	22915
878.441	22923
878.568	22645
878.696	22755
878.824	22790
878.951	23018
879.079	23060
879.206	23174
879.333	22972
879.461	22885
879.588	23029
879.715	23010
879.842	23132
879.97	22839
880.097	22668
880.224	22656
880.351	22668
880.478	22641
880.605	22485
880.732	22721
880.859	22961
880.986	22523
881.112	22649
881.239	22497
881.366	22405
881.493	22341
881.619	22276
881.746	22291
881.872	22215
881.999	22234
882.125	22242
882.252	22306
882.378	22196
882.505	22360
882.631	22139
882.757	22032
882.883	21964
883.01	21960
883.136	21899
883.262	21808
883.388	21747
883.514	21884
883.64	21949
883.766	21819
883.892	21690
884.018	21717
884.143	21945
884.269	21907
884.395	21762
884.52	21587
884.646	21705
884.772	21408
884.897	21481
885.023	21603
885.148	21572
885.274	21576
885.399	21690
885.524	21538
885.65	21564
885.775	21530
885.9	21504
886.025	21652
886.15	21633
886.275	21511
886.4	21397
886.525	21553
886.65	21545
886.775	21511
886.9	21603
887.025	21937
887.149	21564
887.274	21405
887.399	21325
887.523	21252
887.648	21378
887.773	21275
887.897	21412
888.021	21428
888.146	21226
888.27	21401
888.395	21469
888.519	21256
888.643	21287
888.767	21431
888.891	21241
889.015	21047
889.139	21173
889.263	21104
889.387	21169
889.511	21275
889.635	21169
889.759	21116
889.883	20990
890.006	21275
890.13	21222
890.254	21047
890.377	21020
890.501	20872
890.624	20914
890.748	20811
890.871	20853
890.995	20701
891.118	20609
891.241	20693
891.364	20621
891.488	20815
891.611	20682
891.734	20651
891.857	20701
891.98	20800
892.103	20708
892.226	20644
892.349	20484
892.471	20358
892.594	20617
892.717	20560
892.839	20545
892.962	20575
893.085	20579
893.207	20674
893.33	20499
893.452	20495
893.575	20697
893.697	20457
893.819	20765
893.941	20739
894.064	20648
894.186	20549
894.308	20480
894.43	20655
894.552	20876
894.674	20579
894.796	20530
894.918	20473
895.04	20541
895.161	20594
895.283	20629
895.405	20476
895.526	20678
895.648	20454
895.769	20594
895.891	20530
896.012	20667
896.134	20621
896.255	20545
896.376	20526
896.498	20495
896.619	20564
896.74	20583
896.861	20632
896.982	20819
897.103	21100
897.224	20667
897.345	20781
897.466	20804
897.587	20815
897.708	20918
897.828	20804
897.949	20712
898.07	20617
898.19	20720
898.311	20861
898.431	20891
898.552	20708
898.672	20849
898.792	20796
898.913	20853
899.033	20689
899.153	20613
899.273	20427
899.393	20537
899.513	20415
899.633	20533
899.753	20530
899.873	20457
899.993	20575
900.113	20434
900.232	20328
900.352	20461
900.472	20290
900.591	20278
900.711	20286
900.83	20237
900.95	20480
901.069	20419
901.189	20180
901.308	19974
901.427	19731
901.546	19917
901.665	19917
901.784	19917
901.904	19811
902.023	19677
902.141	19312
902.26	19468
902.379	19552
902.498	19426
902.617	19308
902.735	19365
902.854	19301
902.973	19171
903.091	19050
903.21	19038
903.328	19091
903.446	18897
903.565	18932
903.683	18878
903.801	18875
903.919	18779
904.038	18886
904.156	18547
904.274	18745
904.392	18654
904.51	18692
904.627	18563
904.745	18677
904.863	18631
904.981	18422
905.098	18277
905.216	18319
905.334	18266
905.451	18338
905.569	18342
905.686	18327
905.803	18091
905.921	18026
906.038	18201
906.155	18117
906.272	17992
906.389	18038
906.506	17897
906.623	17863
906.74	17786
906.857	17630
906.974	17748
907.091	17832
907.208	17904
907.324	17851
907.441	17718
907.557	17592
907.674	17516
907.79	17509
907.907	17520
908.023	17516
908.139	17459
908.256	17459
908.372	17326
908.488	17258
908.604	17235
908.72	17185
908.836	17273
908.952	17204
909.068	17265
909.184	17220
909.3	17288
909.415	17307
909.531	17315
909.647	17041
909.762	16847
909.878	16915
909.993	16881
910.108	16965
910.224	16866
910.339	16858
910.454	16877
910.57	16721
910.685	16717
910.8	16889
910.915	16828
911.03	16550
911.145	16538
911.259	16550
911.374	16577
911.489	16470
911.604	16375
911.718	16303
911.833	16242
911.947	16154
912.062	16105
912.176	16230
912.291	16291
912.405	16196
912.519	16504
912.633	16428
912.748	16352
912.862	16306
912.976	16048
913.09	16006
913.204	16067
913.318	16162
913.431	16150
913.545	16112
913.659	16192
913.772	16105
913.886	15937
914	15850
914.113	15876
914.226	16002
914.34	15941
914.453	15808
914.566	15812
914.68	15766
914.793	15679
914.906	15458
915.019	15386
915.132	15462
915.245	15355
915.358	15477
915.47	15458
915.583	15469
915.696	15633
915.809	15561
915.921	15667
916.034	15405
916.146	15473
916.259	15325
916.371	15450
916.483	15424
916.595	15329
916.708	15351
916.82	15298
916.932	15192
917.044	15287
917.156	15218
917.268	15123
917.38	15013
917.491	15097
917.603	15154
917.715	15161
917.826	15142
917.938	15093
918.049	14979
918.161	14979
918.272	15195
918.384	15218
918.495	15032
918.606	14918
918.717	14785
918.828	15013
918.939	14864
919.05	14705
919.161	14777
919.272	14689
919.383	14712
919.494	14921
919.604	15108
919.715	14876
919.826	14811
919.936	14815
920.047	14895
920.157	14880
920.267	14986
920.378	14826
920.488	14834
920.598	15070
920.708	15077
920.818	14986
920.928	15017
921.038	15043
921.148	15199
921.258	14849
921.368	14697
921.477	14678
921.587	14583
921.697	14328
921.806	14655
921.916	14332
922.025	14259
922.134	14229
922.244	14145
922.353	14275
922.462	14126
922.571	14008
922.68	13925
922.789	13890
922.898	13947
923.007	13898
923.116	13932
923.224	13837
923.333	13822
923.442	13837
923.55	13723
923.659	13757
923.767	13700
923.876	13616
923.984	13575
924.092	13651
924.201	13601
924.309	13685
924.417	13586
924.525	13605
924.633	13575
924.741	14263
924.849	13263
924.956	13445
925.064	13396
925.172	13221
925.279	13206
925.387	13285
925.494	13270
925.602	13388
925.709	13331
925.816	13156
925.924	13209
926.031	13358
926.138	13149
926.245	13209
926.352	13088
926.459	13346
926.566	13183
926.673	13152
926.779	13042
926.886	12970
926.993	12913
927.099	12871
927.206	12806
927.312	12734
927.419	12859
927.525	12760
927.631	12817
927.737	12787
927.843	12665
927.95	12547
928.056	12646
928.162	12722
928.267	12658
928.373	13285
928.479	12635
928.585	12483
928.69	12566
928.796	12525
928.901	12464
929.007	12350
929.112	12593
929.218	12517
929.323	12266
929.428	12391
929.533	12494
929.638	12243
929.743	12319
929.848	12311
929.953	12388
930.058	12197
930.163	11965
930.267	11992
930.372	12235
930.477	12026
930.581	12155
930.685	12041
930.79	11946
930.894	12007
930.998	11874
931.103	12022
931.207	11710
931.311	11543
931.415	11452
931.519	11284
931.623	11326
