Data from test_V78500241_2602.txt Node
Date: Fri Mar 25 15:59:49 CST 2022
User: usil
Spectrometer: V785-0024
Trigger mode: 0
Integration Time (sec): 4.000000E-1
Scans to average: 1
Nonlinearity correction enabled: false
Boxcar width: 0
Storing dark spectrum: false
XAxis mode: Wavelengths
Number of Pixels in Spectrum: 1024
>>>>>Begin Spectral Data<<<<<
801.071	28885
801.214	28725
801.356	28584
801.499	28417
801.641	28409
801.783	28363
801.926	28417
802.068	28363
802.211	28333
802.353	28341
802.496	28196
802.638	28215
802.78	28147
802.923	28063
803.065	28044
803.208	27983
803.35	28082
803.492	28341
803.635	28295
803.777	28177
803.919	28352
804.061	28607
804.204	28337
804.346	28276
804.488	28207
804.63	28421
804.773	28325
804.915	28401
805.057	28424
805.199	28447
805.341	28493
805.483	28478
805.626	28531
805.768	28310
805.91	28569
806.052	28478
806.194	28470
806.336	28603
806.478	28527
806.62	28516
806.762	28603
806.904	28816
807.046	29003
807.188	29037
807.33	28972
807.472	29071
807.614	28965
807.756	28915
807.898	28877
808.04	28866
808.182	28790
808.324	28797
808.465	28949
808.607	29060
808.749	29364
808.891	29353
809.033	29216
809.174	29315
809.316	29208
809.458	29284
809.6	29147
809.741	29258
809.883	29311
810.025	29524
810.166	29493
810.308	29429
810.45	29455
810.591	29387
810.733	29353
810.875	29216
811.016	28946
811.158	29170
811.299	29311
811.441	29356
811.582	29273
811.724	29208
811.865	29166
812.007	29231
812.148	29220
812.29	29296
812.431	29383
812.573	29474
812.714	29577
812.855	29741
812.997	29908
813.138	30018
813.279	29847
813.421	29737
813.562	29707
813.703	29573
813.845	29558
813.986	29124
814.127	29117
814.268	29064
814.41	29117
814.551	29121
814.692	28984
814.833	28790
814.974	28885
815.115	28900
815.256	28888
815.397	28965
815.539	28744
815.68	28622
815.821	28736
815.962	28801
816.103	28816
816.244	28626
816.385	28626
816.526	28531
816.666	28390
816.807	28322
816.948	28246
817.089	28375
817.23	28246
817.371	28177
817.512	28318
817.653	28242
817.793	28265
817.934	28401
818.075	28257
818.216	28147
818.356	28257
818.497	28032
818.638	28120
818.778	27979
818.919	27914
819.06	28139
819.2	28097
819.341	28188
819.481	28261
819.622	28451
819.762	28626
819.903	28386
820.043	28493
820.184	28519
820.324	28306
820.465	28306
820.605	28322
820.746	28291
820.886	28291
821.026	28409
821.167	28253
821.307	28455
821.447	28204
821.588	28234
821.728	28097
821.868	27922
822.008	27793
822.149	27778
822.289	27751
822.429	27462
822.569	27447
822.709	27378
822.849	27287
822.99	27195
823.13	27142
823.27	27199
823.41	27214
823.55	26986
823.69	27047
823.83	27024
823.97	26990
824.11	26823
824.25	26868
824.389	26853
824.529	27024
824.669	26910
824.809	27047
824.949	26994
825.089	27051
825.228	26975
825.368	26830
825.508	26663
825.648	26720
825.787	26655
825.927	26906
826.067	26765
826.206	26777
826.346	26887
826.485	26883
826.625	26880
826.765	26826
826.904	26720
827.044	26617
827.183	26621
827.323	26507
827.462	26632
827.601	26415
827.741	26473
827.88	26568
828.02	26389
828.159	26594
828.298	26609
828.437	26549
828.577	26385
828.716	26549
828.855	26434
828.994	26073
829.134	26191
829.273	26134
829.412	26214
829.551	26100
829.69	26065
829.829	26218
829.968	26275
830.107	26305
830.246	26145
830.385	26134
830.524	26073
830.663	26149
830.802	25822
830.941	25761
831.08	25795
831.219	25887
831.357	25811
831.496	26035
831.635	25833
831.774	25674
831.913	25708
832.051	25590
832.19	25601
832.329	25548
832.467	25422
832.606	25350
832.744	25285
832.883	25430
833.022	25510
833.16	25312
833.299	25499
833.437	25403
833.576	25514
833.714	25544
833.852	25571
833.991	25559
834.129	25609
834.267	25525
834.406	25521
834.544	25639
834.682	25616
834.821	25537
834.959	25689
835.097	25476
835.235	25632
835.373	25533
835.511	25483
835.65	25483
835.788	25304
835.926	25209
836.064	25202
836.202	25156
836.34	25304
836.478	25343
836.615	25240
836.753	25198
836.891	25346
837.029	25339
837.167	25198
837.305	25240
837.443	25114
837.58	25008
837.718	25324
837.856	25240
837.993	25091
838.131	25076
838.269	25004
838.406	25042
838.544	25015
838.681	24928
838.819	24852
838.956	24604
839.094	24642
839.231	24658
839.369	24840
839.506	24970
839.643	24852
839.781	24654
839.918	24627
840.055	24623
840.193	24536
840.33	24475
840.467	24589
840.604	24513
840.742	24814
840.879	24308
841.016	24418
841.153	24441
841.29	24551
841.427	24479
841.564	24612
841.701	24456
841.838	24544
841.975	24452
842.112	24350
842.249	24441
842.385	24262
842.522	24452
842.659	24384
842.796	24296
842.933	24308
843.069	24300
843.206	24311
843.343	24338
843.479	24323
843.616	24266
843.752	24045
843.889	24148
844.025	24224
844.162	23939
844.298	24232
844.435	24163
844.571	23946
844.708	23980
844.844	24243
844.98	24277
845.117	24125
845.253	24053
845.389	23935
845.525	23870
845.661	23984
845.798	23824
845.934	23745
846.07	23638
846.206	23901
846.342	23977
846.478	23771
846.614	23524
846.75	23391
846.886	23535
847.022	23562
847.158	23444
847.294	23531
847.429	23649
847.565	23455
847.701	23752
847.837	23288
847.972	23044
848.108	23265
848.244	23277
848.379	23212
848.515	23090
848.65	23022
848.786	23098
848.921	23098
849.057	23303
849.192	23136
849.328	23010
849.463	23067
849.598	22930
849.734	23006
849.869	22999
850.004	22869
850.14	22923
850.275	23003
850.41	22869
850.545	22835
850.68	22953
850.815	22831
850.95	23006
851.085	23033
851.22	23006
851.355	22858
851.49	22854
851.625	22866
851.76	22889
851.895	22752
852.03	22744
852.165	22812
852.299	22866
852.434	22946
852.569	22946
852.703	22927
852.838	22904
852.973	22980
853.107	22942
853.242	22774
853.376	22683
853.511	22611
853.645	22641
853.78	22752
853.914	22668
854.048	22531
854.183	22626
854.317	22782
854.451	22873
854.585	22793
854.72	22710
854.854	22736
854.988	22660
855.122	22771
855.256	22542
855.39	22611
855.524	22668
855.658	22755
855.792	22793
855.926	22729
856.06	22717
856.194	22675
856.327	22668
856.461	22725
856.595	22603
856.729	22782
856.862	22733
856.996	22801
857.13	22801
857.263	22835
857.397	22740
857.53	22740
857.664	22793
857.797	22843
857.931	22820
858.064	22626
858.197	22885
858.331	22634
858.464	22603
858.597	22535
858.731	22774
858.864	22687
858.997	22630
859.13	22672
859.263	22710
859.396	22904
859.529	22618
859.662	22691
859.795	22740
859.928	22706
860.061	22938
860.194	22980
860.327	22816
860.46	22774
860.592	22831
860.725	22835
860.858	22885
860.99	22809
861.123	22656
861.256	22580
861.388	22786
861.521	23429
861.653	22531
861.786	22580
861.918	22516
862.05	22546
862.183	22611
862.315	22653
862.447	22748
862.58	22622
862.712	22436
862.844	22367
862.976	22607
863.108	22565
863.24	22927
863.372	22261
863.504	22421
863.636	22504
863.768	22462
863.9	22348
864.032	22249
864.164	22360
864.296	22402
864.428	22413
864.559	22561
864.691	22542
864.823	22455
864.954	22386
865.086	22390
865.217	22344
865.349	22284
865.48	22295
865.612	22333
865.743	22344
865.875	22310
866.006	22379
866.137	22352
866.269	22265
866.4	22223
866.531	22246
866.662	22265
866.793	22196
866.924	22185
867.055	22261
867.186	22200
867.317	22226
867.448	21994
867.579	22181
867.71	22139
867.841	22169
867.972	22131
868.103	22162
868.233	22234
868.364	22249
868.495	22333
868.625	22474
868.756	22535
868.886	22405
869.017	22310
869.147	22474
869.278	22512
869.408	22622
869.539	22417
869.669	22626
869.799	22504
869.929	22569
870.06	22702
870.19	22915
870.32	22691
870.45	22790
870.58	22953
870.71	22908
870.84	22911
870.97	22797
871.1	22824
871.23	23098
871.36	22968
871.489	22953
871.619	23064
871.749	22968
871.879	23132
872.008	23208
872.138	23014
872.267	23124
872.397	22919
872.526	22850
872.656	22828
872.785	22831
872.915	22968
873.044	23102
873.173	23117
873.303	23052
873.432	23159
873.561	23105
873.69	23124
873.819	23029
873.948	23117
874.077	23052
874.206	23041
874.335	23189
874.464	23102
874.593	23280
874.722	23185
874.851	23315
874.979	23239
875.108	23299
875.237	23216
875.365	23303
875.494	23258
875.623	23356
875.751	23231
875.88	23220
876.008	23406
876.136	23619
876.265	23699
876.393	23756
876.521	23661
876.65	23707
876.778	23573
876.906	23657
877.034	23600
877.162	23592
877.29	23414
877.418	23581
877.546	23604
877.674	23551
877.802	23619
877.93	23600
878.058	23558
878.185	23440
878.313	23501
878.441	23589
878.568	23288
878.696	23410
878.824	23562
878.951	23665
879.079	23828
879.206	23760
879.333	23589
879.461	23611
879.588	23771
879.715	23733
879.842	23847
879.97	23710
880.097	23478
880.224	23459
880.351	23459
880.478	23436
880.605	23288
880.732	23467
880.859	23619
880.986	23528
881.112	23497
881.239	23277
881.366	23204
881.493	23098
881.619	23029
881.746	23003
881.872	22938
881.999	22911
882.125	22812
882.252	23029
882.378	23041
882.505	23003
882.631	22850
882.757	22672
882.883	22649
883.01	22706
883.136	22557
883.262	22447
883.388	22481
883.514	22672
883.64	22637
883.766	22512
883.892	22436
884.018	22386
884.143	22580
884.269	22672
884.395	22363
884.52	22211
884.646	22310
884.772	22120
884.897	22287
885.023	22379
885.148	22447
885.274	22497
885.399	22329
885.524	22253
885.65	22211
885.775	22287
885.9	22200
886.025	22306
886.15	22409
886.275	22177
886.4	22265
886.525	22272
886.65	22154
886.775	22238
886.9	22402
887.025	22535
887.149	22192
887.274	22055
887.399	22082
887.523	21998
887.648	22048
887.773	21907
887.897	22219
888.021	22105
888.146	22048
888.27	22181
888.395	22147
888.519	22055
888.643	22067
888.767	22017
888.891	22025
889.015	21739
889.139	21846
889.263	21918
889.387	22021
889.511	22181
889.635	22067
889.759	21899
889.883	21739
890.006	21850
890.13	21865
890.254	21808
890.377	21736
890.501	21603
890.624	21511
890.748	21633
890.871	21557
890.995	21317
891.118	21298
891.241	21443
891.364	21329
891.488	21496
891.611	21450
891.734	21336
891.857	21439
891.98	21519
892.103	21435
892.226	21317
892.349	21344
892.471	21230
892.594	21226
892.717	21268
892.839	21161
892.962	21226
893.085	21344
893.207	21150
893.33	21161
893.452	21203
893.575	21363
893.697	21218
893.819	21332
893.941	21526
894.064	21370
894.186	21237
894.308	21226
894.43	21454
894.552	21389
894.674	21325
894.796	21218
894.918	21321
895.04	21104
895.161	21279
895.283	21306
895.405	21169
895.526	21207
895.648	21237
895.769	21207
895.891	21233
896.012	21431
896.134	21348
896.255	21264
896.376	21340
896.498	21222
896.619	21222
896.74	21218
896.861	21428
896.982	21496
897.103	21618
897.224	21568
897.345	21469
897.466	21374
897.587	21511
897.708	21542
897.828	21416
897.949	21370
898.07	21226
898.19	21412
898.311	21549
898.431	21310
898.552	21348
898.672	21473
898.792	21553
898.913	21473
899.033	21336
899.153	21264
899.273	21180
899.393	21154
899.513	21173
899.633	21146
899.753	21169
899.873	20971
899.993	21195
900.113	21020
900.232	21135
900.352	20979
900.472	21047
900.591	20914
900.711	20944
900.83	20944
900.95	21009
901.069	21043
901.189	20826
901.308	20663
901.427	20552
901.546	20575
901.665	20598
901.784	20549
901.904	20339
902.023	20271
902.141	20008
902.26	20005
902.379	20256
902.498	20107
902.617	20001
902.735	20069
902.854	19989
902.973	19917
903.091	19628
903.21	19696
903.328	19556
903.446	19567
903.565	19422
903.683	19483
903.801	19381
903.919	19354
904.038	19434
904.156	19259
904.274	19202
904.392	19198
904.51	19152
904.627	19137
904.745	19160
904.863	19312
904.981	18985
905.098	18913
905.216	18867
905.334	18901
905.451	18825
905.569	18894
905.686	18844
905.803	18848
905.921	18654
906.038	18798
906.155	18601
906.272	18642
906.389	18452
906.506	18441
906.623	18338
906.74	18433
906.857	18213
906.974	18395
907.091	18369
907.208	18513
907.324	18369
907.441	18251
907.557	18129
907.674	18155
907.79	18022
907.907	18072
908.023	18167
908.139	18155
908.256	18053
908.372	18057
908.488	18076
908.604	17874
908.72	17824
908.836	17783
908.952	17790
909.068	17923
909.184	17912
909.3	17783
909.415	17802
909.531	17840
909.647	17535
909.762	17585
909.878	17516
909.993	17551
910.108	17417
910.224	17387
910.339	17452
910.454	17254
910.57	17273
910.685	17383
910.8	17364
910.915	17486
911.03	17345
911.145	17174
911.259	17075
911.374	17064
911.489	17025
911.604	16911
911.718	16835
911.833	16733
911.947	16744
912.062	16744
912.176	16809
912.291	16896
912.405	16824
912.519	16953
912.633	16991
912.748	16805
912.862	16862
912.976	16565
913.09	16599
913.204	16622
913.318	16565
913.431	16702
913.545	16805
913.659	16812
913.772	16618
913.886	16466
914	16405
914.113	16474
914.226	16478
914.34	16504
914.453	16360
914.566	16455
914.68	16303
914.793	16166
914.906	15934
915.019	15994
915.132	15983
915.245	16006
915.358	16002
915.47	15975
915.583	15994
915.696	15960
915.809	16097
915.921	16128
916.034	15903
916.146	15918
916.259	15876
916.371	16097
916.483	16002
916.595	15831
916.708	15800
916.82	15789
916.932	15705
917.044	15800
917.156	15751
917.268	15584
917.38	15622
917.491	15564
917.603	15660
917.715	15747
917.826	15762
917.938	15542
918.049	15447
918.161	15469
918.272	15648
918.384	15591
918.495	15557
918.606	15348
918.717	15329
918.828	15329
918.939	15401
919.05	15348
919.161	15416
919.272	15123
919.383	15157
919.494	15351
919.604	15500
919.715	15336
919.826	15237
919.936	15359
920.047	15382
920.157	15313
920.267	15462
920.378	15279
920.488	15207
920.598	15454
920.708	15618
920.818	15393
920.928	15428
921.038	15614
921.148	15428
921.258	15329
921.368	15222
921.477	15039
921.587	14986
921.697	14933
921.806	15085
921.916	14815
922.025	14785
922.134	14571
922.244	14610
922.353	14686
922.462	14549
922.571	14461
922.68	14309
922.789	14332
922.898	14294
923.007	14294
923.116	14366
923.224	14244
923.333	14305
923.442	14084
923.55	14115
923.659	14012
923.767	14100
923.876	14001
923.984	14107
924.092	13959
924.201	14092
924.309	14050
924.417	13887
924.525	13974
924.633	13970
924.741	14895
924.849	13757
924.956	13818
925.064	13776
925.172	13616
925.279	13582
925.387	13719
925.494	13666
925.602	13685
925.709	13689
925.816	13582
925.924	13613
926.031	13670
926.138	13594
926.245	13590
926.352	13480
926.459	13643
926.566	13624
926.673	13434
926.779	13457
926.886	13369
926.993	13266
927.099	13240
927.206	13168
927.312	13118
927.419	13240
927.525	13179
927.631	13270
927.737	13088
927.843	13091
927.95	12909
928.056	13012
928.162	13057
928.267	12993
928.373	13578
928.479	13091
928.585	12932
928.69	13004
928.796	12939
928.901	12894
929.007	12730
929.112	12772
929.218	12916
929.323	12779
929.428	12787
929.533	12859
929.638	12635
929.743	12757
929.848	12642
929.953	12650
930.058	12536
930.163	12380
930.267	12426
930.372	12494
930.477	12460
930.581	12551
930.685	12388
930.79	12323
930.894	12304
930.998	12273
931.103	12403
931.207	12076
931.311	11961
931.415	11855
931.519	11661
931.623	11604
