Data from test_V78500241_3057.txt Node
Date: Fri Mar 25 16:02:58 CST 2022
User: usil
Spectrometer: V785-0024
Trigger mode: 0
Integration Time (sec): 4.000000E-1
Scans to average: 1
Nonlinearity correction enabled: false
Boxcar width: 0
Storing dark spectrum: false
XAxis mode: Wavelengths
Number of Pixels in Spectrum: 1024
>>>>>Begin Spectral Data<<<<<
801.071	28527
801.214	28481
801.356	28226
801.499	28261
801.641	28116
801.783	28074
801.926	28082
802.068	28143
802.211	28002
802.353	27972
802.496	27850
802.638	27751
802.78	27800
802.923	27682
803.065	27660
803.208	27781
803.35	27827
803.492	27914
803.635	27998
803.777	27842
803.919	28029
804.061	28382
804.204	28109
804.346	27861
804.488	27884
804.63	27949
804.773	28006
804.915	28048
805.057	28287
805.199	27903
805.341	28120
805.483	28135
805.626	28284
805.768	28078
805.91	28348
806.052	28093
806.194	28112
806.336	28466
806.478	28268
806.62	28230
806.762	28238
806.904	28459
807.046	28717
807.188	28470
807.33	28729
807.472	28679
807.614	28550
807.756	28653
807.898	28432
808.04	28443
808.182	28284
808.324	28470
808.465	28466
808.607	28656
808.749	28675
808.891	28957
809.033	29014
809.174	28858
809.316	28850
809.458	28873
809.6	28713
809.741	28896
809.883	28896
810.025	29083
810.166	29037
810.308	29094
810.45	28953
810.591	29079
810.733	28904
810.875	28805
811.016	28599
811.158	28596
811.299	28915
811.441	28911
811.582	28934
811.724	28854
811.865	28847
812.007	28816
812.148	28786
812.29	28904
812.431	28961
812.573	29322
812.714	29128
812.855	29204
812.997	29562
813.138	29611
813.279	29551
813.421	29391
813.562	29471
813.703	29166
813.845	28961
813.986	28771
814.127	28599
814.268	28382
814.41	28478
814.551	28455
814.692	28577
814.833	28348
814.974	28329
815.115	28561
815.256	28485
815.397	28382
815.539	28474
815.68	28329
815.821	28322
815.962	28436
816.103	28314
816.244	28154
816.385	28204
816.526	28181
816.666	27930
816.807	27823
816.948	27880
817.089	28055
817.23	27819
817.371	27884
817.512	27819
817.653	27869
817.793	27759
817.934	27911
818.075	28017
818.216	27869
818.356	27770
818.497	27747
818.638	27644
818.778	27587
818.919	27641
819.06	27591
819.2	27762
819.341	27892
819.481	27842
819.622	27994
819.762	28329
819.903	28131
820.043	28093
820.184	28002
820.324	27930
820.465	28116
820.605	28010
820.746	27804
820.886	27747
821.026	28074
821.167	27930
821.307	28010
821.447	27880
821.588	27774
821.728	27492
821.868	27447
822.008	27511
822.149	27302
822.289	27310
822.429	27070
822.569	26967
822.709	27013
822.849	26861
822.99	26845
823.13	26826
823.27	26750
823.41	26682
823.55	26689
823.69	26701
823.83	26693
823.97	26583
824.11	26499
824.25	26381
824.389	26556
824.529	26552
824.669	26575
824.809	26735
824.949	26629
825.089	26560
825.228	26598
825.368	26393
825.508	26351
825.648	26396
825.787	26355
825.927	26415
826.067	26358
826.206	26313
826.346	26431
826.485	26320
826.625	26301
826.765	26309
826.904	26385
827.044	26073
827.183	26027
827.323	26111
827.462	26206
827.601	26088
827.741	26077
827.88	26107
828.02	25932
828.159	26024
828.298	26100
828.437	26161
828.577	26081
828.716	26221
828.855	25993
828.994	25791
829.134	25757
829.273	25856
829.412	25765
829.551	25769
829.69	25799
829.829	25712
829.968	25833
830.107	25913
830.246	25738
830.385	25681
830.524	25803
830.663	25548
830.802	25521
830.941	25263
831.08	25400
831.219	25460
831.357	25400
831.496	25628
831.635	25430
831.774	25247
831.913	25232
832.051	25221
832.19	25164
832.329	25061
832.467	24992
832.606	24848
832.744	24992
832.883	25019
833.022	24970
833.16	24985
833.299	25042
833.437	25069
833.576	24985
833.714	25072
833.852	25133
833.991	25175
834.129	25137
834.267	25107
834.406	25160
834.544	24989
834.682	25198
834.821	24989
834.959	25194
835.097	24970
835.235	25148
835.373	25069
835.511	25103
835.65	24859
835.788	24981
835.926	24764
836.064	24745
836.202	24837
836.34	24814
836.478	24996
836.615	24951
836.753	24958
836.891	24913
837.029	25031
837.167	24901
837.305	24760
837.443	24757
837.58	24673
837.718	24776
837.856	24730
837.993	24711
838.131	24825
838.269	24646
838.406	24658
838.544	24700
838.681	24308
838.819	24292
838.956	24266
839.094	24239
839.231	24197
839.369	24365
839.506	24703
839.643	24578
839.781	24258
839.918	24239
840.055	24144
840.193	24308
840.33	24095
840.467	24216
840.604	24140
840.742	24422
840.879	24045
841.016	24148
841.153	24140
841.29	24079
841.427	24136
841.564	24106
841.701	24064
841.838	24068
841.975	24026
842.112	23939
842.249	23942
842.385	23961
842.522	24057
842.659	24060
842.796	23931
842.933	23965
843.069	23824
843.206	23802
843.343	23958
843.479	23813
843.616	23992
843.752	23718
843.889	23623
844.025	23741
844.162	23653
844.298	23741
844.435	23623
844.571	23531
844.708	23703
844.844	23866
844.98	23916
845.117	23912
845.253	23703
845.389	23531
845.525	23600
845.661	23531
845.798	23429
845.934	23551
846.07	23376
846.206	23398
846.342	23604
846.478	23356
846.614	23277
846.75	23067
846.886	23128
847.022	23235
847.158	23079
847.294	23200
847.429	23231
847.565	23147
847.701	23391
847.837	22812
847.972	22927
848.108	22873
848.244	23010
848.379	22752
848.515	22809
848.65	22675
848.786	22687
848.921	22771
849.057	22812
849.192	22778
849.328	22721
849.463	22786
849.598	22618
849.734	22546
849.869	22672
850.004	22573
850.14	22485
850.275	22546
850.41	22363
850.545	22322
850.68	22459
850.815	22550
850.95	22466
851.085	22668
851.22	22455
851.355	22500
851.49	22459
851.625	22542
851.76	22474
851.895	22542
852.03	22447
852.165	22569
852.299	22508
852.434	22687
852.569	22451
852.703	22455
852.838	22504
852.973	22592
853.107	22527
853.242	22478
853.376	22329
853.511	22139
853.645	22166
853.78	22325
853.914	22306
854.048	22417
854.183	22314
854.317	22367
854.451	22531
854.585	22303
854.72	22310
854.854	22500
854.988	22265
855.122	22360
855.256	22177
855.39	22356
855.524	22344
855.658	22196
855.792	22318
855.926	22436
856.06	22325
856.194	22363
856.327	22447
856.461	22211
856.595	22230
856.729	22329
856.862	22341
856.996	22375
857.13	22352
857.263	22440
857.397	22363
857.53	22318
857.664	22310
857.797	22394
857.931	22459
858.064	22272
858.197	22470
858.331	22249
858.464	22249
858.597	22131
858.731	22284
858.864	22341
858.997	22238
859.13	22284
859.263	22223
859.396	22470
859.529	22268
859.662	22272
859.795	22272
859.928	22379
860.061	22466
860.194	22512
860.327	22443
860.46	22455
860.592	22432
860.725	22481
860.858	22466
860.99	22268
861.123	22196
861.256	22257
861.388	22295
861.521	22965
861.653	22109
861.786	22059
861.918	22090
862.05	22173
862.183	22166
862.315	22215
862.447	22272
862.58	22154
862.712	22067
862.844	21972
862.976	22234
863.108	22078
863.24	22546
863.372	21949
863.504	22025
863.636	22093
863.768	22097
863.9	22112
864.032	21930
864.164	21873
864.296	22078
864.428	22200
864.559	22090
864.691	22086
864.823	22029
864.954	22002
865.086	21987
865.217	21949
865.349	21804
865.48	21869
865.612	21922
865.743	22067
865.875	21903
866.006	21892
866.137	21930
866.269	21850
866.4	22013
866.531	21724
866.662	21785
866.793	21827
866.924	21789
867.055	21854
867.186	21785
867.317	21709
867.448	21690
867.579	21778
867.71	21736
867.841	21778
867.972	21819
868.103	21854
868.233	21804
868.364	21751
868.495	21770
868.625	22040
868.756	22162
868.886	21892
869.017	22109
869.147	22188
869.278	22253
869.408	21956
869.539	22101
869.669	22196
869.799	22177
869.929	22188
870.06	22196
870.19	22261
870.32	22204
870.45	22398
870.58	22459
870.71	22523
870.84	22523
870.97	22546
871.1	22447
871.23	22736
871.36	22706
871.489	22565
871.619	22542
871.749	22607
871.879	22675
872.008	22809
872.138	22706
872.267	22691
872.397	22603
872.526	22367
872.656	22421
872.785	22447
872.915	22698
873.044	22862
873.173	22691
873.303	22771
873.432	22698
873.561	22752
873.69	22721
873.819	22706
873.948	22873
874.077	22687
874.206	22702
874.335	22774
874.464	22900
874.593	22984
874.722	22793
874.851	22923
874.979	22877
875.108	23064
875.237	22889
875.365	22771
875.494	22858
875.623	22987
875.751	22987
875.88	22919
876.008	22980
876.136	22946
876.265	23341
876.393	23273
876.521	23391
876.65	23353
876.778	23204
876.906	23242
877.034	23204
877.162	23307
877.29	23102
877.418	23277
877.546	23250
877.674	23231
877.802	23200
877.93	23193
878.058	23143
878.185	23098
878.313	23261
878.441	23041
878.568	23117
878.696	23242
878.824	23090
878.951	23318
879.079	23478
879.206	23551
879.333	23539
879.461	23376
879.588	23398
879.715	23334
879.842	23482
879.97	23273
880.097	23033
880.224	23003
880.351	22984
880.478	23033
880.605	23052
880.732	23064
880.859	23322
880.986	23067
881.112	23124
881.239	22976
881.366	22873
881.493	22809
881.619	22569
881.746	22759
881.872	22668
881.999	22630
882.125	22653
882.252	22584
882.378	22516
882.505	22656
882.631	22542
882.757	22367
882.883	22310
883.01	22329
883.136	22375
883.262	22055
883.388	22109
883.514	22459
883.64	22310
883.766	22341
883.892	22036
884.018	21998
884.143	22367
884.269	22257
884.395	21991
884.52	21937
884.646	21937
884.772	21915
884.897	21899
885.023	21975
885.148	22051
885.274	22097
885.399	22082
885.524	22006
885.65	22006
885.775	22051
885.9	21819
886.025	22048
886.15	22013
886.275	21918
886.4	21846
886.525	21960
886.65	21835
886.775	21827
886.9	21968
887.025	22181
887.149	21880
887.274	21724
887.399	21743
887.523	21690
887.648	21770
887.773	21504
887.897	21736
888.021	21720
888.146	21667
888.27	21679
888.395	21838
888.519	21770
888.643	21808
888.767	21694
888.891	21633
889.015	21523
889.139	21526
889.263	21477
889.387	21553
889.511	21679
889.635	21545
889.759	21355
889.883	21450
890.006	21466
890.13	21591
890.254	21523
890.377	21298
890.501	21336
890.624	21203
890.748	21294
890.871	21093
890.995	21142
891.118	21089
891.241	21020
891.364	21112
891.488	21127
891.611	21058
891.734	21138
891.857	21173
891.98	20982
892.103	21047
892.226	21070
892.349	21024
892.471	20826
892.594	21036
892.717	21001
892.839	20807
892.962	20872
893.085	21005
893.207	20971
893.33	20819
893.452	20960
893.575	20948
893.697	20956
893.819	21112
893.941	21188
894.064	21096
894.186	20883
894.308	20811
894.43	21058
894.552	21089
894.674	21017
894.796	20830
894.918	20902
895.04	20743
895.161	20902
895.283	20971
895.405	20937
895.526	20990
895.648	20861
895.769	20861
895.891	20902
896.012	21070
896.134	20796
896.255	20956
896.376	20872
896.498	21020
896.619	20807
896.74	20842
896.861	20948
896.982	21275
897.103	21466
897.224	21146
897.345	21199
897.466	21108
897.587	21161
897.708	21211
897.828	21062
897.949	21119
898.07	20929
898.19	20910
898.311	21310
898.431	21062
898.552	21154
898.672	21146
898.792	21093
898.913	21192
899.033	21043
899.153	20967
899.273	20777
899.393	20785
899.513	21001
899.633	20910
899.753	20853
899.873	20758
899.993	20895
900.113	20743
900.232	20830
900.352	20727
900.472	20693
900.591	20533
900.711	20705
900.83	20678
900.95	20781
901.069	20701
901.189	20537
901.308	20275
901.427	20157
901.546	20187
901.665	20191
901.784	20218
901.904	20043
902.023	20046
902.141	19788
902.26	19681
902.379	19913
902.498	19708
902.617	19689
902.735	19670
902.854	19662
902.973	19643
903.091	19396
903.21	19316
903.328	19324
903.446	19266
903.565	19183
903.683	19259
903.801	19000
903.919	19152
904.038	19004
904.156	18935
904.274	18977
904.392	18920
904.51	18924
904.627	18829
904.745	18996
904.863	18920
904.981	18798
905.098	18585
905.216	18616
905.334	18677
905.451	18681
905.569	18513
905.686	18585
905.803	18555
905.921	18372
906.038	18441
906.155	18380
906.272	18369
906.389	18270
906.506	18129
906.623	18148
906.74	18057
906.857	17961
906.974	18049
907.091	18076
907.208	18273
907.324	18163
907.441	17992
907.557	17828
907.674	17832
907.79	17817
907.907	17764
908.023	17885
908.139	17813
908.256	17752
908.372	17646
908.488	17619
908.604	17657
908.72	17474
908.836	17638
908.952	17467
909.068	17684
909.184	17707
909.3	17463
909.415	17482
909.531	17585
909.647	17311
909.762	17326
909.878	17212
909.993	17261
910.108	17288
910.224	17231
910.339	17296
910.454	17041
910.57	17075
910.685	17113
910.8	17227
910.915	17178
911.03	17060
911.145	16904
911.259	16934
911.374	16812
911.489	16805
911.604	16706
911.718	16432
911.833	16573
911.947	16558
912.062	16497
912.176	16535
912.291	16592
912.405	16535
912.519	16710
912.633	16748
912.748	16558
912.862	16622
912.976	16333
913.09	16310
913.204	16314
913.318	16428
913.431	16341
913.545	16363
913.659	16485
913.772	16226
913.886	16143
914	16162
914.113	16211
914.226	16344
914.34	16299
914.453	16017
914.566	16063
914.68	16013
914.793	16029
914.906	15861
915.019	15717
915.132	15713
915.245	15728
915.358	15766
915.47	15785
915.583	15679
915.696	15838
915.809	15819
915.921	15800
916.034	15618
916.146	15580
916.259	15682
916.371	15667
916.483	15667
916.595	15584
916.708	15534
916.82	15458
916.932	15488
917.044	15473
917.156	15507
917.268	15420
917.38	15462
917.491	15325
917.603	15317
917.715	15450
917.826	15485
917.938	15302
918.049	15192
918.161	15370
918.272	15477
918.384	15469
918.495	15298
918.606	15154
918.717	15005
918.828	15135
918.939	15173
919.05	15097
919.161	15077
919.272	14902
919.383	14952
919.494	15192
919.604	15218
919.715	15108
919.826	15066
919.936	15055
920.047	15032
920.157	15142
920.267	15317
920.378	15043
920.488	14994
920.598	15321
920.708	15370
920.818	15218
920.928	15154
921.038	15378
921.148	15264
921.258	14994
921.368	14952
921.477	14785
921.587	14777
921.697	14754
921.806	14777
921.916	14667
922.025	14457
922.134	14469
922.244	14385
922.353	14469
922.462	14339
922.571	14336
922.68	14058
922.789	14130
922.898	14130
923.007	13951
923.116	14221
923.224	14058
923.333	13978
923.442	13788
923.55	13932
923.659	13917
923.767	13894
923.876	13837
923.984	13974
924.092	13795
924.201	13864
924.309	13803
924.417	13830
924.525	13685
924.633	13708
924.741	14488
924.849	13502
924.956	13670
925.064	13483
925.172	13483
925.279	13400
925.387	13529
925.494	13464
925.602	13575
925.709	13518
925.816	13373
925.924	13392
926.031	13521
926.138	13434
926.245	13415
926.352	13331
926.459	13495
926.566	13415
926.673	13297
926.779	13263
926.886	13255
926.993	13050
927.099	12993
927.206	12924
927.312	12962
927.419	13110
927.525	13027
927.631	13012
927.737	12916
927.843	12882
927.95	12688
928.056	12882
928.162	12810
928.267	12916
928.373	13396
928.479	12871
928.585	12612
928.69	12738
928.796	12817
928.901	12650
929.007	12509
929.112	12593
929.218	12669
929.323	12604
929.428	12604
929.533	12684
929.638	12350
929.743	12490
929.848	12483
929.953	12437
930.058	12414
930.163	12251
930.267	12296
930.372	12346
930.477	12125
930.581	12395
930.685	12258
930.79	12171
930.894	12114
930.998	12114
931.103	12251
931.207	11889
931.311	11802
931.415	11665
931.519	11501
931.623	11467
