Data from test_V78500241_1268.txt Node
Date: Fri Mar 25 15:50:35 CST 2022
User: usil
Spectrometer: V785-0024
Trigger mode: 0
Integration Time (sec): 4.000000E-1
Scans to average: 1
Nonlinearity correction enabled: false
Boxcar width: 0
Storing dark spectrum: false
XAxis mode: Wavelengths
Number of Pixels in Spectrum: 1024
>>>>>Begin Spectral Data<<<<<
801.071	28908
801.214	28850
801.356	28679
801.499	28588
801.641	28504
801.783	28542
801.926	28577
802.068	28371
802.211	28360
802.353	28265
802.496	28322
802.638	28291
802.78	28261
802.923	28124
803.065	28139
803.208	28131
803.35	28219
803.492	28398
803.635	28386
803.777	28325
803.919	28565
804.061	28721
804.204	28428
804.346	28527
804.488	28310
804.63	28341
804.773	28333
804.915	28527
805.057	28546
805.199	28363
805.341	28523
805.483	28569
805.626	28527
805.768	28409
805.91	28645
806.052	28725
806.194	28485
806.336	28961
806.478	28702
806.62	28615
806.762	28698
806.904	28972
807.046	29235
807.188	28995
807.33	29052
807.472	29086
807.614	29056
807.756	29086
807.898	28984
808.04	28972
808.182	28919
808.324	29003
808.465	29029
808.607	29303
808.749	29345
808.891	29486
809.033	29497
809.174	29547
809.316	29334
809.458	29280
809.6	29315
809.741	29547
809.883	29524
810.025	29710
810.166	29771
810.308	29741
810.45	29585
810.591	29695
810.733	29318
810.875	29318
811.016	29288
811.158	29269
811.299	29482
811.441	29474
811.582	29547
811.724	29509
811.865	29341
812.007	29493
812.148	29398
812.29	29463
812.431	29505
812.573	29733
812.714	29733
812.855	29862
812.997	29950
813.138	30072
813.279	30072
813.421	29878
813.562	29969
813.703	29695
813.845	29512
813.986	29345
814.127	29269
814.268	29143
814.41	29143
814.551	29113
814.692	29292
814.833	28968
814.974	29094
815.115	29060
815.256	29060
815.397	28953
815.539	28946
815.68	28896
815.821	28820
815.962	28854
816.103	29029
816.244	28847
816.385	28767
816.526	28637
816.666	28588
816.807	28405
816.948	28371
817.089	28546
817.23	28493
817.371	28451
817.512	28428
817.653	28337
817.793	28459
817.934	28459
818.075	28417
818.216	28363
818.356	28440
818.497	28401
818.638	28143
818.778	28185
818.919	28109
819.06	28246
819.2	28344
819.341	28478
819.481	28497
819.622	28615
819.762	28733
819.903	28839
820.043	28577
820.184	28561
820.324	28569
820.465	28656
820.605	28516
820.746	28637
820.886	28390
821.026	28573
821.167	28459
821.307	28698
821.447	28512
821.588	28344
821.728	28242
821.868	28116
822.008	27934
822.149	28040
822.289	27903
822.429	27667
822.569	27690
822.709	27629
822.849	27298
822.99	27568
823.13	27393
823.27	27412
823.41	27367
823.55	27226
823.69	27199
823.83	27298
823.97	27226
824.11	27127
824.25	27009
824.389	27119
824.529	27085
824.669	27127
824.809	27142
824.949	27077
825.089	27195
825.228	27051
825.368	27020
825.508	26918
825.648	26952
825.787	27036
825.927	27131
826.067	26902
826.206	27028
826.346	27017
826.485	27138
826.625	27009
826.765	27047
826.904	27013
827.044	26777
827.183	26686
827.323	26609
827.462	26705
827.601	26579
827.741	26640
827.88	26686
828.02	26571
828.159	26655
828.298	26674
828.437	26773
828.577	26587
828.716	26625
828.855	26594
828.994	26252
829.134	26351
829.273	26294
829.412	26351
829.551	26480
829.69	26259
829.829	26320
829.968	26492
830.107	26476
830.246	26347
830.385	26324
830.524	26347
830.663	26229
830.802	26046
830.941	25887
831.08	25997
831.219	26092
831.357	25966
831.496	26126
831.635	26016
831.774	25989
831.913	25906
832.051	25772
832.19	25818
832.329	25868
832.467	25681
832.606	25624
832.744	25613
832.883	25662
833.022	25696
833.16	25723
833.299	25723
833.437	25628
833.576	25841
833.714	25670
833.852	25921
833.991	25655
834.129	25723
834.267	25769
834.406	25681
834.544	25761
834.682	25586
834.821	25693
834.959	25875
835.097	25533
835.235	25776
835.373	25757
835.511	25666
835.65	25639
835.788	25620
835.926	25460
836.064	25384
836.202	25285
836.34	25487
836.478	25632
836.615	25578
836.753	25491
836.891	25575
837.029	25571
837.167	25479
837.305	25324
837.443	25339
837.58	25331
837.718	25422
837.856	25358
837.993	25213
838.131	25411
838.269	25213
838.406	25088
838.544	25129
838.681	24890
838.819	25031
838.956	24776
839.094	24795
839.231	24753
839.369	25004
839.506	25187
839.643	25000
839.781	24825
839.918	24738
840.055	24878
840.193	24772
840.33	24764
840.467	24753
840.604	24806
840.742	25034
840.879	24669
841.016	24646
841.153	24578
841.29	24681
841.427	24722
841.564	24772
841.701	24719
841.838	24593
841.975	24467
842.112	24681
842.249	24608
842.385	24479
842.522	24753
842.659	24433
842.796	24486
842.933	24441
843.069	24456
843.206	24395
843.343	24445
843.479	24528
843.616	24471
843.752	24159
843.889	24174
844.025	24509
844.162	24239
844.298	24441
844.435	24304
844.571	24213
844.708	24239
844.844	24277
844.98	24239
845.117	24350
845.253	24079
845.389	24053
845.525	24087
845.661	24125
845.798	23996
845.934	24003
846.07	24064
846.206	24011
846.342	24030
846.478	23920
846.614	23745
846.75	23627
846.886	23680
847.022	23741
847.158	23733
847.294	23680
847.429	23767
847.565	23741
847.701	23920
847.837	23341
847.972	23474
848.108	23512
848.244	23539
848.379	23334
848.515	23254
848.65	23216
848.786	23231
848.921	23246
849.057	23337
849.192	23398
849.328	23273
849.463	23292
849.598	23220
849.734	23269
849.869	23083
850.004	22991
850.14	23056
850.275	23105
850.41	22869
850.545	22953
850.68	22953
850.815	23113
850.95	23014
851.085	23296
851.22	23056
851.355	23079
851.49	23022
851.625	23098
851.76	22995
851.895	22961
852.03	23006
852.165	23090
852.299	23098
852.434	23235
852.569	23025
852.703	22991
852.838	23113
852.973	23143
853.107	23174
853.242	22987
853.376	22877
853.511	22664
853.645	22942
853.78	22862
853.914	22896
854.048	22828
854.183	22744
854.317	22782
854.451	23064
854.585	22866
854.72	22911
854.854	22965
854.988	22725
855.122	22885
855.256	22812
855.39	22892
855.524	22919
855.658	22862
855.792	22862
855.926	22965
856.06	22869
856.194	22965
856.327	22748
856.461	22805
856.595	22790
856.729	22706
856.862	22999
856.996	23048
857.13	22889
857.263	22953
857.397	22904
857.53	22843
857.664	22885
857.797	22995
857.931	22957
858.064	22850
858.197	22850
858.331	22911
858.464	22850
858.597	22763
858.731	22736
858.864	22805
858.997	22854
859.13	22774
859.263	22873
859.396	22911
859.529	22866
859.662	22839
859.795	22831
859.928	22889
860.061	22843
860.194	22972
860.327	22911
860.46	22938
860.592	22949
860.725	23143
860.858	23048
860.99	22812
861.123	22710
861.256	22790
861.388	22858
861.521	23429
861.653	22683
861.786	22702
861.918	22660
862.05	22664
862.183	22774
862.315	22733
862.447	22999
862.58	22835
862.712	22554
862.844	22474
862.976	22664
863.108	22569
863.24	22999
863.372	22409
863.504	22565
863.636	22500
863.768	22672
863.9	22462
864.032	22527
864.164	22493
864.296	22497
864.428	22687
864.559	22535
864.691	22672
864.823	22512
864.954	22535
865.086	22554
865.217	22493
865.349	22337
865.48	22382
865.612	22363
865.743	22481
865.875	22565
866.006	22466
866.137	22489
866.269	22299
866.4	22352
866.531	22394
866.662	22394
866.793	22375
866.924	22352
867.055	22382
867.186	22375
867.317	22310
867.448	22200
867.579	22215
867.71	22291
867.841	22375
867.972	22341
868.103	22261
868.233	22394
868.364	22337
868.495	22447
868.625	22516
868.756	22675
868.886	22615
869.017	22523
869.147	22706
869.278	22713
869.408	22698
869.539	22569
869.669	22637
869.799	22550
869.929	22725
870.06	22687
870.19	22923
870.32	22984
870.45	22828
870.58	22862
870.71	23041
870.84	23075
870.97	22976
871.1	22927
871.23	23132
871.36	23159
871.489	23094
871.619	23223
871.749	23220
871.879	23147
872.008	23337
872.138	23178
872.267	23071
872.397	23151
872.526	23033
872.656	23029
872.785	23014
872.915	23181
873.044	23254
873.173	23242
873.303	23231
873.432	23159
873.561	23109
873.69	23200
873.819	23223
873.948	23337
874.077	23143
874.206	23170
874.335	23208
874.464	23269
874.593	23448
874.722	23353
874.851	23528
874.979	23322
875.108	23505
875.237	23349
875.365	23322
875.494	23376
875.623	23379
875.751	23349
875.88	23551
876.008	23627
876.136	23547
876.265	23779
876.393	23946
876.521	23893
876.65	23832
876.778	23813
876.906	23828
877.034	23775
877.162	23843
877.29	23809
877.418	23809
877.546	23733
877.674	23665
877.802	23775
877.93	23904
878.058	23767
878.185	23554
878.313	23665
878.441	23752
878.568	23448
878.696	23600
878.824	23752
878.951	23882
879.079	23942
879.206	24129
879.333	23889
879.461	23752
879.588	23859
879.715	23882
879.842	23988
879.97	23874
880.097	23512
880.224	23474
880.351	23737
880.478	23490
880.605	23570
880.732	23528
880.859	23836
880.986	23520
881.112	23539
881.239	23520
881.366	23193
881.493	23189
881.619	23128
881.746	23140
881.872	23113
881.999	22995
882.125	22900
882.252	23140
882.378	22961
882.505	23098
882.631	22919
882.757	22767
882.883	22774
883.01	22820
883.136	22698
883.262	22634
883.388	22630
883.514	22873
883.64	22862
883.766	22691
883.892	22554
884.018	22481
884.143	22740
884.269	22763
884.395	22596
884.52	22432
884.646	22390
884.772	22215
884.897	22314
885.023	22440
885.148	22523
885.274	22596
885.399	22455
885.524	22371
885.65	22402
885.775	22436
885.9	22440
886.025	22466
886.15	22447
886.275	22356
886.4	22325
886.525	22466
886.65	22284
886.775	22333
886.9	22462
887.025	22470
887.149	22436
887.274	22200
887.399	22112
887.523	22215
887.648	22139
887.773	22029
887.897	22268
888.021	22143
888.146	22025
888.27	22253
888.395	22291
888.519	22280
888.643	22135
888.767	22154
888.891	22246
889.015	21983
889.139	22010
889.263	21911
889.387	22082
889.511	22249
889.635	22207
889.759	21895
889.883	22059
890.006	21983
890.13	22036
890.254	21930
890.377	21854
890.501	21698
890.624	21679
890.748	21785
890.871	21679
890.995	21519
891.118	21447
891.241	21580
891.364	21526
891.488	21576
891.611	21473
891.734	21431
891.857	21610
891.98	21515
892.103	21519
892.226	21397
892.349	21397
892.471	21336
892.594	21447
892.717	21294
892.839	21439
892.962	21355
893.085	21469
893.207	21393
893.33	21287
893.452	21397
893.575	21428
893.697	21450
893.819	21576
893.941	21671
894.064	21439
894.186	21325
894.308	21321
894.43	21332
894.552	21405
894.674	21447
894.796	21211
894.918	21340
895.04	21241
895.161	21397
895.283	21386
895.405	21332
895.526	21279
895.648	21298
895.769	21450
895.891	21405
896.012	21420
896.134	21363
896.255	21340
896.376	21313
896.498	21325
896.619	21435
896.74	21256
896.861	21355
896.982	21682
897.103	21736
897.224	21705
897.345	21591
897.466	21660
897.587	21568
897.708	21694
897.828	21660
897.949	21523
898.07	21435
898.19	21408
898.311	21610
898.431	21526
898.552	21576
898.672	21599
898.792	21568
898.913	21553
899.033	21454
899.153	21298
899.273	21313
899.393	21359
899.513	21294
899.633	21245
899.753	21169
899.873	21260
899.993	21188
900.113	21298
900.232	21237
900.352	21154
900.472	21161
900.591	21009
900.711	21112
900.83	20979
900.95	21165
901.069	21154
901.189	20929
901.308	20724
901.427	20636
901.546	20564
901.665	20636
901.784	20609
901.904	20514
902.023	20336
902.141	20157
902.26	20161
902.379	20176
902.498	20027
902.617	20035
902.735	20157
902.854	20024
902.973	19890
903.091	19753
903.21	19906
903.328	19708
903.446	19662
903.565	19506
903.683	19594
903.801	19407
903.919	19616
904.038	19556
904.156	19270
904.274	19422
904.392	19244
904.51	19263
904.627	19327
904.745	19304
904.863	19400
904.981	19069
905.098	18977
905.216	18962
905.334	18932
905.451	18958
905.569	18795
905.686	19076
905.803	19061
905.921	18844
906.038	18703
906.155	18798
906.272	18639
906.389	18700
906.506	18650
906.623	18673
906.74	18395
906.857	18216
906.974	18376
907.091	18555
907.208	18486
907.324	18429
907.441	18448
907.557	18216
907.674	18152
907.79	18133
907.907	18155
908.023	18266
908.139	18228
908.256	18087
908.372	18049
908.488	18102
908.604	17980
908.72	17836
908.836	17843
908.952	17927
909.068	17874
909.184	18087
909.3	17927
909.415	17977
909.531	17866
909.647	17581
909.762	17699
909.878	17589
909.993	17672
910.108	17573
910.224	17535
910.339	17592
910.454	17421
910.57	17345
910.685	17372
910.8	17642
910.915	17501
911.03	17387
911.145	17265
911.259	17124
911.374	17197
911.489	17132
911.604	17060
911.718	16900
911.833	16790
911.947	16934
912.062	16729
912.176	16953
912.291	16995
912.405	16927
912.519	17083
912.633	17056
912.748	17025
912.862	16774
912.976	16744
913.09	16634
913.204	16683
913.318	16706
913.431	16763
913.545	16816
913.659	16839
913.772	16558
913.886	16508
914	16538
914.113	16535
914.226	16649
914.34	16535
914.453	16344
914.566	16523
914.68	16451
914.793	16318
914.906	16078
915.019	16048
915.132	15968
915.245	16067
915.358	16116
915.47	16093
915.583	16063
915.696	16074
915.809	16143
915.921	16352
916.034	16021
916.146	15903
916.259	16021
916.371	16048
916.483	15972
916.595	15907
916.708	15789
916.82	15846
916.932	15850
917.044	15903
917.156	15751
917.268	15732
917.38	15751
917.491	15709
917.603	15705
917.715	15838
917.826	15705
917.938	15637
918.049	15519
918.161	15686
918.272	15747
918.384	15709
918.495	15625
918.606	15504
918.717	15363
918.828	15412
918.939	15443
919.05	15325
919.161	15428
919.272	15245
919.383	15329
919.494	15500
919.604	15561
919.715	15332
919.826	15268
919.936	15408
920.047	15466
920.157	15298
920.267	15511
920.378	15389
920.488	15310
920.598	15496
920.708	15694
920.818	15526
920.928	15450
921.038	15599
921.148	15580
921.258	15329
921.368	15203
921.477	15180
921.587	15131
921.697	14975
921.806	15104
921.916	14899
922.025	14910
922.134	14762
922.244	14746
922.353	14785
922.462	14659
922.571	14484
922.68	14355
922.789	14366
922.898	14347
923.007	14339
923.116	14301
923.224	14339
923.333	14298
923.442	14138
923.55	14142
923.659	14183
923.767	14317
923.876	14126
923.984	14233
924.092	14035
924.201	14031
924.309	14039
924.417	14043
924.525	13951
924.633	14043
924.741	14941
924.849	13803
924.956	13951
925.064	13791
925.172	13681
925.279	13788
925.387	13772
925.494	13761
925.602	13788
925.709	13818
925.816	13586
925.924	13708
926.031	13674
926.138	13624
926.245	13662
926.352	13693
926.459	13609
926.566	13765
926.673	13533
926.779	13411
926.886	13449
926.993	13320
927.099	13228
927.206	13198
927.312	13160
927.419	13266
927.525	13209
927.631	13301
927.737	13095
927.843	13095
927.95	12977
928.056	13061
928.162	13057
928.267	13080
928.373	13693
928.479	13190
928.585	12935
928.69	12977
928.796	12996
928.901	12939
929.007	12814
929.112	12901
929.218	12882
929.323	12882
929.428	12707
929.533	12970
929.638	12719
929.743	12715
929.848	12764
929.953	12673
930.058	12612
930.163	12452
930.267	12448
930.372	12566
930.477	12445
930.581	12559
930.685	12551
930.79	12365
930.894	12346
930.998	12308
931.103	12414
931.207	12038
931.311	12022
931.415	11840
931.519	11729
931.623	11592
