Data from test_V78500241_514.txt Node
Date: Fri Mar 25 15:45:21 CST 2022
User: usil
Spectrometer: V785-0024
Trigger mode: 0
Integration Time (sec): 4.000000E-1
Scans to average: 1
Nonlinearity correction enabled: false
Boxcar width: 0
Storing dark spectrum: false
XAxis mode: Wavelengths
Number of Pixels in Spectrum: 1024
>>>>>Begin Spectral Data<<<<<
801.071	27424
801.214	27313
801.356	27039
801.499	26868
801.641	26823
801.783	26883
801.926	26899
802.068	26678
802.211	26571
802.353	26583
802.496	26590
802.638	26476
802.78	26408
802.923	26301
803.065	26263
803.208	26362
803.35	26488
803.492	26480
803.635	26636
803.777	26286
803.919	26476
804.061	26902
804.204	26514
804.346	26621
804.488	26381
804.63	26427
804.773	26450
804.915	26659
805.057	26754
805.199	26495
805.341	26648
805.483	26758
805.626	26602
805.768	26438
805.91	26800
806.052	26621
806.194	26609
806.336	26872
806.478	26659
806.62	26678
806.762	26819
806.904	27024
807.046	27207
807.188	26960
807.33	27207
807.472	27043
807.614	27024
807.756	27165
807.898	26914
808.04	26876
808.182	26834
808.324	26895
808.465	26804
808.607	27081
808.749	27230
808.891	27427
809.033	27618
809.174	27485
809.316	27367
809.458	27310
809.6	27416
809.741	27355
809.883	27500
810.025	27576
810.166	27492
810.308	27595
810.45	27583
810.591	27515
810.733	27298
810.875	27268
811.016	27066
811.158	27161
811.299	27237
811.441	27580
811.582	27473
811.724	27195
811.865	27310
812.007	27222
812.148	27237
812.29	27287
812.431	27477
812.573	27633
812.714	27622
812.855	27876
812.997	27861
813.138	27926
813.279	27922
813.421	27755
813.562	27587
813.703	27591
813.845	27447
813.986	27264
814.127	26975
814.268	26944
814.41	26921
814.551	26849
814.692	27108
814.833	26834
814.974	26982
815.115	27039
815.256	26929
815.397	26739
815.539	26845
815.68	26762
815.821	26678
815.962	26617
816.103	26674
816.244	26568
816.385	26457
816.526	26465
816.666	26275
816.807	26229
816.948	26328
817.089	26442
817.23	26248
817.371	26092
817.512	26138
817.653	26195
817.793	26191
817.934	26278
818.075	26240
818.216	26134
818.356	26084
818.497	26138
818.638	25879
818.778	25894
818.919	25890
819.06	26107
819.2	26043
819.341	26138
819.481	26035
819.622	26427
819.762	26583
819.903	26328
820.043	26309
820.184	26233
820.324	26339
820.465	26252
820.605	26332
820.746	26092
820.886	26024
821.026	26199
821.167	26229
821.307	26320
821.447	26233
821.588	26168
821.728	25989
821.868	25947
822.008	25567
822.149	25681
822.289	25689
822.429	25392
822.569	25289
822.709	25304
822.849	25175
822.99	25145
823.13	25065
823.27	25027
823.41	24871
823.55	24863
823.69	25012
823.83	24985
823.97	24863
824.11	24612
824.25	24730
824.389	24772
824.529	24886
824.669	24856
824.809	24973
824.949	24817
825.089	24901
825.228	24795
825.368	24612
825.508	24669
825.648	24722
825.787	24650
825.927	24696
826.067	24589
826.206	24669
826.346	24700
826.485	24688
826.625	24692
826.765	24631
826.904	24646
827.044	24376
827.183	24479
827.323	24311
827.462	24445
827.601	24334
827.741	24319
827.88	24281
828.02	24213
828.159	24270
828.298	24410
828.437	24410
828.577	24350
828.716	24429
828.855	24228
828.994	24083
829.134	24053
829.273	24220
829.412	24003
829.551	24030
829.69	24026
829.829	24140
829.968	24045
830.107	24091
830.246	24057
830.385	23942
830.524	23927
830.663	23798
830.802	23687
830.941	23748
831.08	23649
831.219	23672
831.357	23691
831.496	23760
831.635	23630
831.774	23687
831.913	23531
832.051	23383
832.19	23353
832.329	23402
832.467	23463
832.606	23277
832.744	23322
832.883	23280
833.022	23395
833.16	23303
833.299	23345
833.437	23414
833.576	23448
833.714	23429
833.852	23364
833.991	23444
834.129	23398
834.267	23326
834.406	23296
834.544	23345
834.682	23414
834.821	23421
834.959	23642
835.097	23269
835.235	23337
835.373	23273
835.511	23376
835.65	23223
835.788	23315
835.926	22953
836.064	23079
836.202	23052
836.34	23170
836.478	23296
836.615	23193
836.753	23147
836.891	23261
837.029	23322
837.167	23067
837.305	23204
837.443	23003
837.58	23006
837.718	23208
837.856	23079
837.993	23056
838.131	23003
838.269	22858
838.406	22961
838.544	22923
838.681	22653
838.819	22778
838.956	22489
839.094	22485
839.231	22538
839.369	22641
839.506	22866
839.643	22771
839.781	22538
839.918	22440
840.055	22527
840.193	22459
840.33	22531
840.467	22497
840.604	22478
840.742	22634
840.879	22242
841.016	22493
841.153	22363
841.29	22462
841.427	22398
841.564	22481
841.701	22428
841.838	22341
841.975	22322
842.112	22371
842.249	22219
842.385	22124
842.522	22333
842.659	22272
842.796	22097
842.933	22120
843.069	22234
843.206	22128
843.343	22162
843.479	22162
843.616	22249
843.752	21964
843.889	22017
844.025	22143
844.162	22010
844.298	22032
844.435	22055
844.571	21899
844.708	21953
844.844	22207
844.98	22147
845.117	21979
845.253	21941
845.389	21956
845.525	21797
845.661	21797
845.798	21667
845.934	21781
846.07	21755
846.206	21682
846.342	21884
846.478	21690
846.614	21500
846.75	21428
846.886	21412
847.022	21454
847.158	21443
847.294	21545
847.429	21443
847.565	21473
847.701	21720
847.837	21142
847.972	21218
848.108	21355
848.244	21192
848.379	21028
848.515	21070
848.65	21104
848.786	21024
848.921	21051
849.057	21032
849.192	21013
849.328	21001
849.463	21093
849.598	21055
849.734	20937
849.869	21020
850.004	20792
850.14	20781
850.275	20781
850.41	20807
850.545	20720
850.68	20697
850.815	20819
850.95	20819
851.085	21024
851.22	20868
851.355	20815
851.49	20727
851.625	20788
851.76	20754
851.895	20781
852.03	20701
852.165	20758
852.299	20883
852.434	20895
852.569	20876
852.703	20804
852.838	20834
852.973	21001
853.107	20868
853.242	20735
853.376	20594
853.511	20518
853.645	20613
853.78	20731
853.914	20697
854.048	20602
854.183	20663
854.317	20686
854.451	20876
854.585	20609
854.72	20648
854.854	20701
854.988	20541
855.122	20617
855.256	20564
855.39	20689
855.524	20693
855.658	20518
855.792	20678
855.926	20632
856.06	20762
856.194	20697
856.327	20526
856.461	20594
856.595	20571
856.729	20545
856.862	20716
856.996	20762
857.13	20648
857.263	20788
857.397	20731
857.53	20644
857.664	20754
857.797	20750
857.931	20762
858.064	20716
858.197	20617
858.331	20571
858.464	20587
858.597	20587
858.731	20575
858.864	20697
858.997	20602
859.13	20533
859.263	20579
859.396	20762
859.529	20514
859.662	20552
859.795	20537
859.928	20659
860.061	20705
860.194	20906
860.327	20556
860.46	20724
860.592	20701
860.725	20807
860.858	20708
860.99	20682
861.123	20583
861.256	20518
861.388	20629
861.521	21310
861.653	20438
861.786	20423
861.918	20377
862.05	20609
862.183	20651
862.315	20560
862.447	20549
862.58	20503
862.712	20381
862.844	20343
862.976	20446
863.108	20518
863.24	20895
863.372	20267
863.504	20294
863.636	20286
863.768	20389
863.9	20305
864.032	20347
864.164	20176
864.296	20305
864.428	20423
864.559	20408
864.691	20381
864.823	20343
864.954	20313
865.086	20385
865.217	20324
865.349	20092
865.48	20278
865.612	20282
865.743	20370
865.875	20278
866.006	20278
866.137	20252
866.269	20202
866.4	20267
866.531	20221
866.662	20210
866.793	20122
866.924	20240
867.055	20355
867.186	20180
867.317	20111
867.448	20081
867.579	20214
867.71	20073
867.841	20107
867.972	20225
868.103	20138
868.233	20237
868.364	20240
868.495	20263
868.625	20313
868.756	20465
868.886	20248
869.017	20450
869.147	20507
869.278	20465
869.408	20484
869.539	20495
869.669	20583
869.799	20450
869.929	20636
870.06	20492
870.19	20735
870.32	20621
870.45	20796
870.58	20811
870.71	20880
870.84	20941
870.97	20853
871.1	20796
871.23	21062
871.36	21093
871.489	20914
871.619	21058
871.749	21058
871.879	20921
872.008	21192
872.138	21074
872.267	20929
872.397	20849
872.526	20834
872.656	20868
872.785	20902
872.915	21070
873.044	21161
873.173	20914
873.303	21138
873.432	21047
873.561	21131
873.69	21131
873.819	21154
873.948	21135
874.077	21127
874.206	21043
874.335	21005
874.464	21142
874.593	21340
874.722	21237
874.851	21389
874.979	21283
875.108	21401
875.237	21230
875.365	21195
875.494	21279
875.623	21412
875.751	21233
875.88	21321
876.008	21458
876.136	21424
876.265	21785
876.393	21819
876.521	21739
876.65	21736
876.778	21675
876.906	21652
877.034	21515
877.162	21610
877.29	21443
877.418	21743
877.546	21633
877.674	21648
877.802	21663
877.93	21618
878.058	21481
878.185	21507
878.313	21663
878.441	21538
878.568	21462
878.696	21622
878.824	21591
878.951	21652
879.079	21850
879.206	21937
879.333	21819
879.461	21644
879.588	21736
879.715	21713
879.842	21945
879.97	21713
880.097	21496
880.224	21515
880.351	21507
880.478	21504
880.605	21351
880.732	21370
880.859	21732
880.986	21549
881.112	21606
881.239	21275
881.366	21226
881.493	20998
881.619	21123
881.746	20994
881.872	21127
881.999	21032
882.125	21047
882.252	21055
882.378	21013
882.505	21321
882.631	20891
882.757	20765
882.883	20781
883.01	20838
883.136	20678
883.262	20587
883.388	20537
883.514	20712
883.64	20937
883.766	20720
883.892	20419
884.018	20492
884.143	20720
884.269	20716
884.395	20473
884.52	20457
884.646	20446
884.772	20309
884.897	20275
885.023	20450
885.148	20636
885.274	20526
885.399	20632
885.524	20427
885.65	20530
885.775	20377
885.9	20275
886.025	20579
886.15	20526
886.275	20347
886.4	20294
886.525	20423
886.65	20332
886.775	20206
886.9	20556
887.025	20651
887.149	20339
887.274	20278
887.399	20233
887.523	20176
887.648	20199
887.773	20244
887.897	20336
888.021	20180
888.146	20138
888.27	20233
888.395	20343
888.519	20142
888.643	20157
888.767	20271
888.891	20195
889.015	20001
889.139	20016
889.263	19913
889.387	20035
889.511	20149
889.635	20111
889.759	19989
889.883	20005
890.006	20020
890.13	20062
890.254	19894
890.377	19890
890.501	19776
890.624	19689
890.748	19879
890.871	19674
890.995	19384
891.118	19460
891.241	19578
891.364	19662
891.488	19597
891.611	19453
891.734	19624
891.857	19575
891.98	19601
892.103	19662
892.226	19518
892.349	19521
892.471	19533
892.594	19544
892.717	19518
892.839	19362
892.962	19441
893.085	19548
893.207	19499
893.33	19346
893.452	19499
893.575	19655
893.697	19426
893.819	19712
893.941	19540
894.064	19575
894.186	19449
894.308	19464
894.43	19499
894.552	19559
894.674	19605
894.796	19327
894.918	19495
895.04	19453
895.161	19499
895.283	19540
895.405	19502
895.526	19472
895.648	19529
895.769	19495
895.891	19605
896.012	19578
896.134	19616
896.255	19578
896.376	19426
896.498	19445
896.619	19460
896.74	19525
896.861	19643
896.982	19868
897.103	19963
897.224	19712
897.345	19841
897.466	19674
897.587	19830
897.708	19852
897.828	19750
897.949	19719
898.07	19548
898.19	19761
898.311	19822
898.431	19731
898.552	19750
898.672	19921
898.792	19898
898.913	19803
899.033	19719
899.153	19548
899.273	19464
899.393	19430
899.513	19590
899.633	19487
899.753	19518
899.873	19472
899.993	19514
900.113	19506
900.232	19476
900.352	19426
900.472	19324
900.591	19324
900.711	19308
900.83	19221
900.95	19392
901.069	19384
901.189	19293
901.308	19118
901.427	18977
901.546	18909
901.665	18920
901.784	18932
901.904	18779
902.023	18681
902.141	18574
902.26	18342
902.379	18498
902.498	18330
902.617	18346
902.735	18426
902.854	18338
902.973	18323
903.091	18148
903.21	18266
903.328	18133
903.446	18095
903.565	17916
903.683	17904
903.801	17802
903.919	17885
904.038	17855
904.156	17703
904.274	17767
904.392	17611
904.51	17665
904.627	17608
904.745	17752
904.863	17687
904.981	17638
905.098	17379
905.216	17417
905.334	17364
905.451	17444
905.569	17330
905.686	17395
905.803	17372
905.921	17105
906.038	17258
906.155	17105
906.272	16991
906.389	17037
906.506	16919
906.623	16900
906.74	16927
906.857	16725
906.974	16771
907.091	16900
907.208	16934
907.324	16744
907.441	16710
907.557	16702
907.674	16759
907.79	16546
907.907	16519
908.023	16660
908.139	16573
908.256	16569
908.372	16413
908.488	16592
908.604	16299
908.72	16287
908.836	16363
908.952	16211
909.068	16409
909.184	16402
909.3	16306
909.415	16337
909.531	16226
909.647	16147
909.762	16006
909.878	16002
909.993	16013
910.108	16021
910.224	16032
910.339	16124
910.454	15884
910.57	15873
910.685	15739
910.8	16101
910.915	15987
911.03	15899
911.145	15705
911.259	15663
911.374	15603
911.489	15542
911.604	15561
911.718	15355
911.833	15355
911.947	15310
912.062	15195
912.176	15435
912.291	15401
912.405	15367
912.519	15557
912.633	15504
912.748	15416
912.862	15355
912.976	15222
913.09	14998
913.204	15173
913.318	15230
913.431	15294
913.545	15367
913.659	15233
913.772	15161
913.886	14990
914	14971
914.113	15077
914.226	15161
914.34	15009
914.453	14876
914.566	15051
914.68	14887
914.793	14876
914.906	14648
915.019	14746
915.132	14571
915.245	14674
915.358	14552
915.47	14636
915.583	14667
915.696	14651
915.809	14746
915.921	14773
916.034	14556
916.146	14537
916.259	14499
916.371	14575
916.483	14632
916.595	14507
916.708	14454
916.82	14549
916.932	14389
917.044	14499
917.156	14370
917.268	14218
917.38	14366
917.491	14324
917.603	14317
917.715	14347
917.826	14389
917.938	14290
918.049	14115
918.161	14214
918.272	14419
918.384	14320
918.495	14199
918.606	14058
918.717	13982
918.828	14050
918.939	14069
919.05	13909
919.161	13940
919.272	13887
919.383	13909
919.494	14130
919.604	14271
919.715	14096
919.826	14046
919.936	14073
920.047	14172
920.157	14100
920.267	14195
920.378	13986
920.488	13986
920.598	14252
920.708	14267
920.818	14275
920.928	14153
921.038	14339
921.148	14290
921.258	14012
921.368	14012
921.477	13807
921.587	13780
921.697	13655
921.806	13795
921.916	13651
922.025	13548
922.134	13491
922.244	13434
922.353	13605
922.462	13270
922.571	13236
922.68	13080
922.789	13091
922.898	13072
923.007	13034
923.116	13110
923.224	13034
923.333	13019
923.442	12970
923.55	12890
923.659	13057
923.767	12977
923.876	12916
923.984	12993
924.092	12848
924.201	12802
924.309	12802
924.417	12875
924.525	12779
924.633	12817
924.741	13590
924.849	12593
924.956	12722
925.064	12559
925.172	12517
925.279	12498
925.387	12601
925.494	12593
925.602	12707
925.709	12597
925.816	12429
925.924	12555
926.031	12563
926.138	12540
926.245	12498
926.352	12399
926.459	12479
926.566	12639
926.673	12445
926.779	12353
926.886	12361
926.993	12171
927.099	12232
927.206	12068
927.312	12079
927.419	12144
927.525	12121
927.631	12106
927.737	11977
927.843	11946
927.95	11722
928.056	12019
928.162	11901
928.267	12030
928.373	12681
928.479	11988
928.585	11764
928.69	11878
928.796	11988
928.901	11817
929.007	11684
929.112	11771
929.218	11832
929.323	11668
929.428	11672
929.533	11847
929.638	11668
929.743	11691
929.848	11699
929.953	11726
930.058	11547
930.163	11402
930.267	11448
930.372	11425
930.477	11417
930.581	11619
930.685	11474
930.79	11277
930.894	11322
930.998	11246
931.103	11376
931.207	11041
931.311	10923
931.415	10862
931.519	10782
931.623	10687
