Data from test_V78500241_25.txt Node
Date: Fri Mar 25 15:41:58 CST 2022
User: usil
Spectrometer: V785-0024
Trigger mode: 0
Integration Time (sec): 4.000000E-1
Scans to average: 1
Nonlinearity correction enabled: false
Boxcar width: 0
Storing dark spectrum: false
XAxis mode: Wavelengths
Number of Pixels in Spectrum: 1024
>>>>>Begin Spectral Data<<<<<
801.071	27180
801.214	27176
801.356	26914
801.499	26758
801.641	26640
801.783	26590
801.926	26674
802.068	26640
802.211	26598
802.353	26507
802.496	26221
802.638	26183
802.78	26062
802.923	26138
803.065	26081
803.208	26050
803.35	26145
803.492	26229
803.635	26138
803.777	26092
803.919	26199
804.061	26556
804.204	26240
804.346	26096
804.488	25955
804.63	26027
804.773	26073
804.915	26092
805.057	26183
805.199	26069
805.341	26172
805.483	26233
805.626	26161
805.768	26031
805.91	26210
806.052	26370
806.194	26122
806.336	26332
806.478	26195
806.62	26096
806.762	26286
806.904	26362
807.046	26526
807.188	26556
807.33	26457
807.472	26549
807.614	26522
807.756	26358
807.898	26446
808.04	26202
808.182	26168
808.324	26225
808.465	26244
808.607	26431
808.749	26488
808.891	26457
809.033	26716
809.174	26613
809.316	26514
809.458	26602
809.6	26564
809.741	26552
809.883	26549
810.025	26739
810.166	26811
810.308	26819
810.45	26807
810.591	26682
810.733	26549
810.875	26298
811.016	26176
811.158	26370
811.299	26450
811.441	26587
811.582	26670
811.724	26370
811.865	26366
812.007	26381
812.148	26320
812.29	26488
812.431	26587
812.573	26674
812.714	26815
812.855	26876
812.997	27020
813.138	27211
813.279	27093
813.421	27009
813.562	26815
813.703	26644
813.845	26469
813.986	26320
814.127	26069
814.268	26024
814.41	25906
814.551	25890
814.692	26054
814.833	25936
814.974	25822
815.115	25906
815.256	25909
815.397	25655
815.539	25849
815.68	25613
815.821	25514
815.962	25655
816.103	25540
816.244	25434
816.385	25419
816.526	25263
816.666	25194
816.807	25084
816.948	24966
817.089	25156
817.23	25046
817.371	25038
817.512	24981
817.653	24962
817.793	24856
817.934	24966
818.075	24935
818.216	25046
818.356	24894
818.497	24715
818.638	24582
818.778	24620
818.919	24646
819.06	24711
819.2	24783
819.341	24825
819.481	24798
819.622	24924
819.762	25080
819.903	25072
820.043	25088
820.184	25038
820.324	25057
820.465	25114
820.605	24875
820.746	24856
820.886	24791
821.026	25015
821.167	24905
821.307	25015
821.447	24894
821.588	24749
821.728	24692
821.868	24475
822.008	24197
822.149	24125
822.289	24182
822.429	24095
822.569	24022
822.709	23939
822.849	23836
822.99	23634
823.13	23657
823.27	23733
823.41	23493
823.55	23463
823.69	23558
823.83	23665
823.97	23448
824.11	23162
824.25	23337
824.389	23136
824.529	23315
824.669	23208
824.809	23368
824.949	23429
825.089	23311
825.228	23322
825.368	23056
825.508	23006
825.648	22995
825.787	23109
825.927	22976
826.067	22995
826.206	23064
826.346	23258
826.485	23200
826.625	22987
826.765	23067
826.904	22995
827.044	22820
827.183	22683
827.323	22687
827.462	22740
827.601	22550
827.741	22550
827.88	22679
828.02	22607
828.159	22687
828.298	22626
828.437	22653
828.577	22611
828.716	22744
828.855	22573
828.994	22386
829.134	22306
829.273	22375
829.412	22261
829.551	22253
829.69	22386
829.829	22337
829.968	22295
830.107	22432
830.246	22344
830.385	22272
830.524	22215
830.663	22158
830.802	21991
830.941	21922
831.08	21850
831.219	22070
831.357	21972
831.496	22097
831.635	21720
831.774	21762
831.913	21781
832.051	21732
832.19	21500
832.329	21755
832.467	21523
832.606	21511
832.744	21481
832.883	21477
833.022	21549
833.16	21507
833.299	21599
833.437	21538
833.576	21557
833.714	21469
833.852	21591
833.991	21519
834.129	21603
834.267	21580
834.406	21583
834.544	21382
834.682	21549
834.821	21332
834.959	21656
835.097	21519
835.235	21542
835.373	21332
835.511	21507
835.65	21344
835.788	21332
835.926	21180
836.064	21112
836.202	21317
836.34	21275
836.478	21408
836.615	21241
836.753	21439
836.891	21469
837.029	21154
837.167	21370
837.305	21283
837.443	21176
837.58	21062
837.718	21367
837.856	21374
837.993	21085
838.131	21195
838.269	21173
838.406	21135
838.544	21028
838.681	20777
838.819	20861
838.956	20636
839.094	20678
839.231	20678
839.369	20735
839.506	21112
839.643	20902
839.781	20598
839.918	20636
840.055	20629
840.193	20533
840.33	20552
840.467	20533
840.604	20712
840.742	20800
840.879	20336
841.016	20438
841.153	20465
841.29	20609
841.427	20423
841.564	20552
841.701	20423
841.838	20492
841.975	20370
842.112	20362
842.249	20301
842.385	20282
842.522	20545
842.659	20256
842.796	20138
842.933	20229
843.069	20206
843.206	20168
843.343	20263
843.479	20225
843.616	20138
843.752	19921
843.889	19932
844.025	20183
844.162	19909
844.298	19959
844.435	19959
844.571	19913
844.708	19951
844.844	20084
844.98	20119
845.117	20062
845.253	19898
845.389	19837
845.525	19788
845.661	19830
845.798	19784
845.934	19818
846.07	19712
846.206	19742
846.342	19883
846.478	19647
846.614	19499
846.75	19343
846.886	19415
847.022	19441
847.158	19415
847.294	19457
847.429	19510
847.565	19346
847.701	19677
847.837	19168
847.972	19042
848.108	19202
848.244	19202
848.379	18897
848.515	18951
848.65	18935
848.786	19008
848.921	18973
849.057	19091
849.192	19053
849.328	19057
849.463	18993
849.598	18966
849.734	18848
849.869	18844
850.004	18764
850.14	18791
850.275	18795
850.41	18589
850.545	18734
850.68	18608
850.815	18722
850.95	18681
851.085	18909
851.22	18852
851.355	18658
851.49	18768
851.625	18597
851.76	18703
851.895	18570
852.03	18658
852.165	18601
852.299	18753
852.434	18753
852.569	18749
852.703	18734
852.838	18749
852.973	18814
853.107	18757
853.242	18692
853.376	18597
853.511	18513
853.645	18479
853.78	18639
853.914	18585
854.048	18502
854.183	18509
854.317	18532
854.451	18582
854.585	18517
854.72	18513
854.854	18513
854.988	18426
855.122	18555
855.256	18361
855.39	18566
855.524	18498
855.658	18623
855.792	18525
855.926	18597
856.06	18517
856.194	18547
856.327	18490
856.461	18559
856.595	18460
856.729	18528
856.862	18631
856.996	18536
857.13	18467
857.263	18677
857.397	18589
857.53	18426
857.664	18483
857.797	18544
857.931	18570
858.064	18559
858.197	18559
858.331	18513
858.464	18486
858.597	18300
858.731	18433
858.864	18574
858.997	18388
859.13	18376
859.263	18490
859.396	18494
859.529	18452
859.662	18350
859.795	18471
859.928	18391
860.061	18532
860.194	18551
860.327	18372
860.46	18391
860.592	18593
860.725	18547
860.858	18574
860.99	18391
861.123	18410
861.256	18369
861.388	18346
861.521	19091
861.653	18334
861.786	18251
861.918	18369
862.05	18418
862.183	18441
862.315	18448
862.447	18532
862.58	18475
862.712	18296
862.844	18117
862.976	18350
863.108	18213
863.24	18467
863.372	18213
863.504	18083
863.636	18171
863.768	18159
863.9	18178
864.032	18060
864.164	18117
864.296	18216
864.428	18140
864.559	18277
864.691	18190
864.823	18194
864.954	18174
865.086	18098
865.217	18167
865.349	18087
865.48	18076
865.612	18095
865.743	18133
865.875	18140
866.006	18045
866.137	18098
866.269	18064
866.4	18011
866.531	17980
866.662	18038
866.793	17961
866.924	17916
867.055	18102
867.186	18003
867.317	17973
867.448	17836
867.579	17999
867.71	17863
867.841	17965
867.972	17980
868.103	17954
868.233	17988
868.364	17996
868.495	18098
868.625	18243
868.756	18414
868.886	18114
869.017	18152
869.147	18315
869.278	18460
869.408	18171
869.539	18277
869.669	18346
869.799	18311
869.929	18281
870.06	18330
870.19	18578
870.32	18547
870.45	18730
870.58	18726
870.71	18654
870.84	18817
870.97	18692
871.1	18692
871.23	18795
871.36	18871
871.489	18745
871.619	18787
871.749	18886
871.879	18753
872.008	18924
872.138	18791
872.267	18852
872.397	18684
872.526	18574
872.656	18642
872.785	18715
872.915	18901
873.044	18973
873.173	18924
873.303	18981
873.432	18958
873.561	19076
873.69	18886
873.819	18985
873.948	19015
874.077	19034
874.206	18890
874.335	18837
874.464	19069
874.593	19088
874.722	19122
874.851	19103
874.979	19350
875.108	19217
875.237	19137
875.365	19168
875.494	19171
875.623	19259
875.751	19209
875.88	19110
876.008	19335
876.136	19266
876.265	19613
876.393	19666
876.521	19563
876.65	19620
876.778	19544
876.906	19487
877.034	19613
877.162	19628
877.29	19582
877.418	19594
877.546	19575
877.674	19540
877.802	19510
877.93	19525
878.058	19480
878.185	19400
878.313	19499
878.441	19696
878.568	19362
878.696	19365
878.824	19601
878.951	19632
879.079	19750
879.206	19814
879.333	19791
879.461	19525
879.588	19731
879.715	19814
879.842	19799
879.97	19567
880.097	19419
880.224	19339
880.351	19445
880.478	19415
880.605	19384
880.732	19415
880.859	19651
880.986	19518
881.112	19324
881.239	19297
881.366	19088
881.493	19084
881.619	18901
881.746	19114
881.872	18966
881.999	18947
882.125	19000
882.252	19069
882.378	18996
882.505	19110
882.631	18973
882.757	18760
882.883	18829
883.01	18661
883.136	18890
883.262	18623
883.388	18616
883.514	18806
883.64	18894
883.766	18749
883.892	18544
884.018	18574
884.143	18798
884.269	18749
884.395	18547
884.52	18467
884.646	18536
884.772	18433
884.897	18315
885.023	18490
885.148	18604
885.274	18532
885.399	18426
885.524	18437
885.65	18483
885.775	18399
885.9	18426
886.025	18544
886.15	18486
886.275	18281
886.4	18327
886.525	18410
886.65	18376
886.775	18384
886.9	18502
887.025	18612
887.149	18407
887.274	18235
887.399	18171
887.523	18213
887.648	18159
887.773	18144
887.897	18159
888.021	18224
888.146	18155
888.27	18346
888.395	18350
888.519	18129
888.643	18121
888.767	18258
888.891	18114
889.015	17946
889.139	17958
889.263	17961
889.387	18072
889.511	18205
889.635	17988
889.759	18034
889.883	18034
890.006	18167
890.13	18144
890.254	17923
890.377	17935
890.501	17828
890.624	17661
890.748	17809
890.871	17615
890.995	17573
891.118	17535
891.241	17630
891.364	17630
891.488	17699
891.611	17615
891.734	17680
891.857	17707
891.98	17615
892.103	17718
892.226	17661
892.349	17649
892.471	17459
892.594	17551
892.717	17638
892.839	17684
892.962	17596
893.085	17699
893.207	17642
893.33	17539
893.452	17501
893.575	17581
893.697	17490
893.819	17691
893.941	17767
894.064	17695
894.186	17509
894.308	17543
894.43	17589
894.552	17790
894.674	17642
894.796	17532
894.918	17577
895.04	17623
895.161	17657
895.283	17608
895.405	17543
895.526	17703
895.648	17665
895.769	17615
895.891	17646
896.012	17707
896.134	17722
896.255	17821
896.376	17703
896.498	17634
896.619	17729
896.74	17752
896.861	17722
896.982	18068
897.103	18247
897.224	17973
897.345	18022
897.466	17908
897.587	17950
897.708	18026
897.828	17980
897.949	17847
898.07	17741
898.19	17882
898.311	17939
898.431	17897
898.552	17897
898.672	17973
898.792	17866
898.913	17977
899.033	17764
899.153	17691
899.273	17474
899.393	17695
899.513	17767
899.633	17649
899.753	17752
899.873	17623
899.993	17600
900.113	17661
900.232	17676
900.352	17566
900.472	17535
900.591	17474
900.711	17490
900.83	17535
900.95	17589
901.069	17695
901.189	17307
901.308	17273
901.427	17147
901.546	17189
901.665	17204
901.784	17204
901.904	16942
902.023	16858
902.141	16721
902.26	16588
902.379	16729
902.498	16786
902.617	16622
902.735	16721
902.854	16592
902.973	16603
903.091	16314
903.21	16367
903.328	16284
903.446	16257
903.565	16181
903.683	16158
903.801	16101
903.919	16150
904.038	16093
904.156	15934
904.274	16013
904.392	15991
904.51	15934
904.627	15975
904.745	16051
904.863	15907
904.981	15713
905.098	15606
905.216	15622
905.334	15701
905.451	15671
905.569	15545
905.686	15641
905.803	15671
905.921	15462
906.038	15526
906.155	15439
906.272	15279
906.389	15325
906.506	15192
906.623	15161
906.74	15119
906.857	14948
906.974	15085
907.091	15188
907.208	15268
907.324	15108
907.441	15013
907.557	14834
907.674	14880
907.79	14758
907.907	14849
908.023	14929
908.139	14815
908.256	14754
908.372	14739
908.488	14667
908.604	14518
908.72	14537
908.836	14530
908.952	14499
909.068	14511
909.184	14621
909.3	14473
909.415	14568
909.531	14492
909.647	14267
909.762	14305
909.878	14252
909.993	14225
910.108	14202
910.224	14229
910.339	14225
910.454	14145
910.57	14187
910.685	13909
910.8	14290
910.915	14237
911.03	14081
911.145	13845
911.259	13814
911.374	13944
911.489	13879
911.604	13734
911.718	13639
911.833	13700
911.947	13506
912.062	13476
912.176	13624
912.291	13712
912.405	13601
912.519	13822
912.633	13826
912.748	13651
912.862	13578
912.976	13529
913.09	13331
913.204	13441
913.318	13476
913.431	13468
913.545	13609
913.659	13571
913.772	13343
913.886	13377
914	13312
914.113	13320
914.226	13381
914.34	13335
914.453	13228
914.566	13350
914.68	13232
914.793	13225
914.906	13080
915.019	12909
915.132	12939
915.245	12935
915.358	13088
915.47	13015
915.583	12996
915.696	13034
915.809	13084
915.921	13149
916.034	12996
916.146	12924
916.259	12806
916.371	12932
916.483	12909
916.595	12878
916.708	12878
916.82	12924
916.932	12856
917.044	12798
917.156	12840
917.268	12692
917.38	12753
917.491	12783
917.603	12833
917.715	12810
917.826	12730
917.938	12692
918.049	12604
918.161	12787
918.272	12810
918.384	12779
918.495	12700
918.606	12498
918.717	12456
918.828	12627
918.939	12604
919.05	12452
919.161	12475
919.272	12330
919.383	12353
919.494	12604
919.604	12684
919.715	12414
919.826	12464
919.936	12429
920.047	12521
920.157	12456
920.267	12692
920.378	12540
920.488	12528
920.598	12715
920.708	12715
920.818	12654
920.928	12681
921.038	12810
921.148	12768
921.258	12509
921.368	12296
921.477	12285
921.587	12342
921.697	12232
921.806	12216
921.916	12133
922.025	12060
922.134	12019
922.244	11901
922.353	12022
922.462	11920
922.571	11805
922.68	11577
922.789	11638
922.898	11722
923.007	11619
923.116	11623
923.224	11535
923.333	11558
923.442	11486
923.55	11395
923.659	11497
923.767	11512
923.876	11417
923.984	11554
924.092	11372
924.201	11368
924.309	11387
924.417	11402
924.525	11349
924.633	11360
924.741	12311
924.849	11159
924.956	11258
925.064	11128
925.172	11102
925.279	11067
925.387	11143
925.494	11220
925.602	11307
925.709	11170
925.816	11048
925.924	11162
926.031	11201
926.138	11098
926.245	11140
926.352	11048
926.459	11128
926.566	11170
926.673	11041
926.779	10949
926.886	10877
926.993	10801
927.099	10748
927.206	10729
927.312	10725
927.419	10824
927.525	10714
927.631	10790
927.737	10626
927.843	10660
927.95	10519
928.056	10656
928.162	10554
928.267	10656
928.373	11242
928.479	10660
928.585	10447
928.69	10512
928.796	10622
928.901	10531
929.007	10375
929.112	10542
929.218	10405
929.323	10421
929.428	10440
929.533	10497
929.638	10306
929.743	10303
929.848	10424
929.953	10341
930.058	10234
930.163	10055
930.267	10078
930.372	10265
930.477	10048
930.581	10310
930.685	10090
930.79	10002
930.894	10051
930.998	10006
931.103	10162
931.207	9743
931.311	9728
931.415	9561
931.519	9469
931.623	9397
