Data from test_V78500241_3117.txt Node
Date: Fri Mar 25 16:03:23 CST 2022
User: usil
Spectrometer: V785-0024
Trigger mode: 0
Integration Time (sec): 4.000000E-1
Scans to average: 1
Nonlinearity correction enabled: false
Boxcar width: 0
Storing dark spectrum: false
XAxis mode: Wavelengths
Number of Pixels in Spectrum: 1024
>>>>>Begin Spectral Data<<<<<
801.071	28523
801.214	28550
801.356	28329
801.499	28280
801.641	28200
801.783	28207
801.926	28272
802.068	28299
802.211	28238
802.353	28238
802.496	27880
802.638	27949
802.78	27808
802.923	27785
803.065	27743
803.208	27850
803.35	27865
803.492	28086
803.635	28158
803.777	27937
803.919	28025
804.061	28398
804.204	28246
804.346	28139
804.488	27964
804.63	28139
804.773	27972
804.915	28147
805.057	28257
805.199	28048
805.341	28413
805.483	28211
805.626	28158
805.768	28131
805.91	28268
806.052	28276
806.194	28070
806.336	28436
806.478	28375
806.62	28249
806.762	28443
806.904	28580
807.046	28793
807.188	28812
807.33	28698
807.472	28790
807.614	28778
807.756	28607
807.898	28618
808.04	28428
808.182	28672
808.324	28516
808.465	28679
808.607	28706
808.749	29003
808.891	29086
809.033	29075
809.174	29105
809.316	28995
809.458	28942
809.6	28892
809.741	29124
809.883	29029
810.025	29360
810.166	29318
810.308	29265
810.45	29204
810.591	29136
810.733	28904
810.875	28938
811.016	28957
811.158	28915
811.299	29132
811.441	29071
811.582	29033
811.724	29064
811.865	28965
812.007	29075
812.148	29086
812.29	29014
812.431	29162
812.573	29315
812.714	29410
812.855	29436
812.997	29703
813.138	29786
813.279	29687
813.421	29543
813.562	29379
813.703	29273
813.845	29166
813.986	28953
814.127	28877
814.268	28763
814.41	28752
814.551	28618
814.692	28660
814.833	28592
814.974	28706
815.115	28717
815.256	28535
815.397	28542
815.539	28596
815.68	28432
815.821	28470
815.962	28565
816.103	28500
816.244	28386
816.385	28394
816.526	28200
816.666	28124
816.807	28055
816.948	28105
817.089	28139
817.23	27994
817.371	28029
817.512	28013
817.653	27876
817.793	27888
817.934	27956
818.075	28059
818.216	28082
818.356	27888
818.497	27873
818.638	27804
818.778	27766
818.919	27682
819.06	27701
819.2	27998
819.341	27968
819.481	27979
819.622	28310
819.762	28421
819.903	28287
820.043	28200
820.184	28063
820.324	28192
820.465	28120
820.605	28074
820.746	28120
820.886	27956
821.026	28166
821.167	28070
821.307	28010
821.447	27979
821.588	27998
821.728	27690
821.868	27614
822.008	27622
822.149	27519
822.289	27557
822.429	27226
822.569	27283
822.709	27085
822.849	27005
822.99	27085
823.13	26864
823.27	27005
823.41	26902
823.55	26720
823.69	26895
823.83	26872
823.97	26781
824.11	26617
824.25	26537
824.389	26613
824.529	26781
824.669	26606
824.809	26853
824.949	26758
825.089	26769
825.228	26655
825.368	26609
825.508	26423
825.648	26564
825.787	26670
825.927	26606
826.067	26560
826.206	26522
826.346	26537
826.485	26545
826.625	26613
826.765	26579
826.904	26632
827.044	26396
827.183	26358
827.323	26180
827.462	26305
827.601	26294
827.741	26206
827.88	26199
828.02	26142
828.159	26210
828.298	26313
828.437	26195
828.577	26142
828.716	26256
828.855	26138
828.994	26031
829.134	25913
829.273	25959
829.412	25803
829.551	25906
829.69	25928
829.829	25917
829.968	25989
830.107	25982
830.246	25963
830.385	25936
830.524	25902
830.663	25807
830.802	25594
830.941	25502
831.08	25567
831.219	25616
831.357	25693
831.496	25807
831.635	25601
831.774	25567
831.913	25403
832.051	25308
832.19	25358
832.329	25400
832.467	25331
832.606	25202
832.744	25152
832.883	25053
833.022	25145
833.16	25285
833.299	25335
833.437	25255
833.576	25369
833.714	25289
833.852	25346
833.991	25217
834.129	25308
834.267	25308
834.406	25270
834.544	25209
834.682	25320
834.821	25312
834.959	25434
835.097	25069
835.235	25301
835.373	25247
835.511	25327
835.65	25069
835.788	25190
835.926	24920
836.064	24928
836.202	24996
836.34	25065
836.478	25065
836.615	24962
836.753	25099
836.891	25114
837.029	25050
837.167	25084
837.305	25015
837.443	24985
837.58	24951
837.718	25057
837.856	24966
837.993	24989
838.131	24924
838.269	24924
838.406	24779
838.544	24894
838.681	24700
838.819	24597
838.956	24460
839.094	24399
839.231	24369
839.369	24483
839.506	24696
839.643	24673
839.781	24315
839.918	24289
840.055	24296
840.193	24372
840.33	24338
840.467	24357
840.604	24399
840.742	24513
840.879	24254
841.016	24338
841.153	24110
841.29	24486
841.427	24262
841.564	24350
841.701	24384
841.838	24251
841.975	24125
842.112	24213
842.249	24220
842.385	24049
842.522	24327
842.659	24232
842.796	24178
842.933	23961
843.069	24060
843.206	24011
843.343	24133
843.479	23992
843.616	24064
843.752	23847
843.889	23817
844.025	23904
844.162	23855
844.298	24007
844.435	23828
844.571	23718
844.708	23878
844.844	23996
844.98	23901
845.117	23931
845.253	23794
845.389	23687
845.525	23874
845.661	23703
845.798	23478
845.934	23608
846.07	23501
846.206	23623
846.342	23718
846.478	23531
846.614	23330
846.75	23280
846.886	23296
847.022	23246
847.158	23318
847.294	23315
847.429	23273
847.565	23391
847.701	23539
847.837	23124
847.972	22911
848.108	23128
848.244	23227
848.379	22953
848.515	22782
848.65	22911
848.786	22755
848.921	22957
849.057	23010
849.192	23018
849.328	22904
849.463	22733
849.598	22873
849.734	22691
849.869	22740
850.004	22683
850.14	22580
850.275	22656
850.41	22523
850.545	22630
850.68	22512
850.815	22782
850.95	22672
851.085	22858
851.22	22797
851.355	22622
851.49	22683
851.625	22580
851.76	22622
851.895	22508
852.03	22508
852.165	22637
852.299	22672
852.434	22740
852.569	22672
852.703	22592
852.838	22702
852.973	22748
853.107	22824
853.242	22455
853.376	22516
853.511	22470
853.645	22405
853.78	22675
853.914	22497
854.048	22443
854.183	22386
854.317	22455
854.451	22622
854.585	22500
854.72	22489
854.854	22565
854.988	22367
855.122	22443
855.256	22348
855.39	22371
855.524	22599
855.658	22474
855.792	22409
855.926	22500
856.06	22523
856.194	22527
856.327	22557
856.461	22413
856.595	22421
856.729	22432
856.862	22664
856.996	22485
857.13	22660
857.263	22710
857.397	22569
857.53	22462
857.664	22497
857.797	22531
857.931	22618
858.064	22462
858.197	22615
858.331	22455
858.464	22455
858.597	22409
858.731	22455
858.864	22348
858.997	22386
859.13	22455
859.263	22531
859.396	22607
859.529	22554
859.662	22485
859.795	22493
859.928	22596
860.061	22771
860.194	22649
860.327	22447
860.46	22489
860.592	22615
860.725	22546
860.858	22634
860.99	22409
861.123	22459
861.256	22424
861.388	22497
861.521	23208
861.653	22322
861.786	22226
861.918	22249
862.05	22413
862.183	22242
862.315	22333
862.447	22371
862.58	22443
862.712	22196
862.844	22196
862.976	22238
863.108	22268
863.24	22508
863.372	22166
863.504	22116
863.636	22276
863.768	22162
863.9	22070
864.032	22143
864.164	22135
864.296	22276
864.428	22166
864.559	22246
864.691	22261
864.823	22162
864.954	22082
865.086	22257
865.217	22139
865.349	21998
865.48	22067
865.612	22109
865.743	22223
865.875	22128
866.006	22082
866.137	22078
866.269	22128
866.4	22013
866.531	22070
866.662	21983
866.793	21922
866.924	22044
867.055	22078
867.186	21949
867.317	21892
867.448	21960
867.579	21956
867.71	21926
867.841	21846
867.972	21968
868.103	22044
868.233	22082
868.364	22040
868.495	22082
868.625	22223
868.756	22276
868.886	22158
869.017	22234
869.147	22272
869.278	22265
869.408	22272
869.539	22200
869.669	22310
869.799	22223
869.929	22303
870.06	22447
870.19	22584
870.32	22478
870.45	22664
870.58	22580
870.71	22660
870.84	22721
870.97	22599
871.1	22557
871.23	22919
871.36	22881
871.489	22706
871.619	22828
871.749	22816
871.879	22793
872.008	22889
872.138	22748
872.267	22889
872.397	22706
872.526	22561
872.656	22481
872.785	22660
872.915	22889
873.044	22972
873.173	22812
873.303	22869
873.432	22919
873.561	23018
873.69	22828
873.819	22801
873.948	22995
874.077	22850
874.206	22805
874.335	22881
874.464	22949
874.593	23079
874.722	22938
874.851	23105
874.979	23086
875.108	23037
875.237	23094
875.365	22938
875.494	23044
875.623	23155
875.751	23022
875.88	23181
876.008	23269
876.136	23261
876.265	23486
876.393	23665
876.521	23524
876.65	23539
876.778	23436
876.906	23387
877.034	23414
877.162	23425
877.29	23368
877.418	23429
877.546	23254
877.674	23471
877.802	23376
877.93	23383
878.058	23326
878.185	23391
878.313	23288
878.441	23467
878.568	23189
878.696	23292
878.824	23353
878.951	23436
879.079	23570
879.206	23623
879.333	23535
879.461	23474
879.588	23379
879.715	23490
879.842	23783
879.97	23531
880.097	23246
880.224	23166
880.351	23318
880.478	23250
880.605	23242
880.732	23330
880.859	23539
880.986	23318
881.112	23178
881.239	23075
881.366	23048
881.493	22862
881.619	22717
881.746	22786
881.872	22782
881.999	22831
882.125	22759
882.252	22831
882.378	22675
882.505	22908
882.631	22588
882.757	22386
882.883	22512
883.01	22474
883.136	22440
883.262	22306
883.388	22360
883.514	22451
883.64	22519
883.766	22379
883.892	22204
884.018	22382
884.143	22325
884.269	22687
884.395	22246
884.52	22109
884.646	22131
884.772	22101
884.897	22070
885.023	22070
885.148	22230
885.274	22287
885.399	22109
885.524	21987
885.65	22055
885.775	22006
885.9	22051
886.025	22204
886.15	22162
886.275	22090
886.4	21979
886.525	21968
886.65	22021
886.775	22032
886.9	22116
887.025	22284
887.149	21994
887.274	21880
887.399	21884
887.523	21759
887.648	21812
887.773	21770
887.897	21941
888.021	21949
888.146	21755
888.27	22032
888.395	21960
888.519	21873
888.643	21804
888.767	21861
888.891	21774
889.015	21637
889.139	21724
889.263	21557
889.387	21823
889.511	21781
889.635	21755
889.759	21663
889.883	21572
890.006	21656
890.13	21739
890.254	21644
890.377	21675
890.501	21500
890.624	21382
890.748	21519
890.871	21260
890.995	21321
891.118	21184
891.241	21199
891.364	21226
891.488	21321
891.611	21119
891.734	21237
891.857	21237
891.98	21279
892.103	21203
892.226	21233
892.349	21146
892.471	21001
892.594	21100
892.717	21142
892.839	21150
892.962	21150
893.085	21146
893.207	21051
893.33	20895
893.452	20941
893.575	21161
893.697	21127
893.819	21138
893.941	21260
894.064	21249
894.186	21032
894.308	21005
894.43	21169
894.552	21245
894.674	21222
894.796	20853
894.918	21001
895.04	21058
895.161	21142
895.283	21199
895.405	20902
895.526	21024
895.648	21013
895.769	21085
895.891	21058
896.012	21180
896.134	21135
896.255	20979
896.376	21112
896.498	21024
896.619	21173
896.74	21051
896.861	21081
896.982	21389
897.103	21507
897.224	21264
897.345	21222
897.466	21192
897.587	21351
897.708	21367
897.828	21230
897.949	21176
898.07	21108
898.19	21150
898.311	21306
898.431	21157
898.552	21310
898.672	21275
898.792	21420
898.913	21275
899.033	21058
899.153	21146
899.273	20830
899.393	20937
899.513	21005
899.633	21108
899.753	21070
899.873	20891
899.993	20960
900.113	20929
900.232	20910
900.352	20956
900.472	20754
900.591	20674
900.711	20777
900.83	20769
900.95	20743
901.069	20750
901.189	20583
901.308	20469
901.427	20507
901.546	20366
901.665	20324
901.784	20358
901.904	20237
902.023	20149
902.141	19822
902.26	19902
902.379	19936
902.498	19868
902.617	19807
902.735	19963
902.854	19913
902.973	19666
903.091	19563
903.21	19411
903.328	19445
903.446	19377
903.565	19232
903.683	19274
903.801	19072
903.919	19266
904.038	19251
904.156	19004
904.274	19114
904.392	19141
904.51	19129
904.627	18996
904.745	19148
904.863	19171
904.981	18844
905.098	18711
905.216	18711
905.334	18715
905.451	18707
905.569	18688
905.686	18825
905.803	18764
905.921	18475
906.038	18555
906.155	18506
906.272	18372
906.389	18506
906.506	18201
906.623	18224
906.74	18243
906.857	18049
906.974	18041
907.091	18281
907.208	18357
907.324	18144
907.441	18201
907.557	17980
907.674	17878
907.79	17832
907.907	17908
908.023	18007
908.139	17939
908.256	17863
908.372	17798
908.488	17817
908.604	17653
908.72	17630
908.836	17775
908.952	17680
909.068	17817
909.184	17695
909.3	17707
909.415	17649
909.531	17608
909.647	17440
909.762	17341
909.878	17303
909.993	17311
910.108	17383
910.224	17242
910.339	17311
910.454	17162
910.57	17208
910.685	17105
910.8	17398
910.915	17277
911.03	17178
911.145	16946
911.259	16972
911.374	16965
911.489	16816
911.604	16911
911.718	16630
911.833	16596
911.947	16550
912.062	16558
912.176	16653
912.291	16672
912.405	16664
912.519	16919
912.633	16930
912.748	16748
912.862	16672
912.976	16607
913.09	16481
913.204	16523
913.318	16523
913.431	16508
913.545	16649
913.659	16626
913.772	16447
913.886	16314
914	16295
914.113	16303
914.226	16375
914.34	16257
914.453	16223
914.566	16299
914.68	16147
914.793	16067
914.906	15994
915.019	15945
915.132	15835
915.245	15876
915.358	15945
915.47	15899
915.583	15781
915.696	15846
915.809	15915
915.921	16063
916.034	15827
916.146	15747
916.259	15747
916.371	15804
916.483	15736
916.595	15698
916.708	15625
916.82	15622
916.932	15641
917.044	15644
917.156	15660
917.268	15454
917.38	15648
917.491	15424
917.603	15492
917.715	15500
917.826	15500
917.938	15473
918.049	15256
918.161	15428
918.272	15553
918.384	15439
918.495	15500
918.606	15245
918.717	15294
918.828	15252
918.939	15287
919.05	15123
919.161	15192
919.272	14895
919.383	15135
919.494	15393
919.604	15393
919.715	15260
919.826	15112
919.936	15085
920.047	15245
920.157	15279
920.267	15340
920.378	15173
920.488	15146
920.598	15405
920.708	15504
920.818	15363
920.928	15249
921.038	15515
921.148	15359
921.258	15119
921.368	15028
921.477	14849
921.587	14883
921.697	14777
921.806	14956
921.916	14735
922.025	14568
922.134	14587
922.244	14446
922.353	14564
922.462	14450
922.571	14450
922.68	14259
922.789	14301
922.898	14180
923.007	14191
923.116	14221
923.224	14081
923.333	14164
923.442	14062
923.55	13967
923.659	13997
923.767	14111
923.876	13811
923.984	13940
924.092	13921
924.201	13932
924.309	13947
924.417	13864
924.525	13864
924.633	13852
924.741	14613
924.849	13651
924.956	13780
925.064	13662
925.172	13537
925.279	13544
925.387	13537
925.494	13628
925.602	13719
925.709	13605
925.816	13487
925.924	13464
926.031	13575
926.138	13518
926.245	13480
926.352	13426
926.459	13476
926.566	13548
926.673	13438
926.779	13308
926.886	13293
926.993	13145
927.099	13190
927.206	13080
927.312	12939
927.419	13031
927.525	13107
927.631	13107
927.737	12958
927.843	12958
927.95	12772
928.056	12951
928.162	12882
928.267	12905
928.373	13510
928.479	12924
928.585	12795
928.69	12943
928.796	12939
928.901	12757
929.007	12585
929.112	12776
929.218	12658
929.323	12646
929.428	12604
929.533	12745
929.638	12555
929.743	12620
929.848	12585
929.953	12494
930.058	12475
930.163	12262
930.267	12327
930.372	12410
930.477	12281
930.581	12429
930.685	12422
930.79	12270
930.894	12167
930.998	12216
931.103	12262
931.207	11897
931.311	11802
931.415	11680
931.519	11554
931.623	11490
