Data from test_V78500241_1816.txt Node
Date: Fri Mar 25 15:54:22 CST 2022
User: usil
Spectrometer: V785-0024
Trigger mode: 0
Integration Time (sec): 4.000000E-1
Scans to average: 1
Nonlinearity correction enabled: false
Boxcar width: 0
Storing dark spectrum: false
XAxis mode: Wavelengths
Number of Pixels in Spectrum: 1024
>>>>>Begin Spectral Data<<<<<
801.071	28835
801.214	28668
801.356	28489
801.499	28367
801.641	28257
801.783	28215
801.926	28367
802.068	28352
802.211	28207
802.353	28401
802.496	28116
802.638	27994
802.78	27975
802.923	27983
803.065	27747
803.208	27869
803.35	28029
803.492	28150
803.635	28284
803.777	28048
803.919	28162
804.061	28607
804.204	28265
804.346	28215
804.488	28131
804.63	28295
804.773	28128
804.915	28280
805.057	28401
805.199	28139
805.341	28291
805.483	28493
805.626	28371
805.768	28371
805.91	28329
806.052	28356
806.194	28360
806.336	28504
806.478	28466
806.62	28584
806.762	28573
806.904	28550
807.046	28778
807.188	28892
807.33	28919
807.472	28824
807.614	28752
807.756	28919
807.898	28615
808.04	28653
808.182	28615
808.324	28755
808.465	28755
808.607	28987
808.749	29060
808.891	29159
809.033	29197
809.174	29060
809.316	29231
809.458	29204
809.6	29113
809.741	29223
809.883	29231
810.025	29288
810.166	29189
810.308	29402
810.45	29204
810.591	29212
810.733	29067
810.875	29064
811.016	28843
811.158	29044
811.299	29071
811.441	29227
811.582	29220
811.724	29052
811.865	29048
812.007	29003
812.148	29143
812.29	29064
812.431	29227
812.573	29467
812.714	29509
812.855	29604
812.997	29589
813.138	29676
813.279	29824
813.421	29596
813.562	29547
813.703	29410
813.845	29406
813.986	29029
814.127	28885
814.268	28869
814.41	29022
814.551	28675
814.692	28759
814.833	28626
814.974	28668
815.115	28892
815.256	28672
815.397	28691
815.539	28710
815.68	28588
815.821	28462
815.962	28672
816.103	28622
816.244	28500
816.385	28428
816.526	28344
816.666	28207
816.807	28109
816.948	28204
817.089	28306
817.23	28181
817.371	28128
817.512	28086
817.653	28036
817.793	28093
817.934	28181
818.075	28219
818.216	28051
818.356	28128
818.497	28074
818.638	27869
818.778	27842
818.919	27892
819.06	27888
819.2	28021
819.341	28105
819.481	28162
819.622	28207
819.762	28341
819.903	28516
820.043	28306
820.184	28223
820.324	28299
820.465	28211
820.605	28139
820.746	28249
820.886	28055
821.026	28166
821.167	28116
821.307	28120
821.447	28268
821.588	28082
821.728	28013
821.868	27625
822.008	27625
822.149	27724
822.289	27595
822.429	27370
822.569	27291
822.709	27340
822.849	27127
822.99	27214
823.13	27123
823.27	27081
823.41	26940
823.55	26868
823.69	26994
823.83	26929
823.97	26861
824.11	26724
824.25	26606
824.389	26788
824.529	26880
824.669	26785
824.809	26990
824.949	26929
825.089	26891
825.228	26796
825.368	26609
825.508	26473
825.648	26727
825.787	26674
825.927	26651
826.067	26518
826.206	26651
826.346	26724
826.485	26712
826.625	26762
826.765	26708
826.904	26648
827.044	26492
827.183	26393
827.323	26362
827.462	26499
827.601	26298
827.741	26358
827.88	26336
828.02	26176
828.159	26225
828.298	26400
828.437	26465
828.577	26259
828.716	26317
828.855	26248
828.994	25936
829.134	25989
829.273	26111
829.412	25989
829.551	26046
829.69	26111
829.829	26115
829.968	26126
830.107	26092
830.246	26111
830.385	25986
830.524	25986
830.663	25909
830.802	25727
830.941	25510
831.08	25616
831.219	25765
831.357	25864
831.496	25799
831.635	25681
831.774	25594
831.913	25495
832.051	25514
832.19	25449
832.329	25415
832.467	25407
832.606	25358
832.744	25285
832.883	25297
833.022	25251
833.16	25297
833.299	25365
833.437	25346
833.576	25415
833.714	25362
833.852	25468
833.991	25304
834.129	25419
834.267	25419
834.406	25335
834.544	25403
834.682	25434
834.821	25244
834.959	25537
835.097	25282
835.235	25483
835.373	25327
835.511	25346
835.65	25160
835.788	25198
835.926	25168
836.064	24947
836.202	25133
836.34	25190
836.478	25221
836.615	25206
836.753	25259
836.891	25198
837.029	25148
837.167	25019
837.305	24981
837.443	25015
837.58	25114
837.718	25072
837.856	25133
837.993	24837
838.131	25004
838.269	24753
838.406	25069
838.544	24958
838.681	24753
838.819	24604
838.956	24452
839.094	24536
839.231	24437
839.369	24745
839.506	24817
839.643	24688
839.781	24509
839.918	24540
840.055	24467
840.193	24388
840.33	24418
840.467	24448
840.604	24407
840.742	24738
840.879	24285
841.016	24319
841.153	24410
841.29	24475
841.427	24452
841.564	24376
841.701	24372
841.838	24342
841.975	24327
842.112	24159
842.249	24273
842.385	24098
842.522	24281
842.659	24136
842.796	24110
842.933	24190
843.069	24060
843.206	24140
843.343	24133
843.479	24289
843.616	24178
843.752	24026
843.889	23942
844.025	23965
844.162	24053
844.298	23999
844.435	23901
844.571	23927
844.708	23882
844.844	24030
844.98	24018
845.117	24060
845.253	23824
845.389	23805
845.525	23764
845.661	23729
845.798	23733
845.934	23703
846.07	23657
846.206	23714
846.342	23794
846.478	23547
846.614	23398
846.75	23288
846.886	23417
847.022	23383
847.158	23520
847.294	23573
847.429	23360
847.565	23345
847.701	23554
847.837	23121
847.972	23048
848.108	23170
848.244	23200
848.379	22946
848.515	22965
848.65	22927
848.786	22976
848.921	23113
849.057	23075
849.192	22980
849.328	22976
849.463	22927
849.598	23006
849.734	22767
849.869	22790
850.004	22706
850.14	22721
850.275	22721
850.41	22554
850.545	22641
850.68	22713
850.815	22744
850.95	22706
851.085	22881
851.22	22877
851.355	22831
851.49	22748
851.625	22713
851.76	22584
851.895	22645
852.03	22588
852.165	22717
852.299	22668
852.434	22759
852.569	22706
852.703	22618
852.838	22755
852.973	22911
853.107	22892
853.242	22691
853.376	22516
853.511	22451
853.645	22455
853.78	22675
853.914	22668
854.048	22432
854.183	22485
854.317	22653
854.451	22839
854.585	22497
854.72	22462
854.854	22626
854.988	22436
855.122	22440
855.256	22379
855.39	22527
855.524	22535
855.658	22596
855.792	22531
855.926	22500
856.06	22596
856.194	22462
856.327	22542
856.461	22443
856.595	22466
856.729	22481
856.862	22634
856.996	22535
857.13	22493
857.263	22649
857.397	22573
857.53	22421
857.664	22580
857.797	22668
857.931	22649
858.064	22451
858.197	22713
858.331	22527
858.464	22462
858.597	22386
858.731	22481
858.864	22504
858.997	22493
859.13	22607
859.263	22694
859.396	22637
859.529	22455
859.662	22409
859.795	22523
859.928	22599
860.061	22698
860.194	22839
860.327	22702
860.46	22615
860.592	22584
860.725	22733
860.858	22607
860.99	22554
861.123	22470
861.256	22500
861.388	22550
861.521	23212
861.653	22371
861.786	22261
861.918	22478
862.05	22413
862.183	22493
862.315	22466
862.447	22611
862.58	22325
862.712	22287
862.844	22196
862.976	22360
863.108	22360
863.24	22748
863.372	22188
863.504	22265
863.636	22169
863.768	22158
863.9	22261
864.032	22162
864.164	22139
864.296	22128
864.428	22466
864.559	22356
864.691	22173
864.823	22128
864.954	22306
865.086	22112
865.217	22223
865.349	22025
865.48	22135
865.612	22070
865.743	22185
865.875	22173
866.006	22013
866.137	22112
866.269	22093
866.4	22188
866.531	22097
866.662	22074
866.793	22021
866.924	22074
867.055	22086
867.186	21983
867.317	21880
867.448	21941
867.579	22063
867.71	21994
867.841	22044
867.972	21998
868.103	22025
868.233	22162
868.364	22150
868.495	22116
868.625	22314
868.756	22462
868.886	22211
869.017	22238
869.147	22348
869.278	22443
869.408	22276
869.539	22242
869.669	22272
869.799	22325
869.929	22303
870.06	22451
870.19	22664
870.32	22512
870.45	22577
870.58	22637
870.71	22790
870.84	22733
870.97	22668
871.1	22721
871.23	22915
871.36	22675
871.489	22755
871.619	22816
871.749	22847
871.879	22854
872.008	23003
872.138	22957
872.267	22790
872.397	22820
872.526	22691
872.656	22740
872.785	22793
872.915	22915
873.044	23044
873.173	23041
873.303	22999
873.432	22850
873.561	22896
873.69	22820
873.819	22915
873.948	23083
874.077	22862
874.206	22748
874.335	22877
874.464	22972
874.593	23235
874.722	23075
874.851	23143
874.979	23113
875.108	23212
875.237	23025
875.365	23067
875.494	23071
875.623	23220
875.751	23086
875.88	23056
876.008	23258
876.136	23246
876.265	23516
876.393	23520
876.521	23634
876.65	23665
876.778	23539
876.906	23406
877.034	23429
877.162	23490
877.29	23356
877.418	23562
877.546	23360
877.674	23535
877.802	23421
877.93	23402
878.058	23486
878.185	23296
878.313	23326
878.441	23520
878.568	23299
878.696	23315
878.824	23417
878.951	23467
879.079	23577
879.206	23805
879.333	23528
879.461	23471
879.588	23425
879.715	23783
879.842	23672
879.97	23543
880.097	23330
880.224	23181
880.351	23273
880.478	23307
880.605	23296
880.732	23216
880.859	23562
880.986	23128
881.112	23284
881.239	23094
881.366	22984
881.493	22885
881.619	22725
881.746	22976
881.872	22812
881.999	22892
882.125	22660
882.252	22820
882.378	22816
882.505	23010
882.631	22706
882.757	22497
882.883	22729
883.01	22538
883.136	22371
883.262	22329
883.388	22329
883.514	22637
883.64	22493
883.766	22333
883.892	22230
884.018	22382
884.143	22352
884.269	22424
884.395	22131
884.52	22101
884.646	22158
884.772	22059
884.897	21960
885.023	22196
885.148	22211
885.274	22207
885.399	22261
885.524	22090
885.65	22090
885.775	22124
885.9	21979
886.025	22230
886.15	22173
886.275	21949
886.4	22051
886.525	21979
886.65	22078
886.775	22067
886.9	22192
887.025	22356
887.149	22135
887.274	21941
887.399	21869
887.523	21934
887.648	21953
887.773	21724
887.897	21930
888.021	21892
888.146	21895
888.27	21888
888.395	21956
888.519	21998
888.643	21968
888.767	21926
888.891	21717
889.015	21682
889.139	21781
889.263	21694
889.387	21720
889.511	21842
889.635	21789
889.759	21644
889.883	21485
890.006	21766
890.13	21751
890.254	21606
890.377	21599
890.501	21401
890.624	21378
890.748	21564
890.871	21367
890.995	21226
891.118	21241
891.241	21233
891.364	21241
891.488	21340
891.611	21264
891.734	21176
891.857	21287
891.98	21165
892.103	21195
892.226	21184
892.349	21131
892.471	21017
892.594	21058
892.717	21131
892.839	21081
892.962	21135
893.085	21245
893.207	21237
893.33	21176
893.452	20990
893.575	21165
893.697	21157
893.819	21287
893.941	21283
894.064	21161
894.186	21017
894.308	21169
894.43	21161
894.552	21135
894.674	21157
894.796	21074
894.918	20963
895.04	21055
895.161	21207
895.283	21036
895.405	21020
895.526	21096
895.648	21009
895.769	21188
895.891	21077
896.012	21043
896.134	21211
896.255	21081
896.376	21062
896.498	21169
896.619	21077
896.74	21123
896.861	21081
896.982	21405
897.103	21504
897.224	21230
897.345	21310
897.466	21260
897.587	21340
897.708	21306
897.828	21363
897.949	21195
898.07	21131
898.19	21287
898.311	21382
898.431	21370
898.552	21157
898.672	21302
898.792	21283
898.913	21218
899.033	21173
899.153	21150
899.273	21009
899.393	21001
899.513	21085
899.633	21036
899.753	20899
899.873	20994
899.993	20864
900.113	20925
900.232	20963
900.352	20845
900.472	20880
900.591	20823
900.711	20750
900.83	20686
900.95	20941
901.069	20899
901.189	20667
901.308	20438
901.427	20317
901.546	20400
901.665	20393
901.784	20377
901.904	20309
902.023	20031
902.141	19902
902.26	19898
902.379	19997
902.498	19887
902.617	19826
902.735	19849
902.854	19795
902.973	19731
903.091	19685
903.21	19445
903.328	19540
903.446	19571
903.565	19236
903.683	19362
903.801	19206
903.919	19217
904.038	19259
904.156	19095
904.274	19175
904.392	19042
904.51	18977
904.627	19065
904.745	19065
904.863	19107
904.981	18825
905.098	18707
905.216	18806
905.334	18726
905.451	18768
905.569	18620
905.686	18779
905.803	18703
905.921	18498
906.038	18608
906.155	18563
906.272	18422
906.389	18483
906.506	18304
906.623	18213
906.74	18270
906.857	18083
906.974	18144
907.091	18330
907.208	18365
907.324	18228
907.441	18209
907.557	17988
907.674	18019
907.79	17901
907.907	17821
908.023	18022
908.139	18030
908.256	17855
908.372	17802
908.488	17821
908.604	17764
908.72	17665
908.836	17661
908.952	17703
909.068	17680
909.184	17745
909.3	17680
909.415	17737
909.531	17665
909.647	17395
909.762	17512
909.878	17353
909.993	17341
910.108	17250
910.224	17277
910.339	17433
910.454	17288
910.57	17140
910.685	16987
910.8	17360
910.915	17322
911.03	17181
911.145	17029
911.259	17075
911.374	16927
911.489	16968
911.604	16801
911.718	16675
911.833	16790
911.947	16561
912.062	16573
912.176	16656
912.291	16683
912.405	16717
912.519	16889
912.633	16843
912.748	16774
912.862	16649
912.976	16588
913.09	16398
913.204	16428
913.318	16500
913.431	16577
913.545	16542
913.659	16497
913.772	16470
913.886	16363
914	16295
914.113	16409
914.226	16344
914.34	16390
914.453	16196
914.566	16356
914.68	16177
914.793	16150
914.906	15934
915.019	15831
915.132	15789
915.245	15823
915.358	15831
915.47	15907
915.583	15857
915.696	15903
915.809	16013
915.921	15960
916.034	15766
916.146	15762
916.259	15774
916.371	15842
916.483	15812
916.595	15576
916.708	15789
916.82	15732
916.932	15709
917.044	15667
917.156	15629
917.268	15477
917.38	15500
917.491	15340
917.603	15504
917.715	15595
917.826	15458
917.938	15428
918.049	15287
918.161	15561
918.272	15477
918.384	15595
918.495	15439
918.606	15203
918.717	15195
918.828	15272
918.939	15268
919.05	15112
919.161	15249
919.272	15077
919.383	15112
919.494	15302
919.604	15397
919.715	15264
919.826	15123
919.936	15199
920.047	15199
920.157	15188
920.267	15348
920.378	15237
920.488	15009
920.598	15454
920.708	15439
920.818	15302
920.928	15310
921.038	15447
921.148	15447
921.258	15051
921.368	15020
921.477	14925
921.587	14952
921.697	14895
921.806	14845
921.916	14693
922.025	14667
922.134	14549
922.244	14530
922.353	14583
922.462	14355
922.571	14343
922.68	14183
922.789	14248
922.898	14084
923.007	14145
923.116	14210
923.224	14103
923.333	14145
923.442	14092
923.55	14024
923.659	14035
923.767	14027
923.876	14046
923.984	13947
924.092	13860
924.201	14008
924.309	13837
924.417	13959
924.525	13734
924.633	13860
924.741	14552
924.849	13605
924.956	13738
925.064	13571
925.172	13510
925.279	13468
925.387	13525
925.494	13518
925.602	13643
925.709	13616
925.816	13400
925.924	13529
926.031	13594
926.138	13529
926.245	13487
926.352	13365
926.459	13540
926.566	13506
926.673	13324
926.779	13346
926.886	13278
926.993	13095
927.099	13129
927.206	13072
927.312	13126
927.419	13050
927.525	13137
927.631	13122
927.737	12977
927.843	12890
927.95	12821
928.056	12894
928.162	12916
928.267	12966
928.373	13544
928.479	12886
928.585	12665
928.69	12825
928.796	12871
928.901	12760
929.007	12601
929.112	12749
929.218	12734
929.323	12726
929.428	12631
929.533	12757
929.638	12574
929.743	12593
929.848	12612
929.953	12616
930.058	12536
930.163	12330
930.267	12391
930.372	12429
930.477	12232
930.581	12456
930.685	12350
930.79	12106
930.894	12239
930.998	12247
931.103	12304
931.207	11980
931.311	11866
931.415	11737
931.519	11596
931.623	11486
