Data from test_V78500241_2084.txt Node
Date: Fri Mar 25 15:56:14 CST 2022
User: usil
Spectrometer: V785-0024
Trigger mode: 0
Integration Time (sec): 4.000000E-1
Scans to average: 1
Nonlinearity correction enabled: false
Boxcar width: 0
Storing dark spectrum: false
XAxis mode: Wavelengths
Number of Pixels in Spectrum: 1024
>>>>>Begin Spectral Data<<<<<
801.071	29223
801.214	29147
801.356	29083
801.499	29041
801.641	28965
801.783	28900
801.926	28938
802.068	28869
802.211	28824
802.353	28828
802.496	28634
802.638	28573
802.78	28478
802.923	28466
803.065	28481
803.208	28478
803.35	28577
803.492	28797
803.635	28980
803.777	28706
803.919	28797
804.061	28953
804.204	28831
804.346	28740
804.488	28706
804.63	28862
804.773	28873
804.915	28835
805.057	29014
805.199	28843
805.341	29006
805.483	29041
805.626	29124
805.768	28866
805.91	28934
806.052	29052
806.194	28812
806.336	29303
806.478	29044
806.62	29025
806.762	29147
806.904	29417
807.046	29535
807.188	29573
807.33	29554
807.472	29512
807.614	29474
807.756	29596
807.898	29360
808.04	29436
808.182	29235
808.324	29414
808.465	29387
808.607	29653
808.749	29737
808.891	29961
809.033	29939
809.174	29752
809.316	29691
809.458	29703
809.6	29805
809.741	29764
809.883	29893
810.025	29942
810.166	29969
810.308	30022
810.45	30049
810.591	29862
810.733	29874
810.875	29840
811.016	29790
811.158	29680
811.299	29790
811.441	29923
811.582	30041
811.724	29794
811.865	29794
812.007	29893
812.148	29813
812.29	29851
812.431	29855
812.573	30102
812.714	30330
812.855	30330
812.997	30486
813.138	30490
813.279	30304
813.421	30486
813.562	30190
813.703	30159
813.845	29764
813.986	29684
814.127	29646
814.268	29512
814.41	29657
814.551	29493
814.692	29551
814.833	29326
814.974	29421
815.115	29577
815.256	29341
815.397	29395
815.539	29398
815.68	29353
815.821	29189
815.962	29307
816.103	29292
816.244	29094
816.385	29258
816.526	28987
816.666	28991
816.807	28733
816.948	28824
817.089	28946
817.23	28877
817.371	28767
817.512	28824
817.653	28767
817.793	28698
817.934	28801
818.075	28596
818.216	28866
818.356	28767
818.497	28752
818.638	28580
818.778	28626
818.919	28596
819.06	28721
819.2	28660
819.341	28820
819.481	28953
819.622	28991
819.762	29174
819.903	29056
820.043	29170
820.184	28980
820.324	28911
820.465	29079
820.605	28976
820.746	28972
820.886	28888
821.026	29037
821.167	28862
821.307	28881
821.447	28828
821.588	28790
821.728	28660
821.868	28516
822.008	28306
822.149	28272
822.289	28249
822.429	28025
822.569	28097
822.709	28029
822.849	27785
822.99	27842
823.13	27800
823.27	27846
823.41	27762
823.55	27701
823.69	27629
823.83	27671
823.97	27526
824.11	27500
824.25	27447
824.389	27473
824.529	27549
824.669	27606
824.809	27648
824.949	27591
825.089	27538
825.228	27610
825.368	27374
825.508	27367
825.648	27397
825.787	27458
825.927	27389
826.067	27367
826.206	27507
826.346	27348
826.485	27374
826.625	27378
826.765	27466
826.904	27431
827.044	27116
827.183	27173
827.323	27036
827.462	27306
827.601	27089
827.741	27100
827.88	27241
828.02	26956
828.159	27131
828.298	27127
828.437	27180
828.577	27009
828.716	27195
828.855	27009
828.994	26861
829.134	26689
829.273	26857
829.412	26796
829.551	26861
829.69	26796
829.829	26891
829.968	26777
830.107	26792
830.246	26944
830.385	26758
830.524	26693
830.663	26594
830.802	26541
830.941	26530
831.08	26396
831.219	26404
831.357	26453
831.496	26674
831.635	26366
831.774	26385
831.913	26119
832.051	26210
832.19	26298
832.329	26149
832.467	26039
832.606	26008
832.744	26005
832.883	26092
833.022	26012
833.16	26134
833.299	26122
833.437	26096
833.576	26206
833.714	26180
833.852	26233
833.991	26221
834.129	26256
834.267	26191
834.406	26054
834.544	26195
834.682	26073
834.821	26046
834.959	26286
835.097	26088
835.235	26195
835.373	26084
835.511	26157
835.65	25986
835.788	25913
835.926	25788
836.064	25799
836.202	25734
836.34	25982
836.478	25986
836.615	26016
836.753	25887
836.891	25875
837.029	25970
837.167	25936
837.305	25864
837.443	26001
837.58	25666
837.718	25769
837.856	25860
837.993	25723
838.131	25639
838.269	25700
838.406	25506
838.544	25666
838.681	25476
838.819	25419
838.956	25206
839.094	25251
839.231	25282
839.369	25301
839.506	25639
839.643	25407
839.781	25190
839.918	25160
840.055	25217
840.193	25244
840.33	25194
840.467	25129
840.604	25118
840.742	25415
840.879	25015
841.016	25057
841.153	25034
841.29	25297
841.427	24992
841.564	25072
841.701	25107
841.838	25072
841.975	24920
842.112	25042
842.249	25012
842.385	24863
842.522	25072
842.659	24935
842.796	24867
842.933	24783
843.069	24791
843.206	24890
843.343	24863
843.479	24749
843.616	24897
843.752	24650
843.889	24681
844.025	24833
844.162	24703
844.298	24696
844.435	24692
844.571	24669
844.708	24764
844.844	24897
844.98	24738
845.117	24802
845.253	24639
845.389	24414
845.525	24410
845.661	24513
845.798	24254
845.934	24525
846.07	24319
846.206	24464
846.342	24479
846.478	24357
846.614	24258
846.75	24102
846.886	24060
847.022	24167
847.158	24125
847.294	24216
847.429	24060
847.565	23973
847.701	24266
847.837	23821
847.972	23695
848.108	23992
848.244	23958
848.379	23779
848.515	23722
848.65	23668
848.786	23798
848.921	23752
849.057	23733
849.192	23642
849.328	23764
849.463	23661
849.598	23543
849.734	23570
849.869	23566
850.004	23406
850.14	23429
850.275	23493
850.41	23311
850.545	23410
850.68	23482
850.815	23524
850.95	23440
851.085	23634
851.22	23539
851.355	23474
851.49	23242
851.625	23284
851.76	23444
851.895	23372
852.03	23425
852.165	23627
852.299	23429
852.434	23455
852.569	23566
852.703	23440
852.838	23463
852.973	23619
853.107	23490
853.242	23417
853.376	23315
853.511	23102
853.645	23227
853.78	23421
853.914	23216
854.048	23242
854.183	23231
854.317	23429
854.451	23368
854.585	23246
854.72	23299
854.854	23246
854.988	23155
855.122	23250
855.256	23090
855.39	23303
855.524	23284
855.658	23292
855.792	23170
855.926	23216
856.06	23258
856.194	23360
856.327	23299
856.461	23075
856.595	23181
856.729	23151
856.862	23421
856.996	23334
857.13	23410
857.263	23398
857.397	23341
857.53	23220
857.664	23322
857.797	23326
857.931	23349
858.064	23212
858.197	23448
858.331	23307
858.464	23273
858.597	23121
858.731	23223
858.864	23121
858.997	23162
859.13	23269
859.263	23379
859.396	23322
859.529	23170
859.662	23166
859.795	23299
859.928	23337
860.061	23345
860.194	23486
860.327	23174
860.46	23277
860.592	23402
860.725	23360
860.858	23364
860.99	23353
861.123	23155
861.256	23261
861.388	23242
861.521	24011
861.653	23174
861.786	22991
861.918	23010
862.05	23086
862.183	23075
862.315	23189
862.447	23162
862.58	23204
862.712	22972
862.844	22984
862.976	23029
863.108	22915
863.24	23349
863.372	22877
863.504	22911
863.636	23018
863.768	23022
863.9	22999
864.032	22786
864.164	22831
864.296	22930
864.428	22961
864.559	22984
864.691	22938
864.823	22949
864.954	22866
865.086	22904
865.217	22869
865.349	22771
865.48	22755
865.612	22839
865.743	22961
865.875	22847
866.006	22744
866.137	22904
866.269	22835
866.4	22691
866.531	22797
866.662	22687
866.793	22771
866.924	22831
867.055	22809
867.186	22771
867.317	22767
867.448	22668
867.579	22790
867.71	22664
867.841	22691
867.972	22675
868.103	22649
868.233	22828
868.364	22828
868.495	22767
868.625	22930
868.756	23143
868.886	22976
869.017	22987
869.147	23094
869.278	23105
869.408	22927
869.539	22942
869.669	23052
869.799	22904
869.929	22987
870.06	22999
870.19	23220
870.32	23208
870.45	23246
870.58	23239
870.71	23463
870.84	23360
870.97	23417
871.1	23372
871.23	23699
871.36	23691
871.489	23417
871.619	23543
871.749	23573
871.879	23668
872.008	23638
872.138	23558
872.267	23604
872.397	23535
872.526	23360
872.656	23436
872.785	23402
872.915	23615
873.044	23657
873.173	23543
873.303	23615
873.432	23604
873.561	23805
873.69	23592
873.819	23562
873.948	23661
874.077	23490
874.206	23558
874.335	23547
874.464	23661
874.593	23707
874.722	23771
874.851	23851
874.979	23752
875.108	23802
875.237	23767
875.365	23828
875.494	23604
875.623	23798
875.751	23802
875.88	23775
876.008	23882
876.136	24015
876.265	24182
876.393	24292
876.521	24144
876.65	24289
876.778	24148
876.906	23954
877.034	24144
877.162	24186
877.29	24030
877.418	24098
877.546	24114
877.674	24076
877.802	24133
877.93	24152
878.058	24049
878.185	23973
878.313	24159
878.441	24076
878.568	23847
878.696	24076
878.824	24121
878.951	24220
879.079	24270
879.206	24353
879.333	24228
879.461	24220
879.588	24277
879.715	24262
879.842	24334
879.97	24174
880.097	23904
880.224	23935
880.351	24060
880.478	24015
880.605	23950
880.732	23859
880.859	24159
880.986	24064
881.112	24026
881.239	23866
881.366	23653
881.493	23570
881.619	23474
881.746	23467
881.872	23566
881.999	23516
882.125	23493
882.252	23665
882.378	23467
882.505	23592
882.631	23326
882.757	23231
882.883	23322
883.01	23212
883.136	23094
883.262	23147
883.388	22965
883.514	23064
883.64	23197
883.766	23052
883.892	22934
884.018	22999
884.143	23174
884.269	23239
884.395	22885
884.52	22812
884.646	22801
884.772	22740
884.897	22596
885.023	22828
885.148	22957
885.274	22942
885.399	22953
885.524	22725
885.65	22873
885.775	22656
885.9	22736
886.025	22820
886.15	22740
886.275	22683
886.4	22630
886.525	22828
886.65	22706
886.775	22850
886.9	22786
887.025	23025
887.149	22805
887.274	22634
887.399	22584
887.523	22497
887.648	22371
887.773	22508
887.897	22542
888.021	22440
888.146	22466
888.27	22466
888.395	22596
888.519	22493
888.643	22546
888.767	22603
888.891	22440
889.015	22291
889.139	22371
889.263	22268
889.387	22428
889.511	22607
889.635	22493
889.759	22246
889.883	22261
890.006	22329
890.13	22382
890.254	22242
890.377	22230
890.501	22013
890.624	22093
890.748	22150
890.871	22010
890.995	21918
891.118	21774
891.241	21926
891.364	21975
891.488	22082
891.611	21876
891.734	21857
891.857	22044
891.98	21835
892.103	22006
892.226	21873
892.349	21835
892.471	21614
892.594	21720
892.717	21667
892.839	21728
892.962	21785
893.085	21644
893.207	21747
893.33	21656
893.452	21587
893.575	21766
893.697	21701
893.819	21903
893.941	21926
894.064	21751
894.186	21633
894.308	21549
894.43	21850
894.552	21823
894.674	21755
894.796	21568
894.918	21633
895.04	21717
895.161	21762
895.283	21747
895.405	21660
895.526	21797
895.648	21633
895.769	21781
895.891	21770
896.012	21816
896.134	21671
896.255	21762
896.376	21644
896.498	21686
896.619	21732
896.74	21641
896.861	21888
896.982	22021
897.103	22097
897.224	21857
897.345	21972
897.466	21835
897.587	21739
897.708	21983
897.828	21850
897.949	21895
898.07	21701
898.19	21781
898.311	21953
898.431	21831
898.552	21819
898.672	21975
898.792	21838
898.913	21876
899.033	21755
899.153	21641
899.273	21568
899.393	21462
899.513	21545
899.633	21656
899.753	21595
899.873	21416
899.993	21435
900.113	21545
900.232	21625
900.352	21469
900.472	21469
900.591	21325
900.711	21336
900.83	21370
900.95	21439
901.069	21405
901.189	21233
901.308	21020
901.427	20914
901.546	20929
901.665	20834
901.784	20948
901.904	20785
902.023	20785
902.141	20564
902.26	20454
902.379	20526
902.498	20339
902.617	20298
902.735	20434
902.854	20434
902.973	20393
903.091	20153
903.21	20031
903.328	19986
903.446	19967
903.565	19856
903.683	19890
903.801	19723
903.919	19635
904.038	19784
904.156	19613
904.274	19632
904.392	19544
904.51	19655
904.627	19586
904.745	19578
904.863	19533
904.981	19327
905.098	19232
905.216	19266
905.334	19282
905.451	19388
905.569	19312
905.686	19263
905.803	19297
905.921	19042
906.038	19095
906.155	19046
906.272	18977
906.389	19000
906.506	18776
906.623	18745
906.74	18768
906.857	18700
906.974	18627
907.091	18734
907.208	18909
907.324	18745
907.441	18806
907.557	18506
907.674	18555
907.79	18323
907.907	18532
908.023	18467
908.139	18506
908.256	18353
908.372	18407
908.488	18262
908.604	18289
908.72	18159
908.836	18277
908.952	18083
909.068	18239
909.184	18311
909.3	18159
909.415	18174
909.531	18022
909.647	17965
909.762	17920
909.878	17916
909.993	17893
910.108	17866
910.224	17790
910.339	17885
910.454	17710
910.57	17805
910.685	17657
910.8	17923
910.915	17771
911.03	17722
911.145	17539
911.259	17558
911.374	17448
911.489	17349
911.604	17337
911.718	17311
911.833	17151
911.947	16961
912.062	17140
912.176	17273
912.291	17261
912.405	17280
912.519	17406
912.633	17372
912.748	17227
912.862	17181
912.976	17010
913.09	16889
913.204	16900
913.318	17045
913.431	17159
913.545	17052
913.659	17109
913.772	16999
913.886	16835
914	16824
914.113	16786
914.226	16790
914.34	16892
914.453	16649
914.566	16805
914.68	16767
914.793	16561
914.906	16554
915.019	16432
915.132	16394
915.245	16284
915.358	16451
915.47	16322
915.583	16284
915.696	16322
915.809	16440
915.921	16527
916.034	16272
916.146	16322
916.259	16177
916.371	16276
916.483	16333
916.595	16226
916.708	16166
916.82	16169
916.932	16021
917.044	16097
917.156	16040
917.268	16040
917.38	16116
917.491	16036
917.603	15964
917.715	16032
917.826	16029
917.938	15918
918.049	15759
918.161	15918
918.272	15968
918.384	16055
918.495	15876
918.606	15724
918.717	15549
918.828	15755
918.939	15591
919.05	15618
919.161	15679
919.272	15675
919.383	15443
919.494	15747
919.604	15865
919.715	15568
919.826	15492
919.936	15644
920.047	15720
920.157	15690
920.267	15854
920.378	15652
920.488	15488
920.598	15720
920.708	15892
920.818	15865
920.928	15755
921.038	15854
921.148	15823
921.258	15606
921.368	15428
921.477	15340
921.587	15359
921.697	15264
921.806	15264
921.916	15214
922.025	15032
922.134	15005
922.244	14941
922.353	14960
922.462	14781
922.571	14765
922.68	14663
922.789	14743
922.898	14648
923.007	14587
923.116	14648
923.224	14606
923.333	14564
923.442	14408
923.55	14499
923.659	14446
923.767	14431
923.876	14377
923.984	14396
924.092	14317
924.201	14275
924.309	14351
924.417	14225
924.525	14252
924.633	14221
924.741	15135
924.849	14073
924.956	14157
925.064	14031
925.172	13928
925.279	13944
925.387	13944
925.494	13986
925.602	14058
925.709	14024
925.816	13868
925.924	13845
926.031	13963
926.138	13883
926.245	13940
926.352	13753
926.459	13970
926.566	13978
926.673	13769
926.779	13658
926.886	13693
926.993	13556
927.099	13537
927.206	13544
927.312	13476
927.419	13480
927.525	13510
927.631	13480
927.737	13335
927.843	13289
927.95	13244
928.056	13221
928.162	13304
928.267	13244
928.373	13947
928.479	13312
928.585	13168
928.69	13198
928.796	13362
928.901	13160
929.007	12962
929.112	13190
929.218	13091
929.323	12985
929.428	13012
929.533	13129
929.638	12928
929.743	12996
929.848	12970
929.953	12977
930.058	12776
930.163	12620
930.267	12654
930.372	12821
930.477	12623
930.581	12859
930.685	12696
930.79	12563
930.894	12563
930.998	12509
931.103	12696
931.207	12338
931.311	12235
931.415	12121
931.519	11866
931.623	11912
