Data from test_V78500241_2395.txt Node
Date: Fri Mar 25 15:58:23 CST 2022
User: usil
Spectrometer: V785-0024
Trigger mode: 0
Integration Time (sec): 4.000000E-1
Scans to average: 1
Nonlinearity correction enabled: false
Boxcar width: 0
Storing dark spectrum: false
XAxis mode: Wavelengths
Number of Pixels in Spectrum: 1024
>>>>>Begin Spectral Data<<<<<
801.071	28877
801.214	28607
801.356	28577
801.499	28421
801.641	28405
801.783	28265
801.926	28386
802.068	28443
802.211	28291
802.353	28185
802.496	28169
802.638	28234
802.78	27922
802.923	27987
803.065	27983
803.208	28017
803.35	28124
803.492	28280
803.635	28188
803.777	27968
803.919	28196
804.061	28542
804.204	28325
804.346	28196
804.488	28147
804.63	28257
804.773	28223
804.915	28421
805.057	28451
805.199	28211
805.341	28417
805.483	28432
805.626	28474
805.768	28363
805.91	28440
806.052	28428
806.194	28394
806.336	28474
806.478	28565
806.62	28535
806.762	28683
806.904	28702
807.046	28923
807.188	28934
807.33	28873
807.472	28869
807.614	28881
807.756	28900
807.898	28816
808.04	28790
808.182	28649
808.324	28843
808.465	28877
808.607	29071
808.749	29140
808.891	29280
809.033	29292
809.174	29216
809.316	29113
809.458	29094
809.6	29071
809.741	29212
809.883	29303
810.025	29429
810.166	29478
810.308	29448
810.45	29482
810.591	29292
810.733	29246
810.875	29151
811.016	29254
811.158	29003
811.299	29334
811.441	29326
811.582	29341
811.724	29159
811.865	29189
812.007	29064
812.148	29128
812.29	29216
812.431	29448
812.573	29592
812.714	29482
812.855	29592
812.997	29710
813.138	29965
813.279	29923
813.421	29699
813.562	29604
813.703	29391
813.845	29505
813.986	29162
814.127	29006
814.268	28698
814.41	28888
814.551	28946
814.692	28957
814.833	28961
814.974	28904
815.115	28885
815.256	28797
815.397	28782
815.539	28767
815.68	28736
815.821	28493
815.962	28733
816.103	28577
816.244	28497
816.385	28352
816.526	28546
816.666	28238
816.807	28207
816.948	28253
817.089	28394
817.23	28215
817.371	28105
817.512	28078
817.653	28234
817.793	28169
817.934	28261
818.075	28150
818.216	28272
818.356	28188
818.497	28234
818.638	27854
818.778	28021
818.919	27880
819.06	28082
819.2	28215
819.341	28211
819.481	28299
819.622	28390
819.762	28493
819.903	28645
820.043	28356
820.184	28485
820.324	28284
820.465	28337
820.605	28557
820.746	28337
820.886	28109
821.026	28322
821.167	28257
821.307	28242
821.447	28166
821.588	28158
821.728	27918
821.868	27876
822.008	27743
822.149	27660
822.289	27648
822.429	27477
822.569	27469
822.709	27515
822.849	27291
822.99	27226
823.13	27176
823.27	27116
823.41	26960
823.55	26872
823.69	27005
823.83	27074
823.97	27013
824.11	26716
824.25	26792
824.389	26891
824.529	27001
824.669	26781
824.809	26933
824.949	26914
825.089	27009
825.228	26823
825.368	26750
825.508	26640
825.648	26632
825.787	26636
825.927	26838
826.067	26758
826.206	26594
826.346	26777
826.485	26861
826.625	26716
826.765	26842
826.904	26796
827.044	26495
827.183	26583
827.323	26503
827.462	26461
827.601	26499
827.741	26396
827.88	26549
828.02	26339
828.159	26446
828.298	26434
828.437	26434
828.577	26442
828.716	26499
828.855	26275
828.994	26046
829.134	26263
829.273	26130
829.412	26157
829.551	25989
829.69	26256
829.829	26195
829.968	26210
830.107	26202
830.246	26164
830.385	25989
830.524	26043
830.663	25982
830.802	25769
830.941	25594
831.08	25776
831.219	25693
831.357	25780
831.496	25890
831.635	25681
831.774	25632
831.913	25624
832.051	25506
832.19	25487
832.329	25586
832.467	25445
832.606	25187
832.744	25255
832.883	25335
833.022	25354
833.16	25339
833.299	25468
833.437	25445
833.576	25453
833.714	25403
833.852	25369
833.991	25396
834.129	25518
834.267	25552
834.406	25422
834.544	25537
834.682	25434
834.821	25449
834.959	25567
835.097	25373
835.235	25601
835.373	25495
835.511	25426
835.65	25339
835.788	25362
835.926	25240
836.064	25091
836.202	25206
836.34	25297
836.478	25362
836.615	25282
836.753	25236
836.891	25282
837.029	25164
837.167	25171
837.305	25091
837.443	25156
837.58	25000
837.718	25171
837.856	24932
837.993	24989
838.131	25050
838.269	24939
838.406	25103
838.544	25004
838.681	24795
838.819	24730
838.956	24517
839.094	24521
839.231	24597
839.369	24757
839.506	24909
839.643	24760
839.781	24631
839.918	24494
840.055	24559
840.193	24505
840.33	24528
840.467	24456
840.604	24578
840.742	24844
840.879	24327
841.016	24422
841.153	24262
841.29	24688
841.427	24452
841.564	24540
841.701	24570
841.838	24429
841.975	24452
842.112	24243
842.249	24292
842.385	24197
842.522	24467
842.659	24224
842.796	24319
842.933	24342
843.069	24213
843.206	24239
843.343	24224
843.479	24258
843.616	24228
843.752	24079
843.889	24034
844.025	24098
844.162	24003
844.298	24076
844.435	23996
844.571	24022
844.708	24053
844.844	24098
844.98	24034
845.117	24079
845.253	23821
845.389	23954
845.525	23942
845.661	23843
845.798	23714
845.934	23824
846.07	23497
846.206	23775
846.342	23882
846.478	23771
846.614	23531
846.75	23478
846.886	23505
847.022	23707
847.158	23417
847.294	23474
847.429	23528
847.565	23379
847.701	23672
847.837	23242
847.972	23105
848.108	23189
848.244	23151
848.379	23010
848.515	23086
848.65	23033
848.786	23090
848.921	23064
849.057	23151
849.192	23212
849.328	23162
849.463	23056
849.598	22995
849.734	23022
849.869	22812
850.004	22820
850.14	22881
850.275	22866
850.41	22725
850.545	22748
850.68	22679
850.815	22809
850.95	22824
851.085	22987
851.22	22976
851.355	22892
851.49	22691
851.625	22889
851.76	22740
851.895	22645
852.03	22675
852.165	22748
852.299	22805
852.434	22911
852.569	22847
852.703	22755
852.838	22782
852.973	22987
853.107	22957
853.242	22850
853.376	22630
853.511	22542
853.645	22546
853.78	22759
853.914	22596
854.048	22554
854.183	22611
854.317	22641
854.451	22873
854.585	22713
854.72	22588
854.854	22660
854.988	22508
855.122	22653
855.256	22504
855.39	22622
855.524	22691
855.658	22607
855.792	22702
855.926	22641
856.06	22687
856.194	22645
856.327	22634
856.461	22557
856.595	22599
856.729	22637
856.862	22736
856.996	22801
857.13	22634
857.263	22717
857.397	22717
857.53	22653
857.664	22752
857.797	22683
857.931	22706
858.064	22573
858.197	22675
858.331	22561
858.464	22500
858.597	22428
858.731	22542
858.864	22615
858.997	22660
859.13	22596
859.263	22550
859.396	22660
859.529	22489
859.662	22561
859.795	22580
859.928	22603
860.061	22869
860.194	22820
860.327	22713
860.46	22668
860.592	22778
860.725	22767
860.858	22786
860.99	22519
861.123	22550
861.256	22702
861.388	22565
861.521	23258
861.653	22409
861.786	22512
861.918	22462
862.05	22470
862.183	22577
862.315	22615
862.447	22653
862.58	22588
862.712	22265
862.844	22329
862.976	22363
863.108	22466
863.24	22790
863.372	22337
863.504	22299
863.636	22265
863.768	22394
863.9	22325
864.032	22261
864.164	22333
864.296	22306
864.428	22428
864.559	22405
864.691	22462
864.823	22367
864.954	22325
865.086	22265
865.217	22284
865.349	22177
865.48	22185
865.612	22143
865.743	22329
865.875	22162
866.006	22147
866.137	22173
866.269	22055
866.4	22265
866.531	22112
866.662	22196
866.793	22150
866.924	22090
867.055	22055
867.186	22196
867.317	22120
867.448	22021
867.579	22105
867.71	21865
867.841	22109
867.972	22120
868.103	21979
868.233	22059
868.364	22162
868.495	22048
868.625	22325
868.756	22436
868.886	22402
869.017	22360
869.147	22424
869.278	22417
869.408	22417
869.539	22436
869.669	22504
869.799	22554
869.929	22470
870.06	22379
870.19	22603
870.32	22630
870.45	22786
870.58	22915
870.71	22873
870.84	22927
870.97	22615
871.1	22797
871.23	23010
871.36	22919
871.489	22801
871.619	22919
871.749	22934
871.879	22957
872.008	22953
872.138	22946
872.267	23052
872.397	23044
872.526	22900
872.656	22752
872.785	22778
872.915	22968
873.044	22965
873.173	23044
873.303	22965
873.432	23083
873.561	23132
873.69	22919
873.819	23037
873.948	23022
874.077	23067
874.206	22915
874.335	22968
874.464	23060
874.593	23242
874.722	23147
874.851	23155
874.979	23166
875.108	23239
875.237	23170
875.365	23136
875.494	23170
875.623	23197
875.751	23155
875.88	23159
876.008	23220
876.136	23284
876.265	23592
876.393	23714
876.521	23687
876.65	23737
876.778	23653
876.906	23687
877.034	23395
877.162	23566
877.29	23463
877.418	23562
877.546	23512
877.674	23551
877.802	23448
877.93	23486
878.058	23482
878.185	23398
878.313	23425
878.441	23505
878.568	23239
878.696	23341
878.824	23486
878.951	23562
879.079	23668
879.206	23756
879.333	23608
879.461	23543
879.588	23630
879.715	23703
879.842	23832
879.97	23676
880.097	23273
880.224	23322
880.351	23501
880.478	23292
880.605	23292
880.732	23170
880.859	23512
880.986	23303
881.112	23425
881.239	23246
881.366	23117
881.493	23064
881.619	22793
881.746	22961
881.872	22934
881.999	22900
882.125	22866
882.252	22972
882.378	22831
882.505	22995
882.631	22816
882.757	22573
882.883	22679
883.01	22622
883.136	22592
883.262	22478
883.388	22398
883.514	22550
883.64	22592
883.766	22466
883.892	22356
884.018	22341
884.143	22580
884.269	22348
884.395	22249
884.52	22166
884.646	22139
884.772	22188
884.897	22150
885.023	22211
885.148	22287
885.274	22379
885.399	22280
885.524	22215
885.65	22280
885.775	22223
885.9	22158
886.025	22284
886.15	22333
886.275	22238
886.4	22048
886.525	22169
886.65	22097
886.775	22173
886.9	22390
887.025	22432
887.149	22131
887.274	22010
887.399	21918
887.523	21930
887.648	21903
887.773	21857
887.897	22032
888.021	21991
888.146	21880
888.27	22044
888.395	22044
888.519	22010
888.643	22150
888.767	22105
888.891	21827
889.015	21751
889.139	21911
889.263	21701
889.387	21812
889.511	22002
889.635	21907
889.759	21797
889.883	21724
890.006	21755
890.13	21705
890.254	21629
890.377	21709
890.501	21511
890.624	21450
890.748	21420
890.871	21351
890.995	21180
891.118	21233
891.241	21416
891.364	21313
891.488	21336
891.611	21310
891.734	21359
891.857	21450
891.98	21291
892.103	21336
892.226	21310
892.349	21207
892.471	21165
892.594	21165
892.717	21195
892.839	21169
892.962	21272
893.085	21233
893.207	21131
893.33	21089
893.452	21096
893.575	21241
893.697	21062
893.819	21332
893.941	21256
894.064	21397
894.186	21142
894.308	21089
894.43	21264
894.552	21466
894.674	21233
894.796	21119
894.918	21123
895.04	21055
895.161	21279
895.283	21230
895.405	21058
895.526	21214
895.648	21161
895.769	21161
895.891	21161
896.012	21294
896.134	21127
896.255	21112
896.376	21165
896.498	21180
896.619	21211
896.74	21169
896.861	21374
896.982	21386
897.103	21629
897.224	21378
897.345	21321
897.466	21355
897.587	21310
897.708	21443
897.828	21458
897.949	21245
898.07	21256
898.19	21351
898.311	21397
898.431	21249
898.552	21332
898.672	21359
898.792	21412
898.913	21332
899.033	21226
899.153	21142
899.273	21157
899.393	21100
899.513	21112
899.633	21104
899.753	21195
899.873	20986
899.993	21062
900.113	21089
900.232	21070
900.352	20944
900.472	20918
900.591	20815
900.711	20876
900.83	20796
900.95	20986
901.069	20982
901.189	20697
901.308	20613
901.427	20389
901.546	20473
901.665	20454
901.784	20412
901.904	20233
902.023	20172
902.141	20073
902.26	19955
902.379	20031
902.498	19784
902.617	19940
902.735	19883
902.854	19978
902.973	19879
903.091	19655
903.21	19514
903.328	19506
903.446	19502
903.565	19362
903.683	19407
903.801	19316
903.919	19209
904.038	19373
904.156	19247
904.274	19247
904.392	19084
904.51	19080
904.627	19110
904.745	19099
904.863	19160
904.981	18871
905.098	18745
905.216	18848
905.334	18726
905.451	18821
905.569	18806
905.686	18829
905.803	18654
905.921	18555
906.038	18661
906.155	18521
906.272	18460
906.389	18555
906.506	18388
906.623	18445
906.74	18357
906.857	18197
906.974	18292
907.091	18376
907.208	18498
907.324	18388
907.441	18216
907.557	18072
907.674	17999
907.79	18038
907.907	17965
908.023	18194
908.139	18041
908.256	17942
908.372	17958
908.488	18007
908.604	17802
908.72	17726
908.836	17699
908.952	17634
909.068	17748
909.184	17840
909.3	17691
909.415	17786
909.531	17779
909.647	17535
909.762	17467
909.878	17425
909.993	17395
910.108	17486
910.224	17410
910.339	17436
910.454	17242
910.57	17296
910.685	17170
910.8	17448
910.915	17368
911.03	17208
911.145	16957
911.259	16980
911.374	16946
911.489	16850
911.604	16812
911.718	16820
911.833	16740
911.947	16744
912.062	16641
912.176	16748
912.291	16752
912.405	16736
912.519	16881
912.633	16984
912.748	16873
912.862	16691
912.976	16550
913.09	16497
913.204	16535
913.318	16573
913.431	16653
913.545	16618
913.659	16729
913.772	16558
913.886	16371
914	16360
914.113	16447
914.226	16398
914.34	16459
914.453	16409
914.566	16325
914.68	16230
914.793	16253
914.906	16044
915.019	15968
915.132	15945
915.245	15884
915.358	15998
915.47	15991
915.583	15945
915.696	15975
915.809	16112
915.921	16116
916.034	15823
916.146	15850
916.259	15797
916.371	16002
916.483	15842
916.595	15762
916.708	15759
916.82	15778
916.932	15762
917.044	15759
917.156	15728
917.268	15591
917.38	15743
917.491	15622
917.603	15496
917.715	15675
917.826	15606
917.938	15553
918.049	15386
918.161	15530
918.272	15774
918.384	15686
918.495	15538
918.606	15336
918.717	15279
918.828	15382
918.939	15332
919.05	15294
919.161	15287
919.272	15207
919.383	15161
919.494	15401
919.604	15481
919.715	15268
919.826	15199
919.936	15260
920.047	15332
920.157	15275
920.267	15416
920.378	15359
920.488	15214
920.598	15500
920.708	15485
920.818	15416
920.928	15367
921.038	15572
921.148	15553
921.258	15241
921.368	15097
921.477	15089
921.587	14979
921.697	14967
921.806	15001
921.916	14883
922.025	14743
922.134	14655
922.244	14670
922.353	14682
922.462	14503
922.571	14473
922.68	14271
922.789	14278
922.898	14305
923.007	14202
923.116	14332
923.224	14210
923.333	14256
923.442	14107
923.55	14126
923.659	14267
923.767	14172
923.876	13963
923.984	14138
924.092	13928
924.201	14046
924.309	13963
924.417	13944
924.525	13845
924.633	13944
924.741	14792
924.849	13753
924.956	13746
925.064	13750
925.172	13597
925.279	13708
925.387	13647
925.494	13647
925.602	13704
925.709	13727
925.816	13552
925.924	13601
926.031	13605
926.138	13578
926.245	13620
926.352	13430
926.459	13632
926.566	13575
926.673	13445
926.779	13381
926.886	13510
926.993	13236
927.099	13266
927.206	13171
927.312	13114
927.419	13190
927.525	13168
927.631	13244
927.737	13050
927.843	13019
927.95	12863
928.056	13031
928.162	13019
928.267	13008
928.373	13719
928.479	13065
928.585	12867
928.69	12973
928.796	12985
928.901	12776
929.007	12639
929.112	12852
929.218	12810
929.323	12802
929.428	12726
929.533	12776
929.638	12688
929.743	12635
929.848	12665
929.953	12696
930.058	12483
930.163	12391
930.267	12414
930.372	12563
930.477	12334
930.581	12544
930.685	12395
930.79	12220
930.894	12334
930.998	12235
931.103	12308
931.207	12019
931.311	11916
931.415	11863
931.519	11718
931.623	11627
