Data from test_V78500241_2249.txt Node
Date: Fri Mar 25 15:57:22 CST 2022
User: usil
Spectrometer: V785-0024
Trigger mode: 0
Integration Time (sec): 4.000000E-1
Scans to average: 1
Nonlinearity correction enabled: false
Boxcar width: 0
Storing dark spectrum: false
XAxis mode: Wavelengths
Number of Pixels in Spectrum: 1024
>>>>>Begin Spectral Data<<<<<
801.071	28934
801.214	28885
801.356	28858
801.499	28717
801.641	28519
801.783	28485
801.926	28649
802.068	28504
802.211	28489
802.353	28557
802.496	28284
802.638	28337
802.78	28265
802.923	28082
803.065	28032
803.208	28192
803.35	28280
803.492	28447
803.635	28405
803.777	28367
803.919	28527
804.061	28934
804.204	28535
804.346	28493
804.488	28656
804.63	28565
804.773	28421
804.915	28577
805.057	28687
805.199	28588
805.341	28569
805.483	28938
805.626	28668
805.768	28497
805.91	28656
806.052	28706
806.194	28736
806.336	28915
806.478	28786
806.62	28740
806.762	28987
806.904	28942
807.046	29121
807.188	29189
807.33	29060
807.472	29140
807.614	29181
807.756	29178
807.898	28923
808.04	28885
808.182	28896
808.324	28965
808.465	28987
808.607	29277
808.749	29444
808.891	29379
809.033	29524
809.174	29490
809.316	29280
809.458	29322
809.6	29379
809.741	29478
809.883	29436
810.025	29790
810.166	29596
810.308	29627
810.45	29649
810.591	29710
810.733	29570
810.875	29269
811.016	29379
811.158	29239
811.299	29463
811.441	29589
811.582	29551
811.724	29558
811.865	29181
812.007	29406
812.148	29383
812.29	29448
812.431	29551
812.573	29687
812.714	29752
812.855	30011
812.997	29961
813.138	30007
813.279	30159
813.421	29878
813.562	29946
813.703	29684
813.845	29691
813.986	29227
814.127	29102
814.268	29052
814.41	29162
814.551	29105
814.692	29189
814.833	29022
814.974	29212
815.115	29166
815.256	28927
815.397	28938
815.539	28965
815.68	28862
815.821	28877
815.962	28957
816.103	28896
816.244	28702
816.385	28679
816.526	28615
816.666	28504
816.807	28401
816.948	28550
817.089	28512
817.23	28382
817.371	28462
817.512	28436
817.653	28436
817.793	28265
817.934	28398
818.075	28474
818.216	28474
818.356	28257
818.497	28242
818.638	28169
818.778	28268
818.919	28337
819.06	28166
819.2	28314
819.341	28356
819.481	28310
819.622	28546
819.762	28656
819.903	28782
820.043	28683
820.184	28611
820.324	28542
820.465	28542
820.605	28653
820.746	28557
820.886	28432
821.026	28531
821.167	28519
821.307	28634
821.447	28462
821.588	28375
821.728	28268
821.868	28044
822.008	27960
822.149	28032
822.289	27987
822.429	27637
822.569	27466
822.709	27781
822.849	27454
822.99	27378
823.13	27412
823.27	27412
823.41	27241
823.55	27085
823.69	27150
823.83	27214
823.97	27135
824.11	27028
824.25	27028
824.389	26990
824.529	27214
824.669	27104
824.809	27344
824.949	27093
825.089	27169
825.228	27237
825.368	26929
825.508	26975
825.648	27028
825.787	26857
825.927	27085
826.067	26937
826.206	26899
826.346	26864
826.485	26967
826.625	26998
826.765	27104
826.904	27093
827.044	26697
827.183	26788
827.323	26765
827.462	26712
827.601	26644
827.741	26712
827.88	26583
828.02	26560
828.159	26571
828.298	26746
828.437	26731
828.577	26552
828.716	26746
828.855	26545
828.994	26305
829.134	26393
829.273	26453
829.412	26305
829.551	26351
829.69	26313
829.829	26438
829.968	26408
830.107	26484
830.246	26400
830.385	26408
830.524	26267
830.663	26157
830.802	26035
830.941	25875
831.08	25906
831.219	26008
831.357	26100
831.496	26084
831.635	25887
831.774	25852
831.913	25928
832.051	25715
832.19	25559
832.329	25700
832.467	25616
832.606	25472
832.744	25605
832.883	25575
833.022	25578
833.16	25655
833.299	25635
833.437	25639
833.576	25795
833.714	25647
833.852	25655
833.991	25803
834.129	25883
834.267	25769
834.406	25620
834.544	25761
834.682	25662
834.821	25753
834.959	25883
835.097	25597
835.235	25731
835.373	25731
835.511	25601
835.65	25556
835.788	25590
835.926	25392
836.064	25358
836.202	25251
836.34	25453
836.478	25609
836.615	25544
836.753	25396
836.891	25696
837.029	25499
837.167	25247
837.305	25362
837.443	25362
837.58	25308
837.718	25350
837.856	25354
837.993	25373
838.131	25506
838.269	25228
838.406	25190
838.544	25084
838.681	25038
838.819	24901
838.956	24798
839.094	24844
839.231	24958
839.369	24901
839.506	25213
839.643	25008
839.781	24776
839.918	24802
840.055	24760
840.193	24738
840.33	24783
840.467	24681
840.604	24627
840.742	24920
840.879	24711
841.016	24585
841.153	24677
841.29	24768
841.427	24722
841.564	24623
841.701	24681
841.838	24726
841.975	24616
842.112	24612
842.249	24452
842.385	24490
842.522	24745
842.659	24525
842.796	24486
842.933	24460
843.069	24445
843.206	24448
843.343	24517
843.479	24391
843.616	24414
843.752	24087
843.889	24209
844.025	24437
844.162	24220
844.298	24289
844.435	24289
844.571	24178
844.708	24399
844.844	24334
844.98	24403
845.117	24380
845.253	24030
845.389	24106
845.525	24117
845.661	24034
845.798	23961
845.934	23882
846.07	23965
846.206	23950
846.342	24038
846.478	23939
846.614	23722
846.75	23672
846.886	23634
847.022	23710
847.158	23790
847.294	23703
847.429	23604
847.565	23638
847.701	23950
847.837	23265
847.972	23349
848.108	23562
848.244	23410
848.379	23330
848.515	23280
848.65	23220
848.786	23185
848.921	23159
849.057	23376
849.192	23322
849.328	23326
849.463	23277
849.598	23178
849.734	23250
849.869	23048
850.004	23121
850.14	22987
850.275	22938
850.41	22953
850.545	23014
850.68	23140
850.815	22984
850.95	22942
851.085	23132
851.22	23216
851.355	23090
851.49	23006
851.625	23044
851.76	23006
851.895	22961
852.03	22854
852.165	23041
852.299	23010
852.434	23094
852.569	23018
852.703	23083
852.838	23086
852.973	23200
853.107	23155
853.242	22953
853.376	22949
853.511	22668
853.645	22816
853.78	22968
853.914	22767
854.048	22843
854.183	22778
854.317	22923
854.451	23132
854.585	22748
854.72	22831
854.854	22987
854.988	22778
855.122	22934
855.256	22706
855.39	22889
855.524	22980
855.658	22934
855.792	22755
855.926	22721
856.06	22839
856.194	22824
856.327	22862
856.461	22717
856.595	22733
856.729	22759
856.862	22816
856.996	22968
857.13	22919
857.263	22984
857.397	22938
857.53	22904
857.664	22816
857.797	22915
857.931	22854
858.064	22949
858.197	22949
858.331	22831
858.464	22881
858.597	22607
858.731	22847
858.864	22687
858.997	22679
859.13	22748
859.263	22767
859.396	23048
859.529	22736
859.662	22778
859.795	22710
859.928	22869
860.061	23098
860.194	23071
860.327	22839
860.46	22858
860.592	22961
860.725	22987
860.858	22828
860.99	22778
861.123	22816
861.256	22672
861.388	22816
861.521	23414
861.653	22717
861.786	22596
861.918	22675
862.05	22755
862.183	22740
862.315	22786
862.447	22816
862.58	22763
862.712	22622
862.844	22489
862.976	22645
863.108	22603
863.24	23056
863.372	22508
863.504	22523
863.636	22573
863.768	22637
863.9	22554
864.032	22428
864.164	22516
864.296	22569
864.428	22611
864.559	22573
864.691	22542
864.823	22603
864.954	22622
865.086	22504
865.217	22443
865.349	22352
865.48	22474
865.612	22443
865.743	22500
865.875	22394
866.006	22455
866.137	22421
866.269	22341
866.4	22386
866.531	22325
866.662	22310
866.793	22417
866.924	22356
867.055	22379
867.186	22390
867.317	22341
867.448	22261
867.579	22246
867.71	22318
867.841	22196
867.972	22287
868.103	22238
868.233	22382
868.364	22344
868.495	22443
868.625	22447
868.756	22577
868.886	22512
869.017	22523
869.147	22672
869.278	22622
869.408	22615
869.539	22592
869.669	22641
869.799	22596
869.929	22645
870.06	22649
870.19	22915
870.32	22793
870.45	22801
870.58	22957
870.71	23098
870.84	23113
870.97	22976
871.1	22904
871.23	23094
871.36	23235
871.489	23075
871.619	23010
871.749	23075
871.879	23208
872.008	23128
872.138	23273
872.267	23064
872.397	23113
872.526	23056
872.656	23010
872.785	22991
872.915	23208
873.044	23231
873.173	23155
873.303	23193
873.432	23231
873.561	23239
873.69	23181
873.819	23242
873.948	23250
874.077	23178
874.206	23185
874.335	23227
874.464	23303
874.593	23395
874.722	23379
874.851	23330
874.979	23448
875.108	23486
875.237	23296
875.365	23299
875.494	23410
875.623	23341
875.751	23334
875.88	23391
876.008	23497
876.136	23558
876.265	23756
876.393	23889
876.521	23939
876.65	23851
876.778	23726
876.906	23638
877.034	23786
877.162	23710
877.29	23573
877.418	23699
877.546	23691
877.674	23642
877.802	23638
877.93	23805
878.058	23756
878.185	23615
878.313	23729
878.441	23703
878.568	23558
878.696	23649
878.824	23813
878.951	23855
879.079	23923
879.206	23942
879.333	23992
879.461	23646
879.588	23870
879.715	23942
879.842	23980
879.97	23832
880.097	23490
880.224	23505
880.351	23562
880.478	23455
880.605	23459
880.732	23425
880.859	23726
880.986	23414
881.112	23592
881.239	23379
881.366	23410
881.493	23166
881.619	23113
881.746	23098
881.872	23071
881.999	23064
882.125	23029
882.252	23102
882.378	22984
882.505	23098
882.631	22774
882.757	22843
882.883	22778
883.01	22866
883.136	22691
883.262	22653
883.388	22542
883.514	22831
883.64	22752
883.766	22645
883.892	22531
884.018	22607
884.143	22675
884.269	22660
884.395	22443
884.52	22474
884.646	22455
884.772	22371
884.897	22337
885.023	22500
885.148	22542
885.274	22599
885.399	22447
885.524	22371
885.65	22462
885.775	22516
885.9	22295
886.025	22398
886.15	22394
886.275	22382
886.4	22356
886.525	22322
886.65	22375
886.775	22322
886.9	22462
887.025	22565
887.149	22310
887.274	22257
887.399	22059
887.523	22147
887.648	22021
887.773	21994
887.897	22226
888.021	22200
888.146	21949
888.27	22169
888.395	22234
888.519	22139
888.643	22192
888.767	22230
888.891	22135
889.015	22093
889.139	21972
889.263	21937
889.387	22044
889.511	21987
889.635	21972
889.759	21926
889.883	21907
890.006	21827
890.13	21922
890.254	21888
890.377	21915
890.501	21759
890.624	21671
890.748	21751
890.871	21481
890.995	21450
891.118	21355
891.241	21481
891.364	21504
891.488	21496
891.611	21477
891.734	21477
891.857	21488
891.98	21393
892.103	21526
892.226	21389
892.349	21462
892.471	21344
892.594	21492
892.717	21386
892.839	21412
892.962	21431
893.085	21466
893.207	21329
893.33	21279
893.452	21317
893.575	21401
893.697	21367
893.819	21412
893.941	21534
894.064	21507
894.186	21321
894.308	21195
894.43	21382
894.552	21458
894.674	21272
894.796	21378
894.918	21310
895.04	21233
895.161	21473
895.283	21283
895.405	21310
895.526	21294
895.648	21340
895.769	21382
895.891	21431
896.012	21405
896.134	21359
896.255	21355
896.376	21214
896.498	21256
896.619	21378
896.74	21329
896.861	21458
896.982	21610
897.103	21778
897.224	21618
897.345	21538
897.466	21450
897.587	21363
897.708	21542
897.828	21595
897.949	21485
898.07	21397
898.19	21473
898.311	21633
898.431	21454
898.552	21523
898.672	21500
898.792	21488
898.913	21557
899.033	21462
899.153	21367
899.273	21252
899.393	21161
899.513	21268
899.633	21302
899.753	21287
899.873	21241
899.993	21268
900.113	21161
900.232	21245
900.352	21089
900.472	21070
900.591	21032
900.711	21047
900.83	21112
900.95	21077
901.069	21150
901.189	20975
901.308	20659
901.427	20400
901.546	20499
901.665	20682
901.784	20590
901.904	20606
902.023	20377
902.141	20115
902.26	20008
902.379	20111
902.498	20081
902.617	19967
902.735	20096
902.854	19951
902.973	20027
903.091	19833
903.21	19788
903.328	19693
903.446	19681
903.565	19571
903.683	19590
903.801	19472
903.919	19457
904.038	19529
904.156	19228
904.274	19369
904.392	19202
904.51	19202
904.627	19187
904.745	19297
904.863	19460
904.981	19118
905.098	19053
905.216	19000
905.334	19050
905.451	19076
905.569	18760
905.686	18958
905.803	18920
905.921	18722
906.038	18814
906.155	18684
906.272	18612
906.389	18589
906.506	18426
906.623	18502
906.74	18441
906.857	18452
906.974	18311
907.091	18559
907.208	18654
907.324	18517
907.441	18277
907.557	18266
907.674	18182
907.79	18133
907.907	18076
908.023	18178
908.139	18247
908.256	18194
908.372	18053
908.488	18049
908.604	17798
908.72	17882
908.836	17859
908.952	17737
909.068	17973
909.184	18019
909.3	17771
909.415	18068
909.531	17946
909.647	17642
909.762	17611
909.878	17649
909.993	17497
910.108	17596
910.224	17581
910.339	17448
910.454	17368
910.57	17379
910.685	17334
910.8	17604
910.915	17471
911.03	17429
911.145	17220
911.259	17174
911.374	17151
911.489	17060
911.604	17079
911.718	16927
911.833	16869
911.947	16835
912.062	16752
912.176	16976
912.291	16946
912.405	16869
912.519	17067
912.633	17121
912.748	16900
912.862	16904
912.976	16873
913.09	16523
913.204	16637
913.318	16721
913.431	16824
913.545	16694
913.659	16778
913.772	16740
913.886	16561
914	16489
914.113	16615
914.226	16672
914.34	16538
914.453	16409
914.566	16546
914.68	16329
914.793	16303
914.906	16223
915.019	16036
915.132	15983
915.245	16063
915.358	16116
915.47	16040
915.583	16067
915.696	16059
915.809	16169
915.921	16272
916.034	16036
916.146	16025
916.259	15975
916.371	16021
916.483	15983
916.595	15907
916.708	15899
916.82	15953
916.932	15842
917.044	15899
917.156	15804
917.268	15671
917.38	15644
917.491	15652
917.603	15599
917.715	15751
917.826	15842
917.938	15576
918.049	15500
918.161	15553
918.272	15816
918.384	15671
918.495	15584
918.606	15450
918.717	15405
918.828	15519
918.939	15488
919.05	15298
919.161	15378
919.272	15207
919.383	15317
919.494	15416
919.604	15511
919.715	15397
919.826	15329
919.936	15355
920.047	15420
920.157	15420
920.267	15561
920.378	15416
920.488	15275
920.598	15496
920.708	15561
920.818	15496
920.928	15523
921.038	15682
921.148	15625
921.258	15348
921.368	15245
921.477	15169
921.587	15070
921.697	14921
921.806	15017
921.916	14979
922.025	14811
922.134	14724
922.244	14686
922.353	14792
922.462	14629
922.571	14522
922.68	14412
922.789	14320
922.898	14408
923.007	14301
923.116	14450
923.224	14385
923.333	14267
923.442	14256
923.55	14153
923.659	14233
923.767	14237
923.876	14111
923.984	14195
924.092	14005
924.201	14191
924.309	14134
924.417	14107
924.525	13967
924.633	14016
924.741	14845
924.849	13799
924.956	13967
925.064	13807
925.172	13712
925.279	13712
925.387	13696
925.494	13677
925.602	13925
925.709	13704
925.816	13548
925.924	13715
926.031	13772
926.138	13586
926.245	13719
926.352	13605
926.459	13700
926.566	13575
926.673	13548
926.779	13457
926.886	13502
926.993	13331
927.099	13301
927.206	13263
927.312	13240
927.419	13358
927.525	13266
927.631	13225
927.737	13129
927.843	13076
927.95	12947
928.056	13091
928.162	13107
928.267	13103
928.373	13647
928.479	13050
928.585	12939
928.69	13004
928.796	13099
928.901	12973
929.007	12795
929.112	12962
929.218	12901
929.323	12844
929.428	12791
929.533	12878
929.638	12757
929.743	12741
929.848	12829
929.953	12738
930.058	12540
930.163	12414
930.267	12479
930.372	12578
930.477	12441
930.581	12589
930.685	12502
930.79	12391
930.894	12399
930.998	12289
931.103	12410
931.207	12064
931.311	12026
931.415	11946
931.519	11703
931.623	11707
