Data from test_V78500241_2507.txt Node
Date: Fri Mar 25 15:59:10 CST 2022
User: usil
Spectrometer: V785-0024
Trigger mode: 0
Integration Time (sec): 4.000000E-1
Scans to average: 1
Nonlinearity correction enabled: false
Boxcar width: 0
Storing dark spectrum: false
XAxis mode: Wavelengths
Number of Pixels in Spectrum: 1024
>>>>>Begin Spectral Data<<<<<
801.071	28519
801.214	28603
801.356	28459
801.499	28348
801.641	28428
801.783	28166
801.926	28276
802.068	28200
802.211	28265
802.353	28200
802.496	27945
802.638	28006
802.78	28002
802.923	27800
803.065	27835
803.208	27907
803.35	27857
803.492	28120
803.635	28181
803.777	28040
803.919	28230
804.061	28409
804.204	28265
804.346	28128
804.488	27937
804.63	28207
804.773	28124
804.915	28234
805.057	28253
805.199	28093
805.341	28219
805.483	28272
805.626	28261
805.768	28306
805.91	28341
806.052	28249
806.194	28284
806.336	28485
806.478	28139
806.62	28306
806.762	28432
806.904	28569
807.046	28790
807.188	28786
807.33	28771
807.472	28782
807.614	28725
807.756	28801
807.898	28618
808.04	28580
808.182	28615
808.324	28649
808.465	28516
808.607	28923
808.749	28930
808.891	29090
809.033	29170
809.174	29094
809.316	29018
809.458	29098
809.6	28892
809.741	29178
809.883	29117
810.025	29242
810.166	29372
810.308	29322
810.45	29185
810.591	29200
810.733	29025
810.875	29048
811.016	28976
811.158	28881
811.299	28999
811.441	29178
811.582	29090
811.724	29044
811.865	29010
812.007	28900
812.148	29044
812.29	29075
812.431	29162
812.573	29379
812.714	29315
812.855	29505
812.997	29638
813.138	29756
813.279	29691
813.421	29512
813.562	29444
813.703	29330
813.845	29197
813.986	28987
814.127	28858
814.268	28733
814.41	28843
814.551	28759
814.692	28801
814.833	28577
814.974	28618
815.115	28580
815.256	28672
815.397	28599
815.539	28649
815.68	28573
815.821	28599
815.962	28447
816.103	28672
816.244	28462
816.385	28424
816.526	28390
816.666	28044
816.807	27987
816.948	27934
817.089	28158
817.23	27964
817.371	28162
817.512	28116
817.653	27987
817.793	28025
817.934	27987
818.075	28006
818.216	27968
818.356	27865
818.497	27857
818.638	27797
818.778	27694
818.919	27876
819.06	27903
819.2	27884
819.341	28131
819.481	28025
819.622	28185
819.762	28565
819.903	28272
820.043	28253
820.184	28177
820.324	28048
820.465	28223
820.605	28124
820.746	28173
820.886	27918
821.026	28051
821.167	28120
821.307	28128
821.447	28013
821.588	27979
821.728	27903
821.868	27660
822.008	27466
822.149	27408
822.289	27682
822.429	27275
822.569	27131
822.709	27195
822.849	27036
822.99	27055
823.13	27112
823.27	26982
823.41	26902
823.55	26727
823.69	26792
823.83	26655
823.97	26746
824.11	26613
824.25	26560
824.389	26590
824.529	26735
824.669	26651
824.809	26842
824.949	26758
825.089	26762
825.228	26727
825.368	26514
825.508	26537
825.648	26457
825.787	26602
825.927	26606
826.067	26473
826.206	26564
826.346	26678
826.485	26629
826.625	26412
826.765	26583
826.904	26480
827.044	26275
827.183	26298
827.323	26221
827.462	26298
827.601	26240
827.741	26115
827.88	26214
828.02	26221
828.159	26164
828.298	26195
828.437	26355
828.577	26062
828.716	26290
828.855	26191
828.994	25982
829.134	25860
829.273	25898
829.412	26001
829.551	25852
829.69	25944
829.829	26035
829.968	26069
830.107	25982
830.246	25959
830.385	25887
830.524	25738
830.663	25814
830.802	25651
830.941	25620
831.08	25457
831.219	25655
831.357	25666
831.496	25753
831.635	25582
831.774	25529
831.913	25445
832.051	25297
832.19	25259
832.329	25278
832.467	25206
832.606	25183
832.744	25244
832.883	25274
833.022	25103
833.16	25202
833.299	25225
833.437	25266
833.576	25228
833.714	25194
833.852	25255
833.991	25388
834.129	25403
834.267	25320
834.406	25247
834.544	25373
834.682	25301
834.821	25312
834.959	25556
835.097	25084
835.235	25407
835.373	25403
835.511	25225
835.65	25190
835.788	25187
835.926	24973
836.064	25046
836.202	24795
836.34	25095
836.478	25057
836.615	25080
836.753	25069
836.891	25304
837.029	25027
837.167	24905
837.305	24947
837.443	24973
837.58	25019
837.718	24856
837.856	24920
837.993	24856
838.131	24928
838.269	24730
838.406	24928
838.544	24757
838.681	24582
838.819	24616
838.956	24365
839.094	24365
839.231	24509
839.369	24498
839.506	24776
839.643	24593
839.781	24315
839.918	24403
840.055	24372
840.193	24319
840.33	24251
840.467	24464
840.604	24338
840.742	24559
840.879	24235
841.016	24315
841.153	24243
841.29	24369
841.427	24338
841.564	24319
841.701	24289
841.838	24144
841.975	24079
842.112	24068
842.249	24064
842.385	24148
842.522	24308
842.659	24117
842.796	24106
842.933	24057
843.069	23847
843.206	24133
843.343	24133
843.479	23988
843.616	24068
843.752	23729
843.889	23687
844.025	23973
844.162	23783
844.298	23946
844.435	23836
844.571	23809
844.708	23893
844.844	23885
844.98	23992
845.117	23863
845.253	23764
845.389	23745
845.525	23733
845.661	23741
845.798	23592
845.934	23687
846.07	23585
846.206	23562
846.342	23707
846.478	23452
846.614	23341
846.75	23204
846.886	23429
847.022	23318
847.158	23299
847.294	23273
847.429	23353
847.565	23166
847.701	23608
847.837	23105
847.972	22957
848.108	23094
848.244	23048
848.379	22805
848.515	22824
848.65	22881
848.786	22938
848.921	22877
849.057	22961
849.192	22957
849.328	22854
849.463	22953
849.598	22839
849.734	22793
849.869	22889
850.004	22596
850.14	22694
850.275	22626
850.41	22607
850.545	22573
850.68	22634
850.815	22809
850.95	22694
851.085	22812
851.22	22675
851.355	22611
851.49	22523
851.625	22603
851.76	22618
851.895	22618
852.03	22561
852.165	22622
852.299	22698
852.434	22622
852.569	22706
852.703	22607
852.838	22759
852.973	22767
853.107	22630
853.242	22599
853.376	22424
853.511	22371
853.645	22478
853.78	22607
853.914	22478
854.048	22466
854.183	22436
854.317	22641
854.451	22740
854.585	22615
854.72	22523
854.854	22569
854.988	22424
855.122	22375
855.256	22295
855.39	22481
855.524	22573
855.658	22447
855.792	22310
855.926	22603
856.06	22538
856.194	22561
856.327	22424
856.461	22360
856.595	22512
856.729	22386
856.862	22531
856.996	22554
857.13	22485
857.263	22615
857.397	22481
857.53	22478
857.664	22474
857.797	22596
857.931	22599
858.064	22470
858.197	22557
858.331	22325
858.464	22481
858.597	22436
858.731	22276
858.864	22413
858.997	22443
859.13	22436
859.263	22493
859.396	22493
859.529	22588
859.662	22466
859.795	22333
859.928	22459
860.061	22588
860.194	22694
860.327	22611
860.46	22455
860.592	22653
860.725	22618
860.858	22500
860.99	22565
861.123	22478
861.256	22413
861.388	22390
861.521	23223
861.653	22249
861.786	22150
861.918	22402
862.05	22341
862.183	22379
862.315	22348
862.447	22485
862.58	22371
862.712	22211
862.844	22093
862.976	22318
863.108	22207
863.24	22470
863.372	22135
863.504	22158
863.636	22112
863.768	22116
863.9	22188
864.032	22002
864.164	22086
864.296	22116
864.428	22181
864.559	22158
864.691	22200
864.823	22177
864.954	22253
865.086	22204
865.217	22044
865.349	22036
865.48	22067
865.612	21968
865.743	22196
865.875	22200
866.006	22021
866.137	22036
866.269	22025
866.4	22101
866.531	21945
866.662	21922
866.793	22040
866.924	22040
867.055	21937
867.186	22055
867.317	21884
867.448	21892
867.579	21998
867.71	21766
867.841	21907
867.972	21926
868.103	21968
868.233	22051
868.364	22032
868.495	22131
868.625	22154
868.756	22322
868.886	22162
869.017	22105
869.147	22310
869.278	22382
869.408	22226
869.539	22150
869.669	22211
869.799	22310
869.929	22428
870.06	22306
870.19	22588
870.32	22375
870.45	22615
870.58	22542
870.71	22752
870.84	22637
870.97	22538
871.1	22660
871.23	22801
871.36	22896
871.489	22725
871.619	22767
871.749	22847
871.879	22847
872.008	22873
872.138	22809
872.267	22877
872.397	22736
872.526	22672
872.656	22607
872.785	22698
872.915	22797
873.044	22831
873.173	22896
873.303	22930
873.432	22873
873.561	22896
873.69	22797
873.819	22809
873.948	22915
874.077	22717
874.206	22801
874.335	22850
874.464	23109
874.593	22934
874.722	23044
874.851	23216
874.979	23075
875.108	23094
875.237	23071
875.365	22805
875.494	22908
875.623	23124
875.751	22976
875.88	23204
876.008	23189
876.136	23204
876.265	23433
876.393	23444
876.521	23531
876.65	23478
876.778	23402
876.906	23429
877.034	23478
877.162	23444
877.29	23197
877.418	23322
877.546	23273
877.674	23212
877.802	23406
877.93	23398
878.058	23246
878.185	23326
878.313	23379
878.441	23429
878.568	23197
878.696	23170
878.824	23452
878.951	23383
879.079	23634
879.206	23748
879.333	23554
879.461	23425
879.588	23463
879.715	23505
879.842	23649
879.97	23433
880.097	23083
880.224	23174
880.351	23231
880.478	23235
880.605	23147
880.732	23273
880.859	23417
880.986	23223
881.112	23296
881.239	23075
881.366	22885
881.493	22793
881.619	22752
881.746	22774
881.872	22706
881.999	22637
882.125	22622
882.252	22805
882.378	22721
882.505	22706
882.631	22717
882.757	22455
882.883	22504
883.01	22474
883.136	22394
883.262	22348
883.388	22238
883.514	22527
883.64	22451
883.766	22363
883.892	22150
884.018	22226
884.143	22303
884.269	22379
884.395	22017
884.52	21911
884.646	22101
884.772	22017
884.897	22013
885.023	22063
885.148	22109
885.274	22272
885.399	22101
885.524	22162
885.65	22010
885.775	22013
885.9	22097
886.025	22097
886.15	22135
886.275	22021
886.4	21983
886.525	22067
886.65	21907
886.775	21953
886.9	22097
887.025	22207
887.149	22044
887.274	21861
887.399	21869
887.523	21842
887.648	21759
887.773	21797
887.897	21762
888.021	21895
888.146	21751
888.27	21922
888.395	21915
888.519	21785
888.643	21842
888.767	21880
888.891	21732
889.015	21637
889.139	21561
889.263	21557
889.387	21747
889.511	21850
889.635	21694
889.759	21526
889.883	21629
890.006	21675
890.13	21709
890.254	21583
890.377	21424
890.501	21393
890.624	21439
890.748	21370
890.871	21161
890.995	21199
891.118	21199
891.241	21226
891.364	21131
891.488	21298
891.611	21218
891.734	21070
891.857	21249
891.98	21131
892.103	21260
892.226	21226
892.349	21085
892.471	20944
892.594	21146
892.717	21058
892.839	21024
892.962	21058
893.085	21127
893.207	21089
893.33	20899
893.452	20982
893.575	21085
893.697	21047
893.819	21188
893.941	21195
894.064	21199
894.186	20857
894.308	20994
894.43	21138
894.552	21161
894.674	21154
894.796	20906
894.918	21066
895.04	20948
895.161	21089
895.283	21066
895.405	21005
895.526	20952
895.648	20956
895.769	21112
895.891	21028
896.012	21104
896.134	21047
896.255	21028
896.376	20986
896.498	21005
896.619	21062
896.74	20998
896.861	21104
896.982	21351
897.103	21496
897.224	21237
897.345	21184
897.466	21203
897.587	21306
897.708	21416
897.828	21329
897.949	21192
898.07	21028
898.19	21165
898.311	21370
898.431	21135
898.552	21230
898.672	21272
898.792	21431
898.913	21264
899.033	21135
899.153	21036
899.273	20899
899.393	20967
899.513	21055
899.633	20921
899.753	20918
899.873	20819
899.993	21036
900.113	20853
900.232	20918
900.352	20823
900.472	20838
900.591	20746
900.711	20823
900.83	20663
900.95	20769
901.069	20853
901.189	20575
901.308	20400
901.427	20320
901.546	20309
901.665	20389
901.784	20298
901.904	20126
902.023	20126
902.141	19898
902.26	19883
902.379	20027
902.498	19681
902.617	19830
902.735	19909
902.854	19693
902.973	19586
903.091	19537
903.21	19548
903.328	19491
903.446	19415
903.565	19217
903.683	19293
903.801	19187
903.919	19145
904.038	19168
904.156	19027
904.274	19202
904.392	18966
904.51	19046
904.627	19088
904.745	19053
904.863	18966
904.981	18844
905.098	18650
905.216	18692
905.334	18810
905.451	18722
905.569	18623
905.686	18734
905.803	18707
905.921	18475
906.038	18597
906.155	18528
906.272	18498
906.389	18414
906.506	18205
906.623	18300
906.74	18190
906.857	18068
906.974	18194
907.091	18235
907.208	18330
907.324	18342
907.441	18087
907.557	17961
907.674	17950
907.79	17916
907.907	17969
908.023	17942
908.139	17916
908.256	17916
908.372	17847
908.488	17771
908.604	17634
908.72	17653
908.836	17665
908.952	17615
909.068	17695
909.184	17764
909.3	17547
909.415	17672
909.531	17577
909.647	17436
909.762	17356
909.878	17258
909.993	17349
910.108	17277
910.224	17273
910.339	17299
910.454	17216
910.57	17014
910.685	17143
910.8	17246
910.915	17296
911.03	17124
911.145	16938
911.259	16976
911.374	16904
911.489	16835
911.604	16782
911.718	16725
911.833	16691
911.947	16630
912.062	16550
912.176	16729
912.291	16713
912.405	16706
912.519	16877
912.633	16782
912.748	16755
912.862	16550
912.976	16455
913.09	16329
913.204	16455
913.318	16428
913.431	16550
913.545	16550
913.659	16519
913.772	16382
913.886	16398
914	16219
914.113	16329
914.226	16325
914.34	16306
914.453	16238
914.566	16333
914.68	16215
914.793	16067
914.906	15956
915.019	15873
915.132	15785
915.245	15800
915.358	15846
915.47	15846
915.583	15835
915.696	15838
915.809	15918
915.921	15880
916.034	15690
916.146	15743
916.259	15736
916.371	15812
916.483	15762
916.595	15698
916.708	15633
916.82	15610
916.932	15690
917.044	15584
917.156	15561
917.268	15424
917.38	15401
917.491	15424
917.603	15389
917.715	15572
917.826	15599
917.938	15405
918.049	15462
918.161	15424
918.272	15606
918.384	15485
918.495	15332
918.606	15237
918.717	15233
918.828	15264
918.939	15233
919.05	15077
919.161	15180
919.272	15013
919.383	14979
919.494	15081
919.604	15359
919.715	15321
919.826	15077
919.936	15150
920.047	15192
920.157	15233
920.267	15332
920.378	15146
920.488	15211
920.598	15344
920.708	15416
920.818	15291
920.928	15298
921.038	15473
921.148	15367
921.258	15142
921.368	15024
921.477	14963
921.587	14861
921.697	14861
921.806	14880
921.916	14849
922.025	14629
922.134	14564
922.244	14507
922.353	14667
922.462	14396
922.571	14362
922.68	14294
922.789	14168
922.898	14278
923.007	14229
923.116	14229
923.224	14202
923.333	14145
923.442	14062
923.55	13947
923.659	14077
923.767	14153
923.876	14020
923.984	14035
924.092	13963
924.201	13993
924.309	14020
924.417	13894
924.525	13860
924.633	13868
924.741	14693
924.849	13548
924.956	13742
925.064	13639
925.172	13518
925.279	13540
925.387	13708
925.494	13590
925.602	13803
925.709	13590
925.816	13480
925.924	13468
926.031	13616
926.138	13502
926.245	13571
926.352	13384
926.459	13533
926.566	13537
926.673	13320
926.779	13270
926.886	13289
926.993	13232
927.099	13107
927.206	12951
927.312	13046
927.419	13183
927.525	13072
927.631	13206
927.737	12985
927.843	12954
927.95	12890
928.056	12924
928.162	13031
928.267	13046
928.373	13575
928.479	12985
928.585	12684
928.69	12764
928.796	12859
928.901	12821
929.007	12509
929.112	12806
929.218	12662
929.323	12700
929.428	12635
929.533	12711
929.638	12532
929.743	12604
929.848	12627
929.953	12494
930.058	12437
930.163	12380
930.267	12357
930.372	12506
930.477	12323
930.581	12467
930.685	12353
930.79	12262
930.894	12289
930.998	12140
931.103	12292
931.207	11927
931.311	11836
931.415	11802
931.519	11543
931.623	11566
