Data from test_V78500241_1247.txt Node
Date: Fri Mar 25 15:50:26 CST 2022
User: usil
Spectrometer: V785-0024
Trigger mode: 0
Integration Time (sec): 4.000000E-1
Scans to average: 1
Nonlinearity correction enabled: false
Boxcar width: 0
Storing dark spectrum: false
XAxis mode: Wavelengths
Number of Pixels in Spectrum: 1024
>>>>>Begin Spectral Data<<<<<
801.071	28782
801.214	28675
801.356	28565
801.499	28455
801.641	28226
801.783	28314
801.926	28356
802.068	28181
802.211	28409
802.353	28268
802.496	27968
802.638	28086
802.78	28078
802.923	28021
803.065	27994
803.208	27903
803.35	28086
803.492	28025
803.635	28177
803.777	28238
803.919	28344
804.061	28500
804.204	28303
804.346	28204
804.488	28154
804.63	28226
804.773	28074
804.915	28356
805.057	28325
805.199	28207
805.341	28325
805.483	28504
805.626	28371
805.768	28322
805.91	28512
806.052	28497
806.194	28428
806.336	28660
806.478	28611
806.62	28489
806.762	28683
806.904	28637
807.046	28930
807.188	28835
807.33	28888
807.472	28968
807.614	28850
807.756	28809
807.898	28805
808.04	28725
808.182	28740
808.324	28805
808.465	28862
808.607	29006
808.749	29212
808.891	29193
809.033	29277
809.174	29356
809.316	29052
809.458	29075
809.6	29151
809.741	29284
809.883	29216
810.025	29334
810.166	29551
810.308	29482
810.45	29334
810.591	29368
810.733	29178
810.875	29083
811.016	29200
811.158	29064
811.299	29284
811.441	29326
811.582	29318
811.724	29227
811.865	29132
812.007	29121
812.148	29117
812.29	29166
812.431	29337
812.573	29604
812.714	29596
812.855	29699
812.997	29866
813.138	29977
813.279	29847
813.421	29729
813.562	29581
813.703	29493
813.845	29269
813.986	29064
814.127	29003
814.268	28949
814.41	28968
814.551	28930
814.692	28934
814.833	28866
814.974	28908
815.115	28828
815.256	28607
815.397	28809
815.539	28748
815.68	28656
815.821	28637
815.962	28687
816.103	28687
816.244	28577
816.385	28557
816.526	28519
816.666	28287
816.807	28139
816.948	28329
817.089	28375
817.23	28284
817.371	28112
817.512	28173
817.653	28169
817.793	28211
817.934	28166
818.075	28303
818.216	28204
818.356	28200
818.497	28082
818.638	27994
818.778	27865
818.919	28070
819.06	28051
819.2	28150
819.341	28158
819.481	28356
819.622	28379
819.762	28599
819.903	28413
820.043	28459
820.184	28299
820.324	28276
820.465	28367
820.605	28371
820.746	28417
820.886	28006
821.026	28284
821.167	28287
821.307	28341
821.447	28352
821.588	28120
821.728	27907
821.868	27835
822.008	27679
822.149	27720
822.289	27644
822.429	27294
822.569	27393
822.709	27321
822.849	27161
822.99	27108
823.13	27157
823.27	27245
823.41	27020
823.55	26826
823.69	27009
823.83	26960
823.97	27077
824.11	26929
824.25	26785
824.389	26762
824.529	26929
824.669	26883
824.809	26910
824.949	26899
825.089	26914
825.228	26921
825.368	26773
825.508	26864
825.648	26804
825.787	26701
825.927	26796
826.067	26670
826.206	26849
826.346	26834
826.485	26811
826.625	26838
826.765	26712
826.904	26750
827.044	26598
827.183	26556
827.323	26488
827.462	26400
827.601	26476
827.741	26434
827.88	26522
828.02	26362
828.159	26309
828.298	26412
828.437	26336
828.577	26434
828.716	26469
828.855	26313
828.994	26240
829.134	26119
829.273	26301
829.412	26084
829.551	26081
829.69	26103
829.829	26126
829.968	26172
830.107	26229
830.246	26130
830.385	26134
830.524	26016
830.663	25818
830.802	25875
830.941	25689
831.08	25693
831.219	25776
831.357	25765
831.496	26020
831.635	25643
831.774	25582
831.913	25647
832.051	25575
832.19	25533
832.329	25563
832.467	25415
832.606	25426
832.744	25392
832.883	25400
833.022	25354
833.16	25445
833.299	25422
833.437	25479
833.576	25449
833.714	25540
833.852	25559
833.991	25597
834.129	25635
834.267	25689
834.406	25529
834.544	25449
834.682	25453
834.821	25449
834.959	25624
835.097	25521
835.235	25403
835.373	25388
835.511	25369
835.65	25308
835.788	25304
835.926	25179
836.064	25095
836.202	25156
836.34	25400
836.478	25373
836.615	25194
836.753	25282
836.891	25381
837.029	25206
837.167	25232
837.305	25251
837.443	25187
837.58	25183
837.718	25202
837.856	25088
837.993	25099
838.131	25148
838.269	24996
838.406	25080
838.544	24935
838.681	24848
838.819	24692
838.956	24612
839.094	24604
839.231	24639
839.369	24848
839.506	24928
839.643	24848
839.781	24536
839.918	24540
840.055	24726
840.193	24471
840.33	24597
840.467	24521
840.604	24536
840.742	24779
840.879	24281
841.016	24380
841.153	24407
841.29	24654
841.427	24604
841.564	24517
841.701	24604
841.838	24578
841.975	24418
842.112	24429
842.249	24262
842.385	24186
842.522	24483
842.659	24388
842.796	24281
842.933	24258
843.069	24266
843.206	24228
843.343	24342
843.479	24232
843.616	24311
843.752	24034
843.889	24064
844.025	24098
844.162	23950
844.298	24159
844.435	23996
844.571	23939
844.708	24083
844.844	24209
844.98	24144
845.117	24064
845.253	23893
845.389	23927
845.525	23988
845.661	23767
845.798	23741
845.934	23745
846.07	23786
846.206	23931
846.342	23809
846.478	23638
846.614	23551
846.75	23444
846.886	23562
847.022	23493
847.158	23463
847.294	23463
847.429	23448
847.565	23490
847.701	23623
847.837	23193
847.972	23166
848.108	23341
848.244	23242
848.379	23025
848.515	23018
848.65	23090
848.786	23117
848.921	23086
849.057	23090
849.192	23079
849.328	23014
849.463	23124
849.598	22919
849.734	22812
849.869	22923
850.004	22946
850.14	22877
850.275	22889
850.41	22763
850.545	22778
850.68	22828
850.815	22877
850.95	22721
851.085	23003
851.22	22850
851.355	22809
851.49	22782
851.625	22736
851.76	22744
851.895	22816
852.03	22805
852.165	22706
852.299	22904
852.434	22885
852.569	22896
852.703	22858
852.838	22816
852.973	23060
853.107	22961
853.242	22831
853.376	22596
853.511	22462
853.645	22675
853.78	22721
853.914	22713
854.048	22569
854.183	22580
854.317	22577
854.451	22949
854.585	22672
854.72	22630
854.854	22771
854.988	22535
855.122	22694
855.256	22447
855.39	22592
855.524	22634
855.658	22653
855.792	22694
855.926	22706
856.06	22649
856.194	22713
856.327	22580
856.461	22561
856.595	22519
856.729	22740
856.862	22831
856.996	22626
857.13	22740
857.263	22866
857.397	22721
857.53	22535
857.664	22713
857.797	22656
857.931	22706
858.064	22717
858.197	22725
858.331	22634
858.464	22527
858.597	22474
858.731	22622
858.864	22626
858.997	22618
859.13	22687
859.263	22596
859.396	22698
859.529	22641
859.662	22550
859.795	22660
859.928	22596
860.061	22706
860.194	22786
860.327	22626
860.46	22790
860.592	22816
860.725	22774
860.858	22630
860.99	22664
861.123	22603
861.256	22462
861.388	22512
861.521	23337
861.653	22436
861.786	22466
861.918	22470
862.05	22382
862.183	22645
862.315	22504
862.447	22489
862.58	22611
862.712	22352
862.844	22261
862.976	22265
863.108	22386
863.24	22710
863.372	22223
863.504	22219
863.636	22295
863.768	22303
863.9	22272
864.032	22303
864.164	22318
864.296	22329
864.428	22402
864.559	22402
864.691	22436
864.823	22291
864.954	22367
865.086	22249
865.217	22310
865.349	22135
865.48	22154
865.612	22150
865.743	22379
865.875	22070
866.006	22223
866.137	22246
866.269	22154
866.4	22242
866.531	22200
866.662	22059
866.793	22166
866.924	22268
867.055	22093
867.186	22162
867.317	22112
867.448	22234
867.579	22131
867.71	22044
867.841	22048
867.972	22181
868.103	22097
868.233	22093
868.364	22169
868.495	22284
868.625	22211
868.756	22455
868.886	22310
869.017	22417
869.147	22447
869.278	22436
869.408	22424
869.539	22306
869.669	22550
869.799	22356
869.929	22599
870.06	22462
870.19	22710
870.32	22721
870.45	22664
870.58	22767
870.71	22831
870.84	22839
870.97	22710
871.1	22645
871.23	22946
871.36	22862
871.489	22843
871.619	22923
871.749	22828
871.879	22968
872.008	23029
872.138	22984
872.267	22904
872.397	22839
872.526	22763
872.656	22839
872.785	22774
872.915	22892
873.044	23067
873.173	23064
873.303	22999
873.432	23037
873.561	23056
873.69	23014
873.819	22984
873.948	23079
874.077	22999
874.206	22995
874.335	22987
874.464	23105
874.593	23277
874.722	23143
874.851	23174
874.979	23121
875.108	23204
875.237	23208
875.365	23178
875.494	23140
875.623	23200
875.751	23121
875.88	23242
876.008	23277
876.136	23410
876.265	23627
876.393	23695
876.521	23581
876.65	23714
876.778	23573
876.906	23531
877.034	23501
877.162	23379
877.29	23459
877.418	23455
877.546	23493
877.674	23490
877.802	23657
877.93	23379
878.058	23573
878.185	23429
878.313	23444
878.441	23486
878.568	23307
878.696	23406
878.824	23554
878.951	23638
879.079	23710
879.206	23802
879.333	23687
879.461	23429
879.588	23573
879.715	23585
879.842	23695
879.97	23589
880.097	23410
880.224	23452
880.351	23376
880.478	23512
880.605	23414
880.732	23372
880.859	23642
880.986	23337
881.112	23410
881.239	23204
881.366	23090
881.493	23025
881.619	23022
881.746	22896
881.872	22885
881.999	22942
882.125	22763
882.252	22930
882.378	22843
882.505	23010
882.631	22896
882.757	22744
882.883	22683
883.01	22592
883.136	22592
883.262	22485
883.388	22554
883.514	22611
883.64	22630
883.766	22474
883.892	22413
884.018	22443
884.143	22565
884.269	22538
884.395	22386
884.52	22253
884.646	22276
884.772	22166
884.897	22074
885.023	22280
885.148	22242
885.274	22386
885.399	22325
885.524	22253
885.65	22348
885.775	22379
885.9	22188
886.025	22386
886.15	22390
886.275	22154
886.4	22067
886.525	22238
886.65	22150
886.775	22143
886.9	22356
887.025	22462
887.149	22139
887.274	22063
887.399	21956
887.523	22036
887.648	21945
887.773	21945
887.897	22048
888.021	22021
888.146	21873
888.27	22044
888.395	22116
888.519	21987
888.643	21888
888.767	22021
888.891	21911
889.015	21762
889.139	21800
889.263	21835
889.387	21800
889.511	21987
889.635	21873
889.759	21698
889.883	21873
890.006	21785
890.13	21842
890.254	21682
890.377	21755
890.501	21443
890.624	21553
890.748	21583
890.871	21447
890.995	21298
891.118	21310
891.241	21443
891.364	21351
891.488	21458
891.611	21317
891.734	21291
891.857	21367
891.98	21332
892.103	21363
892.226	21401
892.349	21260
892.471	21085
892.594	21188
892.717	21264
892.839	21222
892.962	21294
893.085	21192
893.207	21176
893.33	21150
893.452	21028
893.575	21302
893.697	21283
893.819	21412
893.941	21355
894.064	21439
894.186	21100
894.308	21135
894.43	21260
894.552	21176
894.674	21325
894.796	21127
894.918	21119
895.04	21096
895.161	21199
895.283	21214
895.405	21100
895.526	21207
895.648	21180
895.769	21230
895.891	21195
896.012	21291
896.134	21154
896.255	21233
896.376	21116
896.498	21222
896.619	21287
896.74	21218
896.861	21233
896.982	21515
897.103	21587
897.224	21374
897.345	21325
897.466	21173
897.587	21424
897.708	21462
897.828	21507
897.949	21325
898.07	21260
898.19	21344
898.311	21462
898.431	21344
898.552	21393
898.672	21363
898.792	21447
898.913	21344
899.033	21157
899.153	21214
899.273	21135
899.393	21093
899.513	21214
899.633	21127
899.753	21074
899.873	21020
899.993	21150
900.113	20990
900.232	21062
900.352	21085
900.472	21051
900.591	20883
900.711	20853
900.83	20861
900.95	20982
901.069	20982
901.189	20705
901.308	20545
901.427	20511
901.546	20492
901.665	20484
901.784	20457
901.904	20317
902.023	20229
902.141	19993
902.26	19959
902.379	20088
902.498	19947
902.617	19947
902.735	20005
902.854	19894
902.973	19746
903.091	19639
903.21	19586
903.328	19677
903.446	19506
903.565	19327
903.683	19400
903.801	19282
903.919	19388
904.038	19422
904.156	19217
904.274	19320
904.392	19080
904.51	19270
904.627	19213
904.745	19187
904.863	19175
904.981	18954
905.098	18829
905.216	18837
905.334	19000
905.451	18791
905.569	18821
905.686	18856
905.803	18776
905.921	18509
906.038	18779
906.155	18661
906.272	18513
906.389	18445
906.506	18304
906.623	18384
906.74	18281
906.857	18216
906.974	18186
907.091	18456
907.208	18399
907.324	18327
907.441	18213
907.557	18106
907.674	18087
907.79	18015
907.907	18030
908.023	18110
908.139	18117
908.256	18072
908.372	17931
908.488	17935
908.604	17920
908.72	17752
908.836	17859
908.952	17741
909.068	17764
909.184	17950
909.3	17821
909.415	17733
909.531	17748
909.647	17520
909.762	17493
909.878	17509
909.993	17509
910.108	17406
910.224	17395
910.339	17414
910.454	17421
910.57	17307
910.685	17223
910.8	17512
910.915	17398
911.03	17284
911.145	17045
911.259	16968
911.374	17098
911.489	16946
911.604	16976
911.718	16755
911.833	16740
911.947	16767
912.062	16649
912.176	16752
912.291	16835
912.405	16790
912.519	16999
912.633	16980
912.748	16812
912.862	16759
912.976	16592
913.09	16481
913.204	16596
913.318	16615
913.431	16626
913.545	16554
913.659	16660
913.772	16592
913.886	16382
914	16375
914.113	16462
914.226	16409
914.34	16459
914.453	16234
914.566	16375
914.68	16303
914.793	16204
914.906	16082
915.019	15857
915.132	16002
915.245	15956
915.358	16025
915.47	15861
915.583	15987
915.696	15983
915.809	16059
915.921	16109
916.034	15915
916.146	15819
916.259	15774
916.371	15907
916.483	15819
916.595	15743
916.708	15751
916.82	15785
916.932	15667
917.044	15743
917.156	15629
917.268	15648
917.38	15564
917.491	15622
917.603	15538
917.715	15587
917.826	15667
917.938	15530
918.049	15454
918.161	15431
918.272	15660
918.384	15614
918.495	15466
918.606	15424
918.717	15249
918.828	15317
918.939	15401
919.05	15260
919.161	15382
919.272	15116
919.383	15127
919.494	15302
919.604	15428
919.715	15321
919.826	15184
919.936	15237
920.047	15397
920.157	15279
920.267	15408
920.378	15241
920.488	15230
920.598	15515
920.708	15591
920.818	15382
920.928	15401
921.038	15549
921.148	15424
921.258	15203
921.368	15203
921.477	15036
921.587	14967
921.697	14876
921.806	14891
921.916	14842
922.025	14720
922.134	14731
922.244	14568
922.353	14636
922.462	14564
922.571	14317
922.68	14214
922.789	14252
922.898	14282
923.007	14180
923.116	14294
923.224	14210
923.333	14187
923.442	14202
923.55	14153
923.659	14183
923.767	14164
923.876	13982
923.984	14073
924.092	13928
924.201	14020
924.309	14035
924.417	13997
924.525	13898
924.633	13947
924.741	14830
924.849	13715
924.956	13822
925.064	13734
925.172	13533
925.279	13609
925.387	13590
925.494	13662
925.602	13753
925.709	13636
925.816	13594
925.924	13525
926.031	13666
926.138	13567
926.245	13616
926.352	13499
926.459	13552
926.566	13628
926.673	13544
926.779	13369
926.886	13346
926.993	13274
927.099	13289
927.206	13088
927.312	13069
927.419	13206
927.525	13175
927.631	13293
927.737	13057
927.843	13053
927.95	12935
928.056	12958
928.162	12977
928.267	13118
928.373	13658
928.479	13080
928.585	12901
928.69	12916
928.796	12935
928.901	12852
929.007	12730
929.112	12795
929.218	12795
929.323	12707
929.428	12696
929.533	12726
929.638	12597
929.743	12620
929.848	12703
929.953	12669
930.058	12486
930.163	12407
930.267	12338
930.372	12494
930.477	12281
930.581	12471
930.685	12467
930.79	12186
930.894	12201
930.998	12251
931.103	12353
931.207	12007
931.311	11927
931.415	11756
931.519	11638
931.623	11570
