Data from test_V78500241_2477.txt Node
Date: Fri Mar 25 15:58:57 CST 2022
User: usil
Spectrometer: V785-0024
Trigger mode: 0
Integration Time (sec): 4.000000E-1
Scans to average: 1
Nonlinearity correction enabled: false
Boxcar width: 0
Storing dark spectrum: false
XAxis mode: Wavelengths
Number of Pixels in Spectrum: 1024
>>>>>Begin Spectral Data<<<<<
801.071	28295
801.214	28443
801.356	28124
801.499	28078
801.641	27903
801.783	27827
801.926	28101
802.068	28097
802.211	28036
802.353	27857
802.496	27705
802.638	27698
802.78	27629
802.923	27507
803.065	27580
803.208	27553
803.35	27663
803.492	27747
803.635	27930
803.777	27717
803.919	27880
804.061	28238
804.204	27953
804.346	27800
804.488	27751
804.63	27827
804.773	27781
804.915	27899
805.057	27888
805.199	27953
805.341	28021
805.483	27888
805.626	28036
805.768	27930
805.91	28010
806.052	27972
806.194	28074
806.336	28124
806.478	28044
806.62	27994
806.762	28204
806.904	28333
807.046	28573
807.188	28489
807.33	28519
807.472	28455
807.614	28363
807.756	28618
807.898	28325
808.04	28131
808.182	28265
808.324	28432
808.465	28341
808.607	28599
808.749	28839
808.891	28786
809.033	28892
809.174	28809
809.316	28596
809.458	28459
809.6	28706
809.741	28748
809.883	28717
810.025	28915
810.166	28953
810.308	29037
810.45	28934
810.591	28774
810.733	28702
810.875	28580
811.016	28649
811.158	28569
811.299	28736
811.441	28869
811.582	28873
811.724	28672
811.865	28710
812.007	28557
812.148	28771
812.29	28801
812.431	28873
812.573	29052
812.714	29124
812.855	29223
812.997	29284
813.138	29375
813.279	29330
813.421	29220
813.562	29246
813.703	29025
813.845	28771
813.986	28611
814.127	28516
814.268	28291
814.41	28428
814.551	28284
814.692	28466
814.833	28238
814.974	28409
815.115	28375
815.256	28325
815.397	28204
815.539	28299
815.68	28181
815.821	28116
815.962	28101
816.103	28291
816.244	27998
816.385	27899
816.526	28048
816.666	27724
816.807	27610
816.948	27766
817.089	27861
817.23	27622
817.371	27488
817.512	27663
817.653	27701
817.793	27568
817.934	27747
818.075	27549
818.216	27747
818.356	27679
818.497	27614
818.638	27367
818.778	27591
818.919	27443
819.06	27458
819.2	27572
819.341	27603
819.481	27762
819.622	27922
819.762	27987
819.903	27960
820.043	28006
820.184	27941
820.324	27774
820.465	27819
820.605	27720
820.746	27869
820.886	27686
821.026	27774
821.167	27671
821.307	27926
821.447	27751
821.588	27519
821.728	27420
821.868	27447
822.008	27211
822.149	27108
822.289	27241
822.429	26902
822.569	26811
822.709	26876
822.849	26708
822.99	26705
823.13	26712
823.27	26667
823.41	26457
823.55	26347
823.69	26389
823.83	26389
823.97	26400
824.11	26244
824.25	26206
824.389	26183
824.529	26336
824.669	26328
824.809	26507
824.949	26389
825.089	26366
825.228	26415
825.368	26191
825.508	26088
825.648	26096
825.787	26252
825.927	26195
826.067	26081
826.206	26191
826.346	26225
826.485	26423
826.625	26225
826.765	26305
826.904	26275
827.044	25864
827.183	25944
827.323	25849
827.462	25902
827.601	25814
827.741	25955
827.88	25887
828.02	25799
828.159	25906
828.298	25849
828.437	26062
828.577	25791
828.716	25913
828.855	25746
828.994	25586
829.134	25586
829.273	25723
829.412	25556
829.551	25544
829.69	25586
829.829	25597
829.968	25556
830.107	25616
830.246	25628
830.385	25518
830.524	25510
830.663	25460
830.802	25304
830.941	25069
831.08	25206
831.219	25293
831.357	25209
831.496	25449
831.635	25362
831.774	25179
831.913	25099
832.051	25065
832.19	25076
832.329	25072
832.467	24905
832.606	24882
832.744	24916
832.883	24856
833.022	24886
833.16	24947
833.299	24932
833.437	24996
833.576	24985
833.714	24821
833.852	24943
833.991	25012
834.129	24852
834.267	24916
834.406	24973
834.544	24947
834.682	24947
834.821	24992
834.959	25133
835.097	24970
835.235	25042
835.373	24939
835.511	24924
835.65	24726
835.788	24745
835.926	24654
836.064	24616
836.202	24525
836.34	24703
836.478	24806
836.615	24692
836.753	24791
836.891	24924
837.029	24734
837.167	24798
837.305	24688
837.443	24593
837.58	24555
837.718	24722
837.856	24661
837.993	24601
838.131	24517
838.269	24429
838.406	24418
838.544	24452
838.681	24182
838.819	24205
838.956	24114
839.094	24003
839.231	24079
839.369	24213
839.506	24456
839.643	24281
839.781	24136
839.918	24079
840.055	24045
840.193	24064
840.33	23908
840.467	24068
840.604	23996
840.742	24209
840.879	23855
841.016	23931
841.153	23786
841.29	23988
841.427	23969
841.564	24136
841.701	23916
841.838	24003
841.975	23863
842.112	23863
842.249	23832
842.385	23672
842.522	24007
842.659	23863
842.796	23745
842.933	23783
843.069	23680
843.206	23748
843.343	23870
843.479	23771
843.616	23745
843.752	23585
843.889	23482
844.025	23615
844.162	23337
844.298	23619
844.435	23429
844.571	23497
844.708	23589
844.844	23608
844.98	23554
845.117	23573
845.253	23551
845.389	23368
845.525	23383
845.661	23330
845.798	23277
845.934	23212
846.07	23166
846.206	23216
846.342	23410
846.478	23235
846.614	23083
846.75	22957
846.886	23056
847.022	22953
847.158	22911
847.294	22972
847.429	22980
847.565	22965
847.701	23181
847.837	22752
847.972	22713
848.108	22801
848.244	22729
848.379	22527
848.515	22596
848.65	22493
848.786	22611
848.921	22504
849.057	22691
849.192	22641
849.328	22653
849.463	22447
849.598	22470
849.734	22421
849.869	22443
850.004	22348
850.14	22200
850.275	22253
850.41	22276
850.545	22367
850.68	22265
850.815	22325
850.95	22223
851.085	22577
851.22	22470
851.355	22348
851.49	22310
851.625	22158
851.76	22268
851.895	22135
852.03	22150
852.165	22211
852.299	22371
852.434	22436
852.569	22356
852.703	22238
852.838	22314
852.973	22337
853.107	22485
853.242	22200
853.376	22002
853.511	21983
853.645	22074
853.78	22192
853.914	22063
854.048	22109
854.183	22131
854.317	22211
854.451	22325
854.585	22185
854.72	22135
854.854	22169
854.988	22101
855.122	22128
855.256	21953
855.39	22139
855.524	22158
855.658	22204
855.792	22124
855.926	22112
856.06	22131
856.194	22249
856.327	22200
856.461	22158
856.595	22021
856.729	22063
856.862	22234
856.996	22116
857.13	22284
857.263	22177
857.397	22234
857.53	22116
857.664	22192
857.797	22135
857.931	22322
858.064	22143
858.197	22230
858.331	22048
858.464	21895
858.597	21991
858.731	22120
858.864	22177
858.997	22082
859.13	22097
859.263	22036
859.396	22177
859.529	22112
859.662	22181
859.795	21987
859.928	22082
860.061	22253
860.194	22352
860.327	22257
860.46	22116
860.592	22211
860.725	22253
860.858	22154
860.99	22131
861.123	22078
861.256	22048
861.388	22109
861.521	22972
861.653	22025
861.786	21903
861.918	21956
862.05	22112
862.183	22070
862.315	22051
862.447	22223
862.58	21945
862.712	21797
862.844	21774
862.976	21873
863.108	21975
863.24	22196
863.372	21739
863.504	21762
863.636	21793
863.768	21781
863.9	21861
864.032	21694
864.164	21865
864.296	21873
864.428	21926
864.559	22010
864.691	21956
864.823	21846
864.954	21774
865.086	21789
865.217	21781
865.349	21561
865.48	21656
865.612	21701
865.743	21759
865.875	21671
866.006	21705
866.137	21625
866.269	21633
866.4	21625
866.531	21622
866.662	21545
866.793	21648
866.924	21618
867.055	21656
867.186	21663
867.317	21656
867.448	21625
867.579	21682
867.71	21625
867.841	21629
867.972	21595
868.103	21728
868.233	21507
868.364	21789
868.495	21766
868.625	21888
868.756	21922
868.886	21888
869.017	21884
869.147	21994
869.278	21991
869.408	21892
869.539	21838
869.669	21972
869.799	21964
869.929	22036
870.06	22070
870.19	22109
870.32	22120
870.45	22276
870.58	22188
870.71	22436
870.84	22375
870.97	22341
871.1	22379
871.23	22440
871.36	22573
871.489	22325
871.619	22557
871.749	22519
871.879	22504
872.008	22584
872.138	22447
872.267	22508
872.397	22428
872.526	22394
872.656	22352
872.785	22394
872.915	22474
873.044	22573
873.173	22470
873.303	22615
873.432	22596
873.561	22557
873.69	22550
873.819	22455
873.948	22554
874.077	22519
874.206	22577
874.335	22424
874.464	22569
874.593	22694
874.722	22717
874.851	22729
874.979	22812
875.108	22679
875.237	22668
875.365	22618
875.494	22630
875.623	22744
875.751	22702
875.88	22786
876.008	22915
876.136	22854
876.265	23060
876.393	23277
876.521	23193
876.65	23109
876.778	23170
876.906	23014
877.034	23083
877.162	22987
877.29	22999
877.418	23239
877.546	23014
877.674	23014
877.802	23075
877.93	23140
878.058	22999
878.185	22915
878.313	23151
878.441	22968
878.568	22896
878.696	22938
878.824	23136
878.951	23261
879.079	23299
879.206	23425
879.333	23258
879.461	22987
879.588	23140
879.715	23181
879.842	23284
879.97	23098
880.097	22904
880.224	22961
880.351	22942
880.478	22984
880.605	22835
880.732	22896
880.859	23151
880.986	22946
881.112	22942
881.239	22778
881.366	22588
881.493	22588
881.619	22588
881.746	22417
881.872	22405
881.999	22398
882.125	22325
882.252	22512
882.378	22421
882.505	22455
882.631	22226
882.757	22158
882.883	22253
883.01	22097
883.136	22173
883.262	22059
883.388	21953
883.514	22162
883.64	22048
883.766	22044
883.892	21876
884.018	21930
884.143	21937
884.269	22097
884.395	21804
884.52	21778
884.646	21694
884.772	21698
884.897	21603
885.023	21838
885.148	21816
885.274	21899
885.399	21869
885.524	21701
885.65	21739
885.775	21770
885.9	21823
886.025	21751
886.15	21884
886.275	21641
886.4	21713
886.525	21770
886.65	21724
886.775	21618
886.9	21778
887.025	21907
887.149	21720
887.274	21606
887.399	21610
887.523	21439
887.648	21515
887.773	21378
887.897	21690
888.021	21568
888.146	21450
888.27	21663
888.395	21633
888.519	21557
888.643	21477
888.767	21545
888.891	21389
889.015	21378
889.139	21393
889.263	21359
889.387	21538
889.511	21458
889.635	21424
889.759	21291
889.883	21249
890.006	21184
890.13	21424
890.254	21195
890.377	21294
890.501	21077
890.624	21108
890.748	21112
890.871	20804
890.995	20838
891.118	20826
891.241	20788
891.364	20925
891.488	21020
891.611	20895
891.734	20807
891.857	20982
891.98	20807
892.103	20975
892.226	20979
892.349	20842
892.471	20606
892.594	20887
892.717	20830
892.839	20667
892.962	20861
893.085	20781
893.207	20750
893.33	20792
893.452	20773
893.575	20800
893.697	20697
893.819	20948
893.941	20944
894.064	20937
894.186	20648
894.308	20720
894.43	20716
894.552	20921
894.674	20826
894.796	20663
894.918	20743
895.04	20777
895.161	20754
895.283	20857
895.405	20811
895.526	20769
895.648	20708
895.769	20727
895.891	20861
896.012	20785
896.134	20826
896.255	20705
896.376	20731
896.498	20724
896.619	20750
896.74	20826
896.861	20754
896.982	21043
897.103	21218
897.224	21036
897.345	20975
897.466	20941
897.587	20910
897.708	21085
897.828	20990
897.949	20956
898.07	20796
898.19	20883
898.311	21013
898.431	20857
898.552	20960
898.672	21001
898.792	21096
898.913	20921
899.033	20796
899.153	20670
899.273	20670
899.393	20648
899.513	20678
899.633	20811
899.753	20739
899.873	20606
899.993	20686
900.113	20682
900.232	20682
900.352	20670
900.472	20533
900.591	20427
900.711	20518
900.83	20511
900.95	20537
901.069	20686
901.189	20351
901.308	20149
901.427	19997
901.546	20020
901.665	20134
901.784	20054
901.904	19860
902.023	19830
902.141	19655
902.26	19514
902.379	19647
902.498	19559
902.617	19441
902.735	19700
902.854	19552
902.973	19480
903.091	19247
903.21	19304
903.328	19251
903.446	19107
903.565	19069
903.683	18958
903.801	18833
903.919	18916
904.038	18901
904.156	18715
904.274	18776
904.392	18726
904.51	18833
904.627	18665
904.745	18722
904.863	18856
904.981	18502
905.098	18467
905.216	18601
905.334	18528
905.451	18437
905.569	18460
905.686	18467
905.803	18464
905.921	18262
906.038	18330
906.155	18235
906.272	18121
906.389	18121
906.506	17874
906.623	17946
906.74	17984
906.857	17843
906.974	17840
907.091	18053
907.208	18095
907.324	18064
907.441	17859
907.557	17802
907.674	17581
907.79	17733
907.907	17619
908.023	17771
908.139	17737
908.256	17577
908.372	17691
908.488	17627
908.604	17589
908.72	17402
908.836	17493
908.952	17318
909.068	17448
909.184	17505
909.3	17356
909.415	17455
909.531	17383
909.647	17143
909.762	17102
909.878	17204
909.993	17185
910.108	17079
910.224	17094
910.339	17113
910.454	16995
910.57	16957
910.685	16843
910.8	17220
910.915	17018
911.03	16900
911.145	16786
911.259	16767
911.374	16702
911.489	16679
911.604	16504
911.718	16497
911.833	16599
911.947	16360
912.062	16352
912.176	16569
912.291	16459
912.405	16474
912.519	16626
912.633	16672
912.748	16440
912.862	16485
912.976	16253
913.09	16272
913.204	16185
913.318	16192
913.431	16310
913.545	16280
913.659	16428
913.772	16223
913.886	16044
914	16101
914.113	16215
914.226	16196
914.34	16223
914.453	16036
914.566	16143
914.68	15949
914.793	15918
914.906	15755
915.019	15641
915.132	15606
915.245	15625
915.358	15694
915.47	15732
915.583	15618
915.696	15637
915.809	15709
915.921	15759
916.034	15519
916.146	15553
916.259	15629
916.371	15675
916.483	15564
916.595	15405
916.708	15458
916.82	15496
916.932	15435
917.044	15344
917.156	15378
917.268	15310
917.38	15268
917.491	15256
917.603	15230
917.715	15279
917.826	15408
917.938	15131
918.049	15161
918.161	15157
918.272	15313
918.384	15275
918.495	15245
918.606	15055
918.717	14971
918.828	15028
918.939	15039
919.05	14918
919.161	15005
919.272	14819
919.383	14804
919.494	15039
919.604	15207
919.715	15009
919.826	14933
919.936	14834
920.047	15043
920.157	14956
920.267	15135
920.378	15051
920.488	14933
920.598	15256
920.708	15298
920.818	15108
920.928	15055
921.038	15214
921.148	15222
921.258	15001
921.368	14872
921.477	14758
921.587	14815
921.697	14640
921.806	14701
921.916	14583
922.025	14366
922.134	14347
922.244	14358
922.353	14355
922.462	14218
922.571	14153
922.68	14050
922.789	14005
922.898	14054
923.007	13955
923.116	14027
923.224	14005
923.333	13993
923.442	13742
923.55	13750
923.659	13868
923.767	13921
923.876	13662
923.984	13772
924.092	13753
924.201	13658
924.309	13693
924.417	13681
924.525	13685
924.633	13613
924.741	14336
924.849	13403
924.956	13533
925.064	13403
925.172	13339
925.279	13285
925.387	13426
925.494	13381
925.602	13472
925.709	13411
925.816	13289
925.924	13335
926.031	13392
926.138	13358
926.245	13365
926.352	13228
926.459	13304
926.566	13308
926.673	13171
926.779	13099
926.886	13141
926.993	12970
927.099	12894
927.206	12897
927.312	12821
927.419	13019
927.525	12924
927.631	12981
927.737	12871
927.843	12753
927.95	12677
928.056	12821
928.162	12741
928.267	12734
928.373	13354
928.479	12817
928.585	12631
928.69	12612
928.796	12730
928.901	12563
929.007	12486
929.112	12730
929.218	12578
929.323	12593
929.428	12464
929.533	12627
929.638	12384
929.743	12376
929.848	12395
929.953	12410
930.058	12338
930.163	12144
930.267	12095
930.372	12350
930.477	12072
930.581	12262
930.685	12205
930.79	12087
930.894	12064
930.998	12015
931.103	12110
931.207	11874
931.311	11608
931.415	11562
931.519	11436
931.623	11421
