Data from test_V78500241_3701.txt Node
Date: Fri Mar 25 16:07:26 CST 2022
User: usil
Spectrometer: V785-0024
Trigger mode: 0
Integration Time (sec): 4.000000E-1
Scans to average: 1
Nonlinearity correction enabled: false
Boxcar width: 0
Storing dark spectrum: false
XAxis mode: Wavelengths
Number of Pixels in Spectrum: 1024
>>>>>Begin Spectral Data<<<<<
801.071	28322
801.214	28356
801.356	28036
801.499	27953
801.641	27876
801.783	27819
801.926	28021
802.068	27884
802.211	27865
802.353	27846
802.496	27614
802.638	27644
802.78	27580
802.923	27507
803.065	27469
803.208	27511
803.35	27713
803.492	27739
803.635	27759
803.777	27534
803.919	27842
804.061	28188
804.204	27838
804.346	27774
804.488	27705
804.63	27835
804.773	27682
804.915	27808
805.057	27911
805.199	27797
805.341	27865
805.483	27918
805.626	27930
805.768	27842
805.91	27895
806.052	27911
806.194	27747
806.336	28230
806.478	27907
806.62	28059
806.762	28032
806.904	28185
807.046	28580
807.188	28443
807.33	28379
807.472	28470
807.614	28219
807.756	28341
807.898	28360
808.04	28090
808.182	28158
808.324	28318
808.465	28306
808.607	28626
808.749	28656
808.891	28892
809.033	28763
809.174	28634
809.316	28869
809.458	28630
809.6	28573
809.741	28653
809.883	28793
810.025	28984
810.166	28965
810.308	29094
810.45	28805
810.591	28816
810.733	28801
810.875	28694
811.016	28626
811.158	28554
811.299	28831
811.441	28744
811.582	28892
811.724	28641
811.865	28603
812.007	28615
812.148	28713
812.29	28725
812.431	28869
812.573	28934
812.714	28938
812.855	29284
812.997	29204
813.138	29490
813.279	29303
813.421	29220
813.562	29052
813.703	29037
813.845	28854
813.986	28622
814.127	28546
814.268	28386
814.41	28371
814.551	28352
814.692	28413
814.833	28166
814.974	28299
815.115	28276
815.256	28101
815.397	28333
815.539	28306
815.68	28131
815.821	28162
815.962	28090
816.103	28078
816.244	27934
816.385	27819
816.526	27960
816.666	27774
816.807	27595
816.948	27720
817.089	27644
817.23	27797
817.371	27538
817.512	27637
817.653	27583
817.793	27553
817.934	27701
818.075	27701
818.216	27652
818.356	27511
818.497	27450
818.638	27462
818.778	27458
818.919	27458
819.06	27420
819.2	27603
819.341	27591
819.481	27637
819.622	27682
819.762	28013
819.903	27861
820.043	27736
820.184	27751
820.324	27899
820.465	27861
820.605	27880
820.746	27675
820.886	27625
821.026	27587
821.167	27606
821.307	27778
821.447	27515
821.588	27534
821.728	27572
821.868	27340
822.008	27119
822.149	27104
822.289	27195
822.429	26937
822.569	26800
822.709	26902
822.849	26686
822.99	26708
823.13	26511
823.27	26712
823.41	26457
823.55	26347
823.69	26438
823.83	26423
823.97	26374
824.11	26267
824.25	26324
824.389	26393
824.529	26396
824.669	26290
824.809	26301
824.949	26324
825.089	26248
825.228	26339
825.368	26172
825.508	26214
825.648	26195
825.787	26180
825.927	26195
826.067	26020
826.206	26282
826.346	26111
826.485	26294
826.625	26233
826.765	26195
826.904	26240
827.044	25890
827.183	25951
827.323	25757
827.462	25944
827.601	25913
827.741	25833
827.88	25974
828.02	25670
828.159	25830
828.298	25807
828.437	25833
828.577	25681
828.716	25944
828.855	25696
828.994	25647
829.134	25556
829.273	25674
829.412	25441
829.551	25525
829.69	25590
829.829	25495
829.968	25704
830.107	25704
830.246	25479
830.385	25510
830.524	25510
830.663	25377
830.802	25202
830.941	25190
831.08	25034
831.219	25255
831.357	25198
831.496	25365
831.635	25091
831.774	25126
831.913	24947
832.051	25019
832.19	24939
832.329	25019
832.467	24776
832.606	24890
832.744	24924
832.883	24711
833.022	24726
833.16	24776
833.299	24939
833.437	24829
833.576	24859
833.714	24844
833.852	25012
833.991	24981
834.129	24958
834.267	25000
834.406	24791
834.544	24932
834.682	24932
834.821	25008
834.959	25152
835.097	24753
835.235	24932
835.373	24913
835.511	24810
835.65	24783
835.788	24741
835.926	24509
836.064	24528
836.202	24486
836.34	24661
836.478	24897
836.615	24730
836.753	24787
836.891	24726
837.029	24749
837.167	24661
837.305	24776
837.443	24574
837.58	24547
837.718	24646
837.856	24517
837.993	24445
838.131	24437
838.269	24441
838.406	24494
838.544	24426
838.681	24205
838.819	24129
838.956	24045
839.094	24030
839.231	24041
839.369	24125
839.506	24464
839.643	24262
839.781	24018
839.918	23996
840.055	24079
840.193	23885
840.33	23840
840.467	24038
840.604	23973
840.742	24178
840.879	23775
841.016	23885
841.153	23836
841.29	24060
841.427	23745
841.564	24057
841.701	23885
841.838	23874
841.975	23836
842.112	23855
842.249	23581
842.385	23634
842.522	23855
842.659	23908
842.796	23585
842.933	23695
843.069	23786
843.206	23630
843.343	23604
843.479	23634
843.616	23771
843.752	23524
843.889	23615
844.025	23661
844.162	23520
844.298	23585
844.435	23417
844.571	23463
844.708	23554
844.844	23509
844.98	23562
845.117	23573
845.253	23436
845.389	23292
845.525	23433
845.661	23360
845.798	23273
845.934	23265
846.07	23216
846.206	23216
846.342	23360
846.478	23299
846.614	23075
846.75	22949
846.886	22961
847.022	22942
847.158	23022
847.294	23010
847.429	22877
847.565	22995
847.701	23113
847.837	22687
847.972	22656
848.108	22793
848.244	22752
848.379	22580
848.515	22519
848.65	22466
848.786	22443
848.921	22478
849.057	22622
849.192	22531
849.328	22664
849.463	22596
849.598	22447
849.734	22447
849.869	22432
850.004	22291
850.14	22348
850.275	22344
850.41	22249
850.545	22105
850.68	22344
850.815	22344
850.95	22325
851.085	22402
851.22	22459
851.355	22268
851.49	22265
851.625	22371
851.76	22238
851.895	22219
852.03	22272
852.165	22268
852.299	22367
852.434	22265
852.569	22276
852.703	22143
852.838	22367
852.973	22531
853.107	22428
853.242	22169
853.376	22181
853.511	21960
853.645	22093
853.78	22124
853.914	22147
854.048	22017
854.183	22124
854.317	22181
854.451	22261
854.585	22101
854.72	22181
854.854	22185
854.988	22105
855.122	22070
855.256	21861
855.39	22192
855.524	22226
855.658	22074
855.792	22207
855.926	22124
856.06	22253
856.194	22124
856.327	22078
856.461	22070
856.595	22177
856.729	22036
856.862	22295
856.996	22150
857.13	22185
857.263	22147
857.397	22211
857.53	22116
857.664	22230
857.797	22128
857.931	22124
858.064	22124
858.197	22238
858.331	22131
858.464	22105
858.597	21941
858.731	22040
858.864	22112
858.997	22101
859.13	22055
859.263	22070
859.396	22196
859.529	22086
859.662	22002
859.795	22090
859.928	22032
860.061	22204
860.194	22303
860.327	22185
860.46	22166
860.592	22207
860.725	22204
860.858	22143
860.99	22158
861.123	21975
861.256	21926
861.388	22112
861.521	22927
861.653	22036
861.786	21816
861.918	22013
862.05	21918
862.183	21972
862.315	21926
862.447	22219
862.58	22074
862.712	21808
862.844	21789
862.976	21804
863.108	21850
863.24	22333
863.372	21679
863.504	21835
863.636	21846
863.768	21846
863.9	21835
864.032	21747
864.164	21751
864.296	21732
864.428	21937
864.559	21850
864.691	21812
864.823	21876
864.954	21800
865.086	21759
865.217	21701
865.349	21644
865.48	21732
865.612	21606
865.743	21850
865.875	21842
866.006	21561
866.137	21694
866.269	21724
866.4	21667
866.531	21698
866.662	21557
866.793	21690
866.924	21717
867.055	21667
867.186	21743
867.317	21511
867.448	21500
867.579	21595
867.71	21660
867.841	21614
867.972	21739
868.103	21633
868.233	21564
868.364	21679
868.495	21724
868.625	21915
868.756	22032
868.886	21694
869.017	21717
869.147	21987
869.278	22010
869.408	21865
869.539	21819
869.669	21934
869.799	21915
869.929	21998
870.06	22029
870.19	22246
870.32	22078
870.45	22234
870.58	22036
870.71	22402
870.84	22394
870.97	22211
871.1	22382
871.23	22432
871.36	22474
871.489	22409
871.619	22402
871.749	22428
871.879	22497
872.008	22466
872.138	22500
872.267	22497
872.397	22436
872.526	22280
872.656	22314
872.785	22276
872.915	22436
873.044	22546
873.173	22508
873.303	22527
873.432	22569
873.561	22618
873.69	22478
873.819	22531
873.948	22645
874.077	22413
874.206	22318
874.335	22394
874.464	22577
874.593	22767
874.722	22577
874.851	22717
874.979	22759
875.108	22744
875.237	22694
875.365	22531
875.494	22759
875.623	22797
875.751	22694
875.88	22717
876.008	22915
876.136	22885
876.265	23044
876.393	23178
876.521	23231
876.65	23094
876.778	23117
876.906	23105
877.034	23025
877.162	23067
877.29	23044
877.418	22980
877.546	23121
877.674	22987
877.802	22980
877.93	22984
878.058	23075
878.185	22946
878.313	22999
878.441	23086
878.568	22965
878.696	22911
878.824	23079
878.951	23162
879.079	23212
879.206	23296
879.333	23239
879.461	23033
879.588	23280
879.715	23250
879.842	23345
879.97	23151
880.097	22915
880.224	22858
880.351	22896
880.478	22949
880.605	22805
880.732	22953
880.859	23105
880.986	22957
881.112	22812
881.239	22740
881.366	22668
881.493	22664
881.619	22474
881.746	22348
881.872	22470
881.999	22398
882.125	22455
882.252	22417
882.378	22447
882.505	22679
882.631	22371
882.757	22093
882.883	22291
883.01	22025
883.136	22090
883.262	22032
883.388	21941
883.514	22188
883.64	22055
883.766	22112
883.892	21987
884.018	22025
884.143	22097
884.269	22249
884.395	22021
884.52	21652
884.646	21930
884.772	21759
884.897	21747
885.023	21755
885.148	21934
885.274	21884
885.399	21865
885.524	21751
885.65	21793
885.775	21800
885.9	21838
886.025	21797
886.15	21827
886.275	21751
886.4	21625
886.525	21701
886.65	21679
886.775	21701
886.9	21831
887.025	21945
887.149	21709
887.274	21633
887.399	21549
887.523	21481
887.648	21538
887.773	21393
887.897	21515
888.021	21545
888.146	21454
888.27	21564
888.395	21663
888.519	21679
888.643	21507
888.767	21553
888.891	21454
889.015	21233
889.139	21428
889.263	21268
889.387	21473
889.511	21595
889.635	21572
889.759	21363
889.883	21214
890.006	21386
890.13	21454
890.254	21138
890.377	21302
890.501	21089
890.624	20979
890.748	21165
890.871	20937
890.995	20785
891.118	20800
891.241	20842
891.364	20895
891.488	21066
891.611	20800
891.734	20853
891.857	20880
891.98	20952
892.103	20925
892.226	20895
892.349	20861
892.471	20621
892.594	20823
892.717	20838
892.839	20819
892.962	20773
893.085	20845
893.207	20807
893.33	20621
893.452	20571
893.575	20773
893.697	20796
893.819	20918
893.941	20910
894.064	20895
894.186	20720
894.308	20678
894.43	20796
894.552	20883
894.674	20823
894.796	20720
894.918	20727
895.04	20689
895.161	20792
895.283	20826
895.405	20640
895.526	20887
895.648	20705
895.769	20678
895.891	20861
896.012	20880
896.134	20853
896.255	20705
896.376	20727
896.498	20629
896.619	20788
896.74	20762
896.861	20853
896.982	20994
897.103	21279
897.224	20948
897.345	20849
897.466	20998
897.587	20937
897.708	21131
897.828	20971
897.949	20853
898.07	20758
898.19	20944
898.311	20937
898.431	20811
898.552	20899
898.672	21009
898.792	21066
898.913	20868
899.033	20979
899.153	20830
899.273	20648
899.393	20762
899.513	20651
899.633	20640
899.753	20667
899.873	20648
899.993	20735
900.113	20575
900.232	20564
900.352	20503
900.472	20617
900.591	20343
900.711	20473
900.83	20480
900.95	20465
901.069	20587
901.189	20404
901.308	20199
901.427	20100
901.546	20073
901.665	20062
901.784	20081
901.904	19791
902.023	19826
902.141	19651
902.26	19677
902.379	19632
902.498	19499
902.617	19514
902.735	19480
902.854	19480
902.973	19400
903.091	19072
903.21	19118
903.328	19175
903.446	19057
903.565	19004
903.683	19099
903.801	18913
903.919	18947
904.038	18920
904.156	18829
904.274	18886
904.392	18726
904.51	18707
904.627	18772
904.745	18776
904.863	18745
904.981	18521
905.098	18384
905.216	18513
905.334	18365
905.451	18456
905.569	18426
905.686	18464
905.803	18483
905.921	18178
906.038	18357
906.155	18178
906.272	18129
906.389	18076
906.506	18007
906.623	17999
906.74	17954
906.857	17741
906.974	17832
907.091	18060
907.208	18022
907.324	17885
907.441	17885
907.557	17657
907.674	17653
907.79	17604
907.907	17665
908.023	17615
908.139	17680
908.256	17570
908.372	17547
908.488	17547
908.604	17421
908.72	17299
908.836	17398
908.952	17322
909.068	17414
909.184	17471
909.3	17398
909.415	17391
909.531	17505
909.647	17083
909.762	17124
909.878	17128
909.993	17102
910.108	17041
910.224	17006
910.339	17056
910.454	16946
910.57	16942
910.685	16797
910.8	17014
910.915	17029
911.03	16927
911.145	16797
911.259	16679
911.374	16763
911.489	16664
911.604	16584
911.718	16360
911.833	16440
911.947	16295
912.062	16234
912.176	16504
912.291	16451
912.405	16413
912.519	16691
912.633	16649
912.748	16489
912.862	16382
912.976	16234
913.09	16074
913.204	16120
913.318	16169
913.431	16379
913.545	16344
913.659	16291
913.772	16291
913.886	16051
914	15968
914.113	16196
914.226	16169
914.34	16135
914.453	15907
914.566	15975
914.68	15895
914.793	15850
914.906	15720
915.019	15561
915.132	15530
915.245	15599
915.358	15614
915.47	15606
915.583	15610
915.696	15660
915.809	15679
915.921	15656
916.034	15576
916.146	15515
916.259	15644
916.371	15553
916.483	15542
916.595	15488
916.708	15519
916.82	15439
916.932	15439
917.044	15454
917.156	15325
917.268	15226
917.38	15241
917.491	15233
917.603	15420
917.715	15450
917.826	15306
917.938	15180
918.049	15039
918.161	15131
918.272	15359
918.384	15336
918.495	15165
918.606	14986
918.717	15024
918.828	15062
918.939	15085
919.05	14792
919.161	14998
919.272	14689
919.383	15028
919.494	14952
919.604	15081
919.715	15066
919.826	14895
919.936	14834
920.047	14998
920.157	14887
920.267	15230
920.378	15013
920.488	14967
920.598	15157
920.708	15294
920.818	15047
920.928	15097
921.038	15157
921.148	15116
921.258	14952
921.368	14750
921.477	14701
921.587	14663
921.697	14522
921.806	14693
921.916	14602
922.025	14415
922.134	14415
922.244	14324
922.353	14309
922.462	14161
922.571	14046
922.68	13993
922.789	13940
922.898	14054
923.007	13925
923.116	13947
923.224	13928
923.333	13951
923.442	13784
923.55	13830
923.659	13818
923.767	13845
923.876	13742
923.984	13765
924.092	13719
924.201	13890
924.309	13712
924.417	13757
924.525	13586
924.633	13540
924.741	14393
924.849	13362
924.956	13499
925.064	13377
925.172	13358
925.279	13301
925.387	13358
925.494	13335
925.602	13460
925.709	13415
925.816	13297
925.924	13327
926.031	13377
926.138	13202
926.245	13308
926.352	13213
926.459	13343
926.566	13407
926.673	13156
926.779	13129
926.886	12996
926.993	12894
927.099	12894
927.206	12863
927.312	12806
927.419	12981
927.525	12905
927.631	12856
927.737	12806
927.843	12795
927.95	12658
928.056	12688
928.162	12757
928.267	12875
928.373	13354
928.479	12772
928.585	12563
928.69	12650
928.796	12623
928.901	12540
929.007	12391
929.112	12532
929.218	12525
929.323	12471
929.428	12414
929.533	12479
929.638	12338
929.743	12372
929.848	12498
929.953	12418
930.058	12330
930.163	12045
930.267	12072
930.372	12311
930.477	12114
930.581	12239
930.685	12136
930.79	11942
930.894	12003
930.998	11923
931.103	12110
931.207	11722
931.311	11615
931.415	11573
931.519	11395
931.623	11360
