Data from test_V78500241_1991.txt Node
Date: Fri Mar 25 15:55:35 CST 2022
User: usil
Spectrometer: V785-0024
Trigger mode: 0
Integration Time (sec): 4.000000E-1
Scans to average: 1
Nonlinearity correction enabled: false
Boxcar width: 0
Storing dark spectrum: false
XAxis mode: Wavelengths
Number of Pixels in Spectrum: 1024
>>>>>Begin Spectral Data<<<<<
801.071	28424
801.214	28310
801.356	28226
801.499	28029
801.641	27979
801.783	27983
801.926	27975
802.068	27937
802.211	27934
802.353	27762
802.496	27739
802.638	27644
802.78	27568
802.923	27538
803.065	27523
803.208	27542
803.35	27610
803.492	27732
803.635	27774
803.777	27713
803.919	27884
804.061	28162
804.204	27945
804.346	27690
804.488	27633
804.63	27876
804.773	27682
804.915	27899
805.057	27949
805.199	27827
805.341	27934
805.483	28036
805.626	27979
805.768	27918
805.91	27903
806.052	28185
806.194	27800
806.336	28169
806.478	27960
806.62	28002
806.762	27998
806.904	28379
807.046	28371
807.188	28352
807.33	28341
807.472	28440
807.614	28394
807.756	28417
807.898	28306
808.04	28337
808.182	28226
808.324	28329
808.465	28424
808.607	28394
808.749	28740
808.891	28641
809.033	28877
809.174	28717
809.316	28774
809.458	28580
809.6	28466
809.741	28710
809.883	28854
810.025	28866
810.166	28892
810.308	28942
810.45	28858
810.591	28771
810.733	28713
810.875	28584
811.016	28618
811.158	28607
811.299	28866
811.441	28729
811.582	28782
811.724	28626
811.865	28573
812.007	28596
812.148	28645
812.29	28736
812.431	28915
812.573	29003
812.714	29056
812.855	29155
812.997	29265
813.138	29501
813.279	29349
813.421	29117
813.562	29071
813.703	28866
813.845	28915
813.986	28577
814.127	28440
814.268	28299
814.41	28379
814.551	28485
814.692	28405
814.833	28356
814.974	28253
815.115	28398
815.256	28223
815.397	28204
815.539	28230
815.68	28158
815.821	28044
815.962	28215
816.103	28070
816.244	27949
816.385	28074
816.526	27972
816.666	27800
816.807	27644
816.948	27679
817.089	27717
817.23	27686
817.371	27652
817.512	27667
817.653	27614
817.793	27652
817.934	27618
818.075	27717
818.216	27717
818.356	27686
818.497	27488
818.638	27481
818.778	27435
818.919	27515
819.06	27511
819.2	27519
819.341	27572
819.481	27667
819.622	27728
819.762	27838
819.903	27884
820.043	27850
820.184	27660
820.324	27846
820.465	27823
820.605	27797
820.746	27583
820.886	27568
821.026	27743
821.167	27838
821.307	27682
821.447	27583
821.588	27553
821.728	27485
821.868	27241
822.008	27112
822.149	27176
822.289	27203
822.429	26982
822.569	26663
822.709	26743
822.849	26693
822.99	26697
823.13	26552
823.27	26552
823.41	26507
823.55	26218
823.69	26537
823.83	26362
823.97	26469
824.11	26313
824.25	26172
824.389	26248
824.529	26267
824.669	26351
824.809	26408
824.949	26499
825.089	26366
825.228	26275
825.368	26157
825.508	26050
825.648	26168
825.787	26126
825.927	26248
826.067	26183
826.206	26145
826.346	26187
826.485	26240
826.625	26199
826.765	26126
826.904	26210
827.044	25883
827.183	25890
827.323	25833
827.462	25856
827.601	25887
827.741	25795
827.88	25871
828.02	25761
828.159	25814
828.298	25845
828.437	25883
828.577	25712
828.716	25864
828.855	25780
828.994	25415
829.134	25613
829.273	25666
829.412	25655
829.551	25502
829.69	25624
829.829	25525
829.968	25708
830.107	25502
830.246	25628
830.385	25651
830.524	25479
830.663	25373
830.802	25251
830.941	25118
831.08	25099
831.219	25194
831.357	25441
831.496	25434
831.635	25179
831.774	25202
831.913	25061
832.051	24947
832.19	24962
832.329	24954
832.467	24848
832.606	24806
832.744	24817
832.883	24810
833.022	24837
833.16	24753
833.299	24856
833.437	24875
833.576	24825
833.714	24753
833.852	24939
833.991	24996
834.129	25023
834.267	25004
834.406	24890
834.544	24951
834.682	24916
834.821	24764
834.959	25110
835.097	24814
835.235	24863
835.373	24684
835.511	24802
835.65	24677
835.788	24817
835.926	24654
836.064	24505
836.202	24547
836.34	24719
836.478	24856
836.615	24715
836.753	24707
836.891	24772
837.029	24684
837.167	24707
837.305	24410
837.443	24665
837.58	24517
837.718	24593
837.856	24578
837.993	24460
838.131	24661
838.269	24327
838.406	24498
838.544	24441
838.681	24311
838.819	24205
838.956	24049
839.094	24072
839.231	23977
839.369	24159
839.506	24403
839.643	24247
839.781	24045
839.918	23942
840.055	23958
840.193	23912
840.33	23897
840.467	23889
840.604	23992
840.742	24262
840.879	23866
841.016	23798
841.153	23783
841.29	24087
841.427	23885
841.564	23916
841.701	24053
841.838	23847
841.975	23901
842.112	23836
842.249	23847
842.385	23619
842.522	23870
842.659	23691
842.796	23589
842.933	23642
843.069	23695
843.206	23516
843.343	23745
843.479	23752
843.616	23668
843.752	23467
843.889	23467
844.025	23623
844.162	23402
844.298	23535
844.435	23501
844.571	23379
844.708	23478
844.844	23642
844.98	23592
845.117	23531
845.253	23387
845.389	23288
845.525	23307
845.661	23212
845.798	23105
845.934	23273
846.07	23143
846.206	23242
846.342	23337
846.478	23124
846.614	22999
846.75	23003
846.886	22843
847.022	22968
847.158	22934
847.294	23003
847.429	22812
847.565	22866
847.701	23094
847.837	22752
847.972	22759
848.108	22812
848.244	22736
848.379	22504
848.515	22516
848.65	22497
848.786	22455
848.921	22641
849.057	22569
849.192	22588
849.328	22596
849.463	22432
849.598	22489
849.734	22424
849.869	22253
850.004	22329
850.14	22295
850.275	22246
850.41	22226
850.545	22181
850.68	22207
850.815	22268
850.95	22287
851.085	22356
851.22	22382
851.355	22215
851.49	22204
851.625	22272
851.76	22211
851.895	22230
852.03	22112
852.165	22234
852.299	22291
852.434	22470
852.569	22325
852.703	22360
852.838	22272
852.973	22481
853.107	22322
853.242	22188
853.376	22029
853.511	22025
853.645	22086
853.78	22162
853.914	22025
854.048	21991
854.183	22070
854.317	22048
854.451	22287
854.585	22150
854.72	22051
854.854	22185
854.988	21953
855.122	22162
855.256	21991
855.39	22063
855.524	22131
855.658	22051
855.792	22063
855.926	22086
856.06	22181
856.194	22158
856.327	21979
856.461	21998
856.595	22063
856.729	21987
856.862	22318
856.996	22253
857.13	22219
857.263	22223
857.397	22105
857.53	22109
857.664	22131
857.797	22196
857.931	22204
858.064	22105
858.197	22325
858.331	22074
858.464	21998
858.597	21918
858.731	22032
858.864	21991
858.997	22067
859.13	22124
859.263	22097
859.396	22063
859.529	22067
859.662	22090
859.795	21953
859.928	22090
860.061	22246
860.194	22276
860.327	22215
860.46	22112
860.592	22265
860.725	22238
860.858	22299
860.99	22211
861.123	21876
861.256	22010
861.388	22086
861.521	22858
861.653	21937
861.786	22097
861.918	21918
862.05	21987
862.183	22040
862.315	21911
862.447	22021
862.58	21937
862.712	21876
862.844	21812
862.976	21880
863.108	21880
863.24	22272
863.372	21713
863.504	21774
863.636	21751
863.768	21808
863.9	21816
864.032	21667
864.164	21625
864.296	21762
864.428	21842
864.559	21812
864.691	21808
864.823	21759
864.954	21838
865.086	21755
865.217	21641
865.349	21644
865.48	21701
865.612	21736
865.743	21808
865.875	21701
866.006	21583
866.137	21724
866.269	21663
866.4	21583
866.531	21682
866.662	21625
866.793	21622
866.924	21728
867.055	21705
867.186	21572
867.317	21500
867.448	21595
867.579	21606
867.71	21412
867.841	21507
867.972	21622
868.103	21580
868.233	21583
868.364	21606
868.495	21766
868.625	21850
868.756	21987
868.886	21762
869.017	21793
869.147	21972
869.278	22002
869.408	21915
869.539	21770
869.669	21846
869.799	21956
869.929	22051
870.06	22013
870.19	22192
870.32	22188
870.45	22192
870.58	22280
870.71	22325
870.84	22337
870.97	22196
871.1	22310
871.23	22394
871.36	22459
871.489	22310
871.619	22542
871.749	22466
871.879	22474
872.008	22603
872.138	22424
872.267	22481
872.397	22291
872.526	22333
872.656	22352
872.785	22371
872.915	22516
873.044	22565
873.173	22497
873.303	22519
873.432	22523
873.561	22622
873.69	22386
873.819	22500
873.948	22618
874.077	22360
874.206	22489
874.335	22341
874.464	22565
874.593	22668
874.722	22721
874.851	22797
874.979	22759
875.108	22630
875.237	22584
875.365	22573
875.494	22782
875.623	22812
875.751	22755
875.88	22740
876.008	22717
876.136	22942
876.265	23079
876.393	23204
876.521	23075
876.65	23258
876.778	23079
876.906	23075
877.034	23010
877.162	22953
877.29	23006
877.418	23094
877.546	22957
877.674	23170
877.802	22953
877.93	23033
878.058	22820
878.185	22927
878.313	22889
878.441	23041
878.568	22809
878.696	22953
878.824	22961
878.951	22976
879.079	23227
879.206	23273
879.333	23140
879.461	23056
879.588	22991
879.715	23208
879.842	23315
879.97	22995
880.097	22801
880.224	22717
880.351	22987
880.478	22889
880.605	22774
880.732	22782
880.859	23102
880.986	22927
881.112	22889
881.239	22717
881.366	22596
881.493	22519
881.619	22455
881.746	22481
881.872	22280
881.999	22421
882.125	22303
882.252	22386
882.378	22394
882.505	22424
882.631	22284
882.757	22204
882.883	22173
883.01	22090
883.136	22169
883.262	21983
883.388	21930
883.514	22101
883.64	22135
883.766	22013
883.892	21857
884.018	21956
884.143	21987
884.269	22139
884.395	21926
884.52	21633
884.646	21800
884.772	21701
884.897	21679
885.023	21797
885.148	21759
885.274	21766
885.399	21781
885.524	21717
885.65	21766
885.775	21793
885.9	21736
886.025	21793
886.15	21800
886.275	21800
886.4	21641
886.525	21648
886.65	21629
886.775	21663
886.9	21778
887.025	21911
887.149	21564
887.274	21473
887.399	21469
887.523	21477
887.648	21302
887.773	21386
887.897	21629
888.021	21530
888.146	21561
888.27	21580
888.395	21485
888.519	21572
888.643	21500
888.767	21618
888.891	21439
889.015	21317
889.139	21344
889.263	21336
889.387	21348
889.511	21450
889.635	21386
889.759	21283
889.883	21173
890.006	21310
890.13	21431
890.254	21146
890.377	21226
890.501	21138
890.624	20948
890.748	21093
890.871	20933
890.995	20921
891.118	20781
891.241	20971
891.364	20853
891.488	20944
891.611	20785
891.734	20902
891.857	20864
891.98	20899
892.103	20868
892.226	20857
892.349	20785
892.471	20674
892.594	20708
892.717	20731
892.839	20758
892.962	20651
893.085	20746
893.207	20788
893.33	20594
893.452	20644
893.575	20811
893.697	20644
893.819	20883
893.941	21001
894.064	20880
894.186	20708
894.308	20571
894.43	20735
894.552	20777
894.674	20785
894.796	20537
894.918	20629
895.04	20705
895.161	20807
895.283	20785
895.405	20659
895.526	20902
895.648	20762
895.769	20792
895.891	20773
896.012	20754
896.134	20754
896.255	20830
896.376	20697
896.498	20686
896.619	20640
896.74	20895
896.861	20735
896.982	20982
897.103	21058
897.224	20994
897.345	20887
897.466	20948
897.587	20918
897.708	21081
897.828	20921
897.949	20815
898.07	20773
898.19	20975
898.311	20975
898.431	20895
898.552	20921
898.672	20895
898.792	21055
898.913	20986
899.033	20815
899.153	20769
899.273	20644
899.393	20663
899.513	20765
899.633	20651
899.753	20708
899.873	20617
899.993	20724
900.113	20499
900.232	20579
900.352	20530
900.472	20412
900.591	20320
900.711	20396
900.83	20415
900.95	20549
901.069	20473
901.189	20332
901.308	20206
901.427	19944
901.546	20046
901.665	20027
901.784	20130
901.904	19837
902.023	19696
902.141	19681
902.26	19575
902.379	19616
902.498	19529
902.617	19495
902.735	19578
902.854	19457
902.973	19460
903.091	19183
903.21	19168
903.328	19152
903.446	19103
903.565	18973
903.683	18966
903.801	18935
903.919	18909
904.038	18920
904.156	18802
904.274	18886
904.392	18703
904.51	18768
904.627	18646
904.745	18692
904.863	18749
904.981	18616
905.098	18346
905.216	18369
905.334	18429
905.451	18395
905.569	18380
905.686	18407
905.803	18467
905.921	18228
906.038	18243
906.155	18216
906.272	18034
906.389	18091
906.506	18019
906.623	18102
906.74	18007
906.857	17923
906.974	17954
907.091	18038
907.208	18068
907.324	17904
907.441	17863
907.557	17691
907.674	17707
907.79	17570
907.907	17657
908.023	17687
908.139	17665
908.256	17691
908.372	17551
908.488	17554
908.604	17471
908.72	17429
908.836	17440
908.952	17376
909.068	17440
909.184	17528
909.3	17414
909.415	17372
909.531	17493
909.647	17227
909.762	17185
909.878	17128
909.993	17155
910.108	17064
910.224	17060
910.339	17098
910.454	16999
910.57	16866
910.685	16831
910.8	17098
910.915	17098
911.03	16850
911.145	16721
911.259	16713
911.374	16721
911.489	16603
911.604	16538
911.718	16394
911.833	16409
911.947	16325
912.062	16272
912.176	16363
912.291	16459
912.405	16500
912.519	16634
912.633	16599
912.748	16474
912.862	16432
912.976	16344
913.09	16128
913.204	16078
913.318	16238
913.431	16367
913.545	16287
913.659	16352
913.772	16253
913.886	16093
914	16013
914.113	16158
914.226	16143
914.34	16131
914.453	15857
914.566	16128
914.68	16013
914.793	15857
914.906	15816
915.019	15690
915.132	15599
915.245	15705
915.358	15587
915.47	15686
915.583	15580
915.696	15698
915.809	15751
915.921	15781
916.034	15652
916.146	15515
916.259	15515
916.371	15576
916.483	15576
916.595	15397
916.708	15412
916.82	15447
916.932	15397
917.044	15420
917.156	15439
917.268	15283
917.38	15336
917.491	15260
917.603	15283
917.715	15298
917.826	15382
917.938	15199
918.049	15024
918.161	15180
918.272	15374
918.384	15294
918.495	15218
918.606	15074
918.717	14975
918.828	15017
918.939	15032
919.05	14918
919.161	15051
919.272	14842
919.383	14899
919.494	15039
919.604	15203
919.715	15036
919.826	14864
919.936	14979
920.047	15043
920.157	14910
920.267	15142
920.378	14998
920.488	14948
920.598	15055
920.708	15283
920.818	15112
920.928	15062
921.038	15245
921.148	15192
921.258	14872
921.368	14826
921.477	14712
921.587	14632
921.697	14564
921.806	14815
921.916	14621
922.025	14419
922.134	14355
922.244	14278
922.353	14298
922.462	14240
922.571	14149
922.68	14054
922.789	13989
922.898	14012
923.007	13849
923.116	14039
923.224	13978
923.333	13963
923.442	13845
923.55	13750
923.659	13833
923.767	13852
923.876	13700
923.984	13830
924.092	13670
924.201	13731
924.309	13700
924.417	13742
924.525	13674
924.633	13605
924.741	14328
924.849	13400
924.956	13567
925.064	13396
925.172	13320
925.279	13270
925.387	13369
925.494	13343
925.602	13518
925.709	13533
925.816	13247
925.924	13384
926.031	13403
926.138	13327
926.245	13278
926.352	13202
926.459	13415
926.566	13308
926.673	13297
926.779	13126
926.886	13091
926.993	12954
927.099	12939
927.206	12947
927.312	12802
927.419	12935
927.525	12875
927.631	12947
927.737	12829
927.843	12817
927.95	12677
928.056	12806
928.162	12700
928.267	12722
928.373	13407
928.479	12722
928.585	12589
928.69	12654
928.796	12703
928.901	12601
929.007	12407
929.112	12585
929.218	12536
929.323	12448
929.428	12429
929.533	12551
929.638	12319
929.743	12403
929.848	12388
929.953	12338
930.058	12319
930.163	12076
930.267	12079
930.372	12235
930.477	12060
930.581	12300
930.685	12076
930.79	11988
930.894	12022
930.998	11923
931.103	12171
931.207	11741
931.311	11649
931.415	11558
931.519	11387
931.623	11379
