Data from test_V78500241_325.txt Node
Date: Fri Mar 25 15:44:03 CST 2022
User: usil
Spectrometer: V785-0024
Trigger mode: 0
Integration Time (sec): 4.000000E-1
Scans to average: 1
Nonlinearity correction enabled: false
Boxcar width: 0
Storing dark spectrum: false
XAxis mode: Wavelengths
Number of Pixels in Spectrum: 1024
>>>>>Begin Spectral Data<<<<<
801.071	30030
801.214	29828
801.356	29520
801.499	29505
801.641	29531
801.783	29490
801.926	29486
802.068	29345
802.211	29433
802.353	29387
802.496	29162
802.638	29044
802.78	28984
802.923	29105
803.065	29098
803.208	29189
803.35	29212
803.492	29246
803.635	29448
803.777	29254
803.919	29478
804.061	29512
804.204	29551
804.346	29197
804.488	29280
804.63	29414
804.773	29288
804.915	29307
805.057	29429
805.199	29387
805.341	29372
805.483	29482
805.626	29471
805.768	29280
805.91	29311
806.052	29444
806.194	29269
806.336	29668
806.478	29459
806.62	29486
806.762	29452
806.904	29802
807.046	29946
807.188	29901
807.33	29901
807.472	30072
807.614	29817
807.756	29878
807.898	29741
808.04	29748
808.182	29649
808.324	29737
808.465	29672
808.607	29862
808.749	30182
808.891	30148
809.033	30342
809.174	30182
809.316	29885
809.458	30209
809.6	30083
809.741	30247
809.883	30251
810.025	30334
810.166	30273
810.308	30334
810.45	30464
810.591	30228
810.733	30197
810.875	30102
811.016	30121
811.158	30007
811.299	30167
811.441	30357
811.582	30258
811.724	30121
811.865	30110
812.007	30098
812.148	30114
812.29	30076
812.431	30315
812.573	30422
812.714	30544
812.855	30467
812.997	30722
813.138	31004
813.279	30745
813.421	30483
813.562	30776
813.703	30330
813.845	30300
813.986	29901
814.127	29977
814.268	29954
814.41	29805
814.551	29779
814.692	29942
814.833	29528
814.974	29657
815.115	29824
815.256	29642
815.397	29638
815.539	29596
815.68	29600
815.821	29539
815.962	29505
816.103	29695
816.244	29512
816.385	29402
816.526	29417
816.666	29235
816.807	28946
816.948	29086
817.089	29121
817.23	29109
817.371	29064
817.512	29075
817.653	29132
817.793	28980
817.934	29105
818.075	29041
818.216	29033
818.356	28961
818.497	28987
818.638	28809
818.778	28809
818.919	28923
819.06	28668
819.2	28824
819.341	28965
819.481	29067
819.622	29052
819.762	29356
819.903	29246
820.043	29326
820.184	28984
820.324	29113
820.465	29231
820.605	29174
820.746	29025
820.886	28911
821.026	29166
821.167	28991
821.307	29109
821.447	29025
821.588	28919
821.728	28801
821.868	28691
822.008	28497
822.149	28436
822.289	28405
822.429	28200
822.569	27991
822.709	28211
822.849	27884
822.99	27869
823.13	27945
823.27	27873
823.41	27732
823.55	27545
823.69	27728
823.83	27690
823.97	27713
824.11	27386
824.25	27355
824.389	27568
824.529	27724
824.669	27485
824.809	27625
824.949	27698
825.089	27622
825.228	27713
825.368	27416
825.508	27298
825.648	27306
825.787	27287
825.927	27515
826.067	27454
826.206	27279
826.346	27427
826.485	27492
826.625	27237
826.765	27344
826.904	27401
827.044	27157
827.183	27058
827.323	27043
827.462	27165
827.601	27051
827.741	27039
827.88	27062
828.02	26979
828.159	27100
828.298	27081
828.437	27184
828.577	26952
828.716	27055
828.855	27070
828.994	26575
829.134	26796
829.273	26712
829.412	26674
829.551	26727
829.69	26632
829.829	26746
829.968	26815
830.107	26826
830.246	26686
830.385	26537
830.524	26705
830.663	26495
830.802	26461
830.941	26332
831.08	26343
831.219	26351
831.357	26278
831.496	26461
831.635	26301
831.774	26142
831.913	26020
832.051	26092
832.19	26145
832.329	26008
832.467	25955
832.606	25909
832.744	25837
832.883	25940
833.022	25909
833.16	25879
833.299	25925
833.437	26016
833.576	25944
833.714	25974
833.852	25986
833.991	26050
834.129	25997
834.267	25940
834.406	25963
834.544	26031
834.682	25887
834.821	25963
834.959	26043
835.097	26027
835.235	25989
835.373	25936
835.511	25849
835.65	25875
835.788	25784
835.926	25563
836.064	25620
836.202	25643
836.34	25738
836.478	25830
836.615	25537
836.753	25723
836.891	25814
837.029	25731
837.167	25700
837.305	25597
837.443	25651
837.58	25502
837.718	25666
837.856	25590
837.993	25479
838.131	25464
838.269	25354
838.406	25441
838.544	25457
838.681	25133
838.819	25141
838.956	25175
839.094	24962
839.231	25046
839.369	25255
839.506	25449
839.643	25148
839.781	25080
839.918	24996
840.055	25008
840.193	25053
840.33	24833
840.467	24970
840.604	25046
840.742	25282
840.879	24848
841.016	24928
841.153	24661
841.29	24928
841.427	24909
841.564	24863
841.701	24920
841.838	24726
841.975	24711
842.112	24817
842.249	24722
842.385	24589
842.522	24886
842.659	24681
842.796	24566
842.933	24620
843.069	24563
843.206	24490
843.343	24688
843.479	24540
843.616	24490
843.752	24380
843.889	24323
844.025	24486
844.162	24315
844.298	24422
844.435	24330
844.571	24216
844.708	24407
844.844	24422
844.98	24426
845.117	24418
845.253	24304
845.389	24228
845.525	24243
845.661	24133
845.798	24057
845.934	24018
846.07	24117
846.206	24079
846.342	24068
846.478	23999
846.614	23893
846.75	23718
846.886	23722
847.022	23824
847.158	23851
847.294	23870
847.429	23809
847.565	23570
847.701	23992
847.837	23497
847.972	23524
848.108	23478
848.244	23474
848.379	23299
848.515	23376
848.65	23200
848.786	23273
848.921	23258
849.057	23398
849.192	23387
849.328	23402
849.463	23341
849.598	23250
849.734	23204
849.869	23136
850.004	23041
850.14	23064
850.275	23079
850.41	23102
850.545	23052
850.68	22968
850.815	23060
850.95	23136
851.085	23261
851.22	23185
851.355	23067
851.49	22984
851.625	22938
851.76	23067
851.895	22987
852.03	22980
852.165	23079
852.299	23212
852.434	22976
852.569	23083
852.703	23083
852.838	23132
852.973	23185
853.107	23200
853.242	22991
853.376	22748
853.511	22782
853.645	22763
853.78	22968
853.914	22850
854.048	22774
854.183	22831
854.317	22797
854.451	22953
854.585	22942
854.72	22911
854.854	22938
854.988	22710
855.122	22805
855.256	22805
855.39	22866
855.524	22965
855.658	22885
855.792	22953
855.926	22919
856.06	22873
856.194	23033
856.327	22729
856.461	22771
856.595	22744
856.729	22793
856.862	22904
856.996	22942
857.13	22972
857.263	23010
857.397	22987
857.53	22793
857.664	22828
857.797	22862
857.931	23018
858.064	22820
858.197	23006
858.331	22824
858.464	22717
858.597	22790
858.731	22786
858.864	22782
858.997	22889
859.13	22767
859.263	22900
859.396	23052
859.529	22767
859.662	22763
859.795	22820
859.928	22797
860.061	22984
860.194	22900
860.327	22854
860.46	22896
860.592	22972
860.725	22984
860.858	22873
860.99	22809
861.123	22797
861.256	22729
861.388	22809
861.521	23604
861.653	22622
861.786	22626
861.918	22531
862.05	22702
862.183	22767
862.315	22778
862.447	22793
862.58	22668
862.712	22542
862.844	22428
862.976	22607
863.108	22603
863.24	22965
863.372	22455
863.504	22569
863.636	22451
863.768	22538
863.9	22500
864.032	22481
864.164	22485
864.296	22550
864.428	22557
864.559	22527
864.691	22634
864.823	22421
864.954	22489
865.086	22379
865.217	22512
865.349	22299
865.48	22413
865.612	22226
865.743	22428
865.875	22367
866.006	22424
866.137	22409
866.269	22375
866.4	22333
866.531	22405
866.662	22238
866.793	22238
866.924	22291
867.055	22303
867.186	22242
867.317	22150
867.448	22128
867.579	22265
867.71	22204
867.841	22211
867.972	22287
868.103	22246
868.233	22238
868.364	22207
868.495	22341
868.625	22542
868.756	22580
868.886	22577
869.017	22569
869.147	22637
869.278	22733
869.408	22603
869.539	22489
869.669	22546
869.799	22626
869.929	22542
870.06	22569
870.19	22778
870.32	22820
870.45	22824
870.58	22892
870.71	22885
870.84	23128
870.97	22938
871.1	22786
871.23	22995
871.36	23132
871.489	23086
871.619	23052
871.749	23071
871.879	23048
872.008	23296
872.138	23140
872.267	22984
872.397	22957
872.526	22965
872.656	22953
872.785	22991
872.915	23140
873.044	23102
873.173	23239
873.303	23113
873.432	23174
873.561	23159
873.69	23280
873.819	23242
873.948	23174
874.077	23113
874.206	23090
874.335	22999
874.464	23288
874.593	23433
874.722	23345
874.851	23452
874.979	23265
875.108	23448
875.237	23315
875.365	23124
875.494	23284
875.623	23395
875.751	23402
875.88	23395
876.008	23478
876.136	23558
876.265	23824
876.393	23840
876.521	23832
876.65	23817
876.778	23687
876.906	23684
877.034	23600
877.162	23710
877.29	23627
877.418	23630
877.546	23680
877.674	23623
877.802	23642
877.93	23634
878.058	23558
878.185	23585
878.313	23543
878.441	23646
878.568	23551
878.696	23596
878.824	23760
878.951	23748
879.079	23897
879.206	23946
879.333	23878
879.461	23722
879.588	23783
879.715	23882
879.842	23897
879.97	23733
880.097	23429
880.224	23516
880.351	23531
880.478	23459
880.605	23547
880.732	23463
880.859	23745
880.986	23383
881.112	23452
881.239	23383
881.366	23227
881.493	23098
881.619	23200
881.746	23094
881.872	23014
881.999	23010
882.125	23022
882.252	23124
882.378	23086
882.505	23124
882.631	22995
882.757	22694
882.883	22896
883.01	22691
883.136	22717
883.262	22573
883.388	22630
883.514	22691
883.64	22691
883.766	22660
883.892	22417
884.018	22694
884.143	22660
884.269	22729
884.395	22478
884.52	22375
884.646	22413
884.772	22394
884.897	22402
885.023	22337
885.148	22474
885.274	22554
885.399	22447
885.524	22485
885.65	22436
885.775	22409
885.9	22234
886.025	22489
886.15	22394
886.275	22375
886.4	22344
886.525	22207
886.65	22204
886.775	22291
886.9	22508
887.025	22649
887.149	22219
887.274	22192
887.399	22097
887.523	22021
887.648	22097
887.773	22055
887.897	22192
888.021	22166
888.146	22051
888.27	22291
888.395	22200
888.519	22013
888.643	22219
888.767	22063
888.891	22013
889.015	21831
889.139	21964
889.263	21842
889.387	21956
889.511	22032
889.635	22029
889.759	21793
889.883	21766
890.006	21861
890.13	21941
890.254	21797
890.377	21762
890.501	21644
890.624	21576
890.748	21545
890.871	21629
890.995	21454
891.118	21374
891.241	21428
891.364	21435
891.488	21462
891.611	21382
891.734	21477
891.857	21553
891.98	21393
892.103	21458
892.226	21348
892.349	21306
892.471	21203
892.594	21302
892.717	21298
892.839	21283
892.962	21222
893.085	21344
893.207	21401
893.33	21348
893.452	21283
893.575	21325
893.697	21321
893.819	21325
893.941	21431
894.064	21485
894.186	21252
894.308	21211
894.43	21370
894.552	21420
894.674	21401
894.796	21142
894.918	21199
895.04	21313
895.161	21507
895.283	21348
895.405	21173
895.526	21275
895.648	21199
895.769	21416
895.891	21351
896.012	21389
896.134	21355
896.255	21359
896.376	21249
896.498	21264
896.619	21412
896.74	21214
896.861	21275
896.982	21637
897.103	21766
897.224	21538
897.345	21591
897.466	21492
897.587	21637
897.708	21595
897.828	21557
897.949	21370
898.07	21313
898.19	21507
898.311	21545
898.431	21412
898.552	21336
898.672	21530
898.792	21625
898.913	21545
899.033	21310
899.153	21294
899.273	21241
899.393	21195
899.513	21135
899.633	21142
899.753	21135
899.873	21077
899.993	21184
900.113	21127
900.232	21173
900.352	21055
900.472	21032
900.591	20880
900.711	20998
900.83	20861
900.95	20990
901.069	21036
901.189	20807
901.308	20655
901.427	20518
901.546	20533
901.665	20594
901.784	20606
901.904	20244
902.023	20317
902.141	20077
902.26	20084
902.379	20145
902.498	20073
902.617	19852
902.735	19967
902.854	19913
902.973	19879
903.091	19655
903.21	19700
903.328	19635
903.446	19514
903.565	19346
903.683	19476
903.801	19263
903.919	19476
904.038	19324
904.156	19190
904.274	19384
904.392	19187
904.51	19133
904.627	19171
904.745	19164
904.863	19263
904.981	18943
905.098	18882
905.216	18947
905.334	18856
905.451	18924
905.569	18913
905.686	18924
905.803	18840
905.921	18570
906.038	18620
906.155	18681
906.272	18566
906.389	18608
906.506	18441
906.623	18289
906.74	18372
906.857	18266
906.974	18209
907.091	18350
907.208	18441
907.324	18372
907.441	18277
907.557	18167
907.674	18041
907.79	18057
907.907	18041
908.023	18079
908.139	18068
908.256	18034
908.372	18034
908.488	18003
908.604	17760
908.72	17707
908.836	17684
908.952	17737
909.068	17676
909.184	17824
909.3	17737
909.415	17752
909.531	17687
909.647	17501
909.762	17463
909.878	17452
909.993	17482
910.108	17379
910.224	17372
910.339	17383
910.454	17284
910.57	17212
910.685	17170
910.8	17436
910.915	17318
911.03	17204
911.145	17056
911.259	17022
911.374	16949
911.489	16972
911.604	16911
911.718	16710
911.833	16805
911.947	16694
912.062	16603
912.176	16744
912.291	16801
912.405	16805
912.519	16968
912.633	16953
912.748	16733
912.862	16687
912.976	16542
913.09	16432
913.204	16519
913.318	16580
913.431	16565
913.545	16736
913.659	16508
913.772	16569
913.886	16455
914	16398
914.113	16466
914.226	16535
914.34	16405
914.453	16204
914.566	16371
914.68	16215
914.793	16093
914.906	16010
915.019	15945
915.132	15850
915.245	15850
915.358	15918
915.47	15975
915.583	16017
915.696	15880
915.809	16090
915.921	15899
916.034	15907
916.146	15785
916.259	15884
916.371	15994
916.483	15918
916.595	15709
916.708	15895
916.82	15751
916.932	15679
917.044	15713
917.156	15705
917.268	15519
917.38	15523
917.491	15530
917.603	15504
917.715	15637
917.826	15553
917.938	15454
918.049	15367
918.161	15469
918.272	15564
918.384	15625
918.495	15386
918.606	15291
918.717	15218
918.828	15374
918.939	15302
919.05	15127
919.161	15218
919.272	15013
919.383	15070
919.494	15310
919.604	15397
919.715	15279
919.826	15157
919.936	15123
920.047	15249
920.157	15230
920.267	15355
920.378	15256
920.488	15203
920.598	15370
920.708	15538
920.818	15233
920.928	15370
921.038	15466
921.148	15450
921.258	15085
921.368	15013
921.477	14944
921.587	14902
921.697	14823
921.806	14853
921.916	14781
922.025	14617
922.134	14598
922.244	14511
922.353	14533
922.462	14400
922.571	14282
922.68	14157
922.789	14145
922.898	14168
923.007	14149
923.116	14164
923.224	14172
923.333	14103
923.442	13928
923.55	13986
923.659	14050
923.767	14035
923.876	13967
923.984	14088
924.092	13822
924.201	13864
924.309	13921
924.417	13906
924.525	13791
924.633	13776
924.741	14560
924.849	13609
924.956	13780
925.064	13666
925.172	13491
925.279	13537
925.387	13590
925.494	13597
925.602	13681
925.709	13666
925.816	13495
925.924	13464
926.031	13582
926.138	13495
926.245	13483
926.352	13411
926.459	13514
926.566	13483
926.673	13441
926.779	13198
926.886	13266
926.993	13133
927.099	13076
927.206	13053
927.312	13031
927.419	13187
927.525	13008
927.631	13103
927.737	13008
927.843	12856
927.95	12833
928.056	12894
928.162	12871
928.267	12970
928.373	13582
928.479	12954
928.585	12726
928.69	12878
928.796	12913
928.901	12741
929.007	12555
929.112	12703
929.218	12684
929.323	12635
929.428	12479
929.533	12585
929.638	12460
929.743	12525
929.848	12662
929.953	12551
930.058	12429
930.163	12289
930.267	12315
930.372	12422
930.477	12300
930.581	12506
930.685	12289
930.79	12140
930.894	12117
930.998	12159
931.103	12235
931.207	11916
931.311	11813
931.415	11775
931.519	11459
931.623	11452
