Data from test_V78500241_608.txt Node
Date: Fri Mar 25 15:46:00 CST 2022
User: usil
Spectrometer: V785-0024
Trigger mode: 0
Integration Time (sec): 4.000000E-1
Scans to average: 1
Nonlinearity correction enabled: false
Boxcar width: 0
Storing dark spectrum: false
XAxis mode: Wavelengths
Number of Pixels in Spectrum: 1024
>>>>>Begin Spectral Data<<<<<
801.071	27561
801.214	27572
801.356	27359
801.499	27359
801.641	27123
801.783	27188
801.926	27165
802.068	27157
802.211	26967
802.353	26944
802.496	26880
802.638	26880
802.78	26693
802.923	26788
803.065	26629
803.208	26724
803.35	26872
803.492	26967
803.635	26921
803.777	26811
803.919	26880
804.061	27321
804.204	27066
804.346	26777
804.488	26838
804.63	26979
804.773	26823
804.915	26971
805.057	26990
805.199	26982
805.341	27024
805.483	27108
805.626	27051
805.768	26910
805.91	27009
806.052	27066
806.194	26982
806.336	27226
806.478	27108
806.62	27047
806.762	27135
806.904	27439
807.046	27568
807.188	27549
807.33	27553
807.472	27389
807.614	27340
807.756	27542
807.898	27279
808.04	27310
808.182	27294
808.324	27374
808.465	27393
808.607	27450
808.749	27625
808.891	27720
809.033	27994
809.174	27709
809.316	27705
809.458	27675
809.6	27713
809.741	27759
809.883	27823
810.025	27937
810.166	27926
810.308	27926
810.45	27964
810.591	27998
810.733	27682
810.875	27781
811.016	27492
811.158	27709
811.299	27823
811.441	27876
811.582	27823
811.724	27603
811.865	27766
812.007	27526
812.148	27770
812.29	27785
812.431	27888
812.573	28105
812.714	27876
812.855	28173
812.997	28291
813.138	28436
813.279	28329
813.421	28276
813.562	28173
813.703	28074
813.845	27983
813.986	27667
814.127	27466
814.268	27382
814.41	27458
814.551	27291
814.692	27485
814.833	27321
814.974	27401
815.115	27389
815.256	27123
815.397	27344
815.539	27199
815.68	27199
815.821	27195
815.962	27108
816.103	27146
816.244	27135
816.385	26998
816.526	26933
816.666	26868
816.807	26602
816.948	26781
817.089	26689
817.23	26750
817.371	26655
817.512	26705
817.653	26701
817.793	26632
817.934	26674
818.075	26632
818.216	26708
818.356	26564
818.497	26735
818.638	26442
818.778	26495
818.919	26328
819.06	26419
819.2	26511
819.341	26621
819.481	26636
819.622	26788
819.762	26921
819.903	26876
820.043	26758
820.184	26701
820.324	26712
820.465	26876
820.605	26781
820.746	26697
820.886	26625
821.026	26731
821.167	26720
821.307	26807
821.447	26606
821.588	26556
821.728	26465
821.868	26385
822.008	26138
822.149	26142
822.289	26157
822.429	25864
822.569	25753
822.709	25791
822.849	25483
822.99	25643
823.13	25499
823.27	25666
823.41	25506
823.55	25331
823.69	25479
823.83	25407
823.97	25426
824.11	25308
824.25	25324
824.389	25304
824.529	25369
824.669	25270
824.809	25479
824.949	25377
825.089	25270
825.228	25400
825.368	25259
825.508	25084
825.648	25145
825.787	25251
825.927	25251
826.067	25251
826.206	25171
826.346	25141
826.485	25175
826.625	25061
826.765	25187
826.904	25141
827.044	25004
827.183	24871
827.323	24856
827.462	24856
827.601	24829
827.741	24753
827.88	24859
828.02	24658
828.159	24798
828.298	24947
828.437	24856
828.577	24810
828.716	24920
828.855	24821
828.994	24593
829.134	24589
829.273	24665
829.412	24513
829.551	24563
829.69	24604
829.829	24578
829.968	24639
830.107	24582
830.246	24738
830.385	24426
830.524	24426
830.663	24315
830.802	24395
830.941	24209
831.08	24007
831.219	24201
831.357	24194
831.496	24323
831.635	24136
831.774	24072
831.913	24022
832.051	23866
832.19	23882
832.329	23988
832.467	23901
832.606	23779
832.744	23840
832.883	23863
833.022	23805
833.16	23824
833.299	23885
833.437	23950
833.576	24007
833.714	23885
833.852	23935
833.991	23958
834.129	24026
834.267	23897
834.406	23855
834.544	23942
834.682	23870
834.821	23847
834.959	24114
835.097	23794
835.235	23999
835.373	23771
835.511	23802
835.65	23634
835.788	23748
835.926	23733
836.064	23505
836.202	23539
836.34	23798
836.478	23824
836.615	23870
836.753	23676
836.891	23737
837.029	23805
837.167	23668
837.305	23592
837.443	23611
837.58	23531
837.718	23638
837.856	23653
837.993	23509
838.131	23573
838.269	23452
838.406	23474
838.544	23376
838.681	23269
838.819	23239
838.956	23025
839.094	23018
839.231	23155
839.369	23235
839.506	23455
839.643	23353
839.781	23124
839.918	22949
840.055	23071
840.193	23006
840.33	22850
840.467	23033
840.604	23014
840.742	23212
840.879	22702
841.016	22927
841.153	22835
841.29	23056
841.427	22980
841.564	23033
841.701	23048
841.838	22934
841.975	22980
842.112	22892
842.249	22820
842.385	22908
842.522	23010
842.659	22824
842.796	22713
842.933	22759
843.069	22675
843.206	22618
843.343	22729
843.479	22733
843.616	22835
843.752	22535
843.889	22478
844.025	22557
844.162	22421
844.298	22569
844.435	22561
844.571	22398
844.708	22573
844.844	22660
844.98	22561
845.117	22592
845.253	22481
845.389	22390
845.525	22489
845.661	22268
845.798	22230
845.934	22185
846.07	22200
846.206	22306
846.342	22272
846.478	22253
846.614	22101
846.75	21941
846.886	21888
847.022	22036
847.158	22105
847.294	21930
847.429	22017
847.565	21857
847.701	22139
847.837	21747
847.972	21545
848.108	21778
848.244	21857
848.379	21690
848.515	21481
848.65	21561
848.786	21675
848.921	21698
849.057	21736
849.192	21667
849.328	21557
849.463	21660
849.598	21523
849.734	21439
849.869	21370
850.004	21317
850.14	21340
850.275	21336
850.41	21203
850.545	21203
850.68	21374
850.815	21481
850.95	21355
851.085	21519
851.22	21378
851.355	21382
851.49	21329
851.625	21230
851.76	21184
851.895	21207
852.03	21264
852.165	21351
852.299	21260
852.434	21420
852.569	21386
852.703	21283
852.838	21408
852.973	21469
853.107	21397
853.242	21150
853.376	21218
853.511	21135
853.645	21070
853.78	21306
853.914	21074
854.048	21074
854.183	21017
854.317	21138
854.451	21340
854.585	21077
854.72	21081
854.854	21165
854.988	21169
855.122	21077
855.256	21085
855.39	21089
855.524	21157
855.658	21207
855.792	21264
855.926	21096
856.06	21203
856.194	21154
856.327	21165
856.461	21093
856.595	21100
856.729	21222
856.862	21272
856.996	21249
857.13	21245
857.263	21180
857.397	21211
857.53	21112
857.664	21154
857.797	21157
857.931	21211
858.064	21135
858.197	21241
858.331	21142
858.464	21024
858.597	20982
858.731	21100
858.864	21104
858.997	21009
859.13	21165
859.263	21226
859.396	21116
859.529	21077
859.662	21142
859.795	21055
859.928	21184
860.061	21264
860.194	21302
860.327	21302
860.46	21116
860.592	21386
860.725	21279
860.858	21233
860.99	21020
861.123	21055
861.256	21192
861.388	21207
861.521	21770
861.653	20986
861.786	21036
861.918	20990
862.05	20910
862.183	21017
862.315	21028
862.447	21100
862.58	21001
862.712	20952
862.844	20765
862.976	20895
863.108	20857
863.24	21397
863.372	20788
863.504	20880
863.636	20906
863.768	20830
863.9	20868
864.032	20800
864.164	20914
864.296	20902
864.428	20925
864.559	20960
864.691	21077
864.823	20842
864.954	20735
865.086	20796
865.217	20804
865.349	20663
865.48	20712
865.612	20758
865.743	20994
865.875	20716
866.006	20724
866.137	20727
866.269	20773
866.4	20663
866.531	20693
866.662	20743
866.793	20617
866.924	20708
867.055	20705
867.186	20670
867.317	20621
867.448	20454
867.579	20629
867.71	20621
867.841	20621
867.972	20708
868.103	20625
868.233	20712
868.364	20613
868.495	20712
868.625	20864
868.756	20918
868.886	20868
869.017	21005
869.147	20948
869.278	21165
869.408	21013
869.539	20998
869.669	20994
869.799	21039
869.929	21005
870.06	21020
870.19	21184
870.32	21051
870.45	21275
870.58	21329
870.71	21443
870.84	21325
870.97	21268
871.1	21332
871.23	21416
871.36	21408
871.489	21359
871.619	21549
871.749	21492
871.879	21553
872.008	21511
872.138	21511
872.267	21511
872.397	21329
872.526	21367
872.656	21420
872.785	21294
872.915	21511
873.044	21724
873.173	21523
873.303	21530
873.432	21599
873.561	21641
873.69	21534
873.819	21660
873.948	21606
874.077	21504
874.206	21424
874.335	21675
874.464	21644
874.593	21873
874.722	21762
874.851	21808
874.979	21827
875.108	21854
875.237	21759
875.365	21595
875.494	21739
875.623	21945
875.751	21766
875.88	21816
876.008	21972
876.136	21865
876.265	22154
876.393	22265
876.521	22207
876.65	22249
876.778	22116
876.906	22048
877.034	22051
877.162	22074
877.29	22059
877.418	22093
877.546	22253
877.674	22131
877.802	22032
877.93	22032
878.058	22082
878.185	22055
878.313	22040
878.441	22166
878.568	21918
878.696	22078
878.824	22139
878.951	22177
879.079	22272
879.206	22390
879.333	22261
879.461	22181
879.588	22329
879.715	22299
879.842	22470
879.97	22287
880.097	21915
880.224	21968
880.351	21949
880.478	21968
880.605	21797
880.732	22010
880.859	22093
880.986	21918
881.112	22017
881.239	21831
881.366	21656
881.493	21606
881.619	21580
881.746	21534
881.872	21370
881.999	21416
882.125	21477
882.252	21587
882.378	21564
882.505	21587
882.631	21515
882.757	21275
882.883	21268
883.01	21180
883.136	21245
883.262	21135
883.388	21055
883.514	21188
883.64	21203
883.766	21310
883.892	21009
884.018	20998
884.143	21207
884.269	21195
884.395	20815
884.52	20708
884.646	20902
884.772	20796
884.897	20834
885.023	20895
885.148	20975
885.274	20975
885.399	20941
885.524	20792
885.65	20914
885.775	20834
885.9	20963
886.025	20967
886.15	20975
886.275	20819
886.4	20750
886.525	20777
886.65	20853
886.775	20754
886.9	20857
887.025	20990
887.149	20891
887.274	20598
887.399	20644
887.523	20621
887.648	20579
887.773	20427
887.897	20712
888.021	20674
888.146	20530
888.27	20659
888.395	20739
888.519	20743
888.643	20670
888.767	20762
888.891	20682
889.015	20507
889.139	20415
889.263	20473
889.387	20511
889.511	20659
889.635	20552
889.759	20385
889.883	20347
890.006	20431
890.13	20541
890.254	20415
890.377	20336
890.501	20183
890.624	20172
890.748	20195
890.871	20043
890.995	20062
891.118	19997
891.241	20039
891.364	20054
891.488	20084
891.611	19955
891.734	19951
891.857	20024
891.98	19986
892.103	20043
892.226	19993
892.349	19989
892.471	19746
892.594	20092
892.717	19997
892.839	19951
892.962	19826
893.085	19989
893.207	19947
893.33	19902
893.452	19826
893.575	19978
893.697	19807
893.819	19978
893.941	20024
894.064	20050
894.186	19879
894.308	19837
894.43	19879
894.552	20050
894.674	19860
894.796	19852
894.918	19753
895.04	19887
895.161	19944
895.283	19940
895.405	19845
895.526	19864
895.648	19925
895.769	19940
895.891	20001
896.012	20008
896.134	20077
896.255	19982
896.376	19932
896.498	19902
896.619	19887
896.74	19864
896.861	20005
896.982	20191
897.103	20351
897.224	20103
897.345	20259
897.466	20058
897.587	20092
897.708	20389
897.828	20256
897.949	20183
898.07	19982
898.19	20149
898.311	20248
898.431	20100
898.552	20161
898.672	20187
898.792	20301
898.913	20149
899.033	20065
899.153	19955
899.273	19750
899.393	19814
899.513	20046
899.633	19921
899.753	19917
899.873	19833
899.993	19963
900.113	19811
900.232	19845
900.352	19898
900.472	19780
900.591	19704
900.711	19655
900.83	19563
900.95	19841
901.069	19803
901.189	19586
901.308	19327
901.427	19297
901.546	19251
901.665	19324
901.784	19327
901.904	19107
902.023	19031
902.141	18833
902.26	18772
902.379	18863
902.498	18772
902.617	18745
902.735	18776
902.854	18753
902.973	18673
903.091	18357
903.21	18376
903.328	18448
903.446	18399
903.565	18311
903.683	18148
903.801	18220
903.919	18235
904.038	18114
904.156	17961
904.274	18076
904.392	17992
904.51	17958
904.627	18026
904.745	18144
904.863	18098
904.981	17748
905.098	17767
905.216	17604
905.334	17733
905.451	17786
905.569	17722
905.686	17726
905.803	17691
905.921	17585
906.038	17528
906.155	17463
906.272	17364
906.389	17425
906.506	17299
906.623	17216
906.74	17334
906.857	17170
906.974	17105
907.091	17277
907.208	17273
907.324	17246
907.441	17064
907.557	16942
907.674	16930
907.79	16961
907.907	16980
908.023	16991
908.139	16949
908.256	16934
908.372	16889
908.488	16839
908.604	16626
908.72	16584
908.836	16706
908.952	16634
909.068	16675
909.184	16706
909.3	16740
909.415	16656
909.531	16637
909.647	16462
909.762	16424
909.878	16356
909.993	16348
910.108	16299
910.224	16299
910.339	16360
910.454	16204
910.57	16242
910.685	16150
910.8	16470
910.915	16261
911.03	16348
911.145	16048
911.259	16051
911.374	15960
911.489	15869
911.604	15785
911.718	15755
911.833	15728
911.947	15610
912.062	15568
912.176	15648
912.291	15762
912.405	15800
912.519	15991
912.633	15899
912.748	15751
912.862	15690
912.976	15507
913.09	15389
913.204	15534
913.318	15447
913.431	15599
913.545	15660
913.659	15595
913.772	15401
913.886	15363
914	15332
914.113	15389
914.226	15408
914.34	15397
914.453	15256
914.566	15393
914.68	15272
914.793	15222
914.906	15020
915.019	14967
915.132	14963
915.245	14948
915.358	14944
915.47	15024
915.583	15001
915.696	14910
915.809	15055
915.921	14994
916.034	15013
916.146	14891
916.259	14815
916.371	14921
916.483	14963
916.595	14750
916.708	14743
916.82	14834
916.932	14769
917.044	14674
917.156	14792
917.268	14682
917.38	14636
917.491	14537
917.603	14564
917.715	14583
917.826	14670
917.938	14526
918.049	14446
918.161	14556
918.272	14731
918.384	14636
918.495	14480
918.606	14377
918.717	14454
918.828	14419
918.939	14389
919.05	14278
919.161	14393
919.272	14153
919.383	14225
919.494	14389
919.604	14594
919.715	14385
919.826	14294
919.936	14298
920.047	14320
920.157	14385
920.267	14480
920.378	14351
920.488	14385
920.598	14583
920.708	14693
920.818	14552
920.928	14488
921.038	14716
921.148	14678
921.258	14237
921.368	14180
921.477	14218
921.587	14107
921.697	13921
921.806	14138
921.916	13982
922.025	13814
922.134	13807
922.244	13719
922.353	13712
922.462	13643
922.571	13567
922.68	13419
922.789	13327
922.898	13327
923.007	13339
923.116	13365
923.224	13365
923.333	13304
923.442	13225
923.55	13194
923.659	13240
923.767	13282
923.876	13179
923.984	13194
924.092	13209
924.201	13236
924.309	13088
924.417	13080
924.525	13061
924.633	13114
924.741	14005
924.849	12757
924.956	13057
925.064	12894
925.172	12802
925.279	12772
925.387	12760
925.494	12795
925.602	12863
925.709	12829
925.816	12749
925.924	12734
926.031	12897
926.138	12711
926.245	12791
926.352	12673
926.459	12821
926.566	12844
926.673	12631
926.779	12540
926.886	12589
926.993	12407
927.099	12494
927.206	12342
927.312	12308
927.419	12448
927.525	12338
927.631	12467
927.737	12254
927.843	12254
927.95	12121
928.056	12182
928.162	12190
928.267	12216
928.373	12833
928.479	12308
928.585	11961
928.69	12201
928.796	12140
928.901	12117
929.007	11904
929.112	12007
929.218	12034
929.323	11942
929.428	11874
929.533	12098
929.638	11863
929.743	11969
929.848	11977
929.953	11912
930.058	11779
930.163	11672
930.267	11634
930.372	11802
930.477	11611
930.581	11878
930.685	11657
930.79	11535
930.894	11539
930.998	11490
931.103	11589
931.207	11303
931.311	11151
931.415	11060
931.519	10885
931.623	10828
