Data from test_V78500241_3338.txt Node
Date: Fri Mar 25 16:04:55 CST 2022
User: usil
Spectrometer: V785-0024
Trigger mode: 0
Integration Time (sec): 4.000000E-1
Scans to average: 1
Nonlinearity correction enabled: false
Boxcar width: 0
Storing dark spectrum: false
XAxis mode: Wavelengths
Number of Pixels in Spectrum: 1024
>>>>>Begin Spectral Data<<<<<
801.071	28904
801.214	28900
801.356	28660
801.499	28561
801.641	28535
801.783	28531
801.926	28512
802.068	28455
802.211	28348
802.353	28447
802.496	28185
802.638	28226
802.78	28093
802.923	28063
803.065	28105
803.208	28093
803.35	28200
803.492	28443
803.635	28234
803.777	28265
803.919	28360
804.061	28637
804.204	28417
804.346	28584
804.488	28257
804.63	28493
804.773	28409
804.915	28497
805.057	28596
805.199	28485
805.341	28459
805.483	28656
805.626	28455
805.768	28512
805.91	28508
806.052	28565
806.194	28641
806.336	28698
806.478	28618
806.62	28706
806.762	28752
806.904	28831
807.046	29113
807.188	29018
807.33	29079
807.472	29174
807.614	29098
807.756	29083
807.898	28911
808.04	28748
808.182	28763
808.324	28793
808.465	28980
808.607	29181
808.749	29121
808.891	29318
809.033	29345
809.174	29402
809.316	29330
809.458	29364
809.6	29273
809.741	29395
809.883	29493
810.025	29570
810.166	29573
810.308	29657
810.45	29604
810.591	29493
810.733	29349
810.875	29227
811.016	29299
811.158	29071
811.299	29497
811.441	29531
811.582	29425
811.724	29440
811.865	29383
812.007	29280
812.148	29360
812.29	29421
812.431	29501
812.573	29687
812.714	29741
812.855	29824
812.997	30018
813.138	30015
813.279	29866
813.421	29859
813.562	29771
813.703	29737
813.845	29760
813.986	29303
814.127	29018
814.268	29067
814.41	29060
814.551	29025
814.692	29083
814.833	28797
814.974	28927
815.115	29037
815.256	28999
815.397	28946
815.539	28881
815.68	28847
815.821	28767
815.962	28843
816.103	28820
816.244	28816
816.385	28710
816.526	28634
816.666	28451
816.807	28272
816.948	28367
817.089	28485
817.23	28242
817.371	28459
817.512	28493
817.653	28436
817.793	28352
817.934	28272
818.075	28337
818.216	28371
818.356	28363
818.497	28112
818.638	28059
818.778	28147
818.919	28090
819.06	28185
819.2	28303
819.341	28303
819.481	28436
819.622	28519
819.762	28679
819.903	28637
820.043	28565
820.184	28455
820.324	28474
820.465	28565
820.605	28542
820.746	28508
820.886	28295
821.026	28462
821.167	28481
821.307	28565
821.447	28371
821.588	28299
821.728	28139
821.868	28040
822.008	27876
822.149	27827
822.289	27926
822.429	27603
822.569	27530
822.709	27545
822.849	27412
822.99	27374
823.13	27287
823.27	27268
823.41	27211
823.55	27116
823.69	27116
823.83	27188
823.97	27112
824.11	27028
824.25	26902
824.389	26929
824.529	27066
824.669	26986
824.809	27146
824.949	27085
825.089	27108
825.228	27096
825.368	26921
825.508	26864
825.648	27013
825.787	26921
825.927	26994
826.067	26826
826.206	26880
826.346	26899
826.485	27005
826.625	26925
826.765	27051
826.904	26876
827.044	26792
827.183	26781
827.323	26625
827.462	26686
827.601	26617
827.741	26583
827.88	26644
828.02	26518
828.159	26697
828.298	26556
828.437	26613
828.577	26629
828.716	26716
828.855	26412
828.994	26195
829.134	26320
829.273	26408
829.412	26138
829.551	26149
829.69	26290
829.829	26161
829.968	26419
830.107	26377
830.246	26419
830.385	26328
830.524	26358
830.663	26149
830.802	25955
830.941	25932
831.08	25837
831.219	26008
831.357	26145
831.496	26088
831.635	25864
831.774	25890
831.913	25807
832.051	25708
832.19	25765
832.329	25696
832.467	25632
832.606	25594
832.744	25601
832.883	25567
833.022	25472
833.16	25510
833.299	25575
833.437	25628
833.576	25727
833.714	25647
833.852	25788
833.991	25700
834.129	25761
834.267	25715
834.406	25689
834.544	25750
834.682	25655
834.821	25597
834.959	25826
835.097	25544
835.235	25639
835.373	25761
835.511	25590
835.65	25476
835.788	25533
835.926	25403
836.064	25278
836.202	25251
836.34	25472
836.478	25537
836.615	25445
836.753	25419
836.891	25647
837.029	25392
837.167	25449
837.305	25362
837.443	25373
837.58	25327
837.718	25381
837.856	25343
837.993	25263
838.131	25358
838.269	25255
838.406	25240
838.544	25050
838.681	24970
838.819	24962
838.956	24768
839.094	24779
839.231	24810
839.369	25008
839.506	25023
839.643	25069
839.781	24863
839.918	24722
840.055	24795
840.193	24635
840.33	24627
840.467	24650
840.604	24696
840.742	24935
840.879	24418
841.016	24574
841.153	24536
841.29	24810
841.427	24585
841.564	24734
841.701	24570
841.838	24620
841.975	24460
842.112	24528
842.249	24616
842.385	24513
842.522	24639
842.659	24448
842.796	24464
842.933	24342
843.069	24372
843.206	24426
843.343	24365
843.479	24521
843.616	24289
843.752	24270
843.889	24258
844.025	24323
844.162	24213
844.298	24270
844.435	24235
844.571	24125
844.708	24266
844.844	24471
844.98	24346
845.117	24384
845.253	24098
845.389	24167
845.525	24140
845.661	24018
845.798	23855
845.934	23882
846.07	23805
846.206	23870
846.342	24125
846.478	23897
846.614	23745
846.75	23687
846.886	23520
847.022	23672
847.158	23695
847.294	23611
847.429	23585
847.565	23627
847.701	23954
847.837	23452
847.972	23337
848.108	23509
848.244	23493
848.379	23356
848.515	23181
848.65	23170
848.786	23242
848.921	23246
849.057	23372
849.192	23326
849.328	23246
849.463	23204
849.598	23269
849.734	23261
849.869	23014
850.004	23094
850.14	23022
850.275	23067
850.41	22885
850.545	22885
850.68	22908
850.815	23052
850.95	22938
851.085	23227
851.22	23140
851.355	23094
851.49	23018
851.625	23098
851.76	22938
851.895	22885
852.03	22854
852.165	22930
852.299	22889
852.434	22942
852.569	23041
852.703	22999
852.838	23006
852.973	23006
853.107	23006
853.242	23022
853.376	22854
853.511	22790
853.645	22831
853.78	23033
853.914	22805
854.048	22725
854.183	22782
854.317	22949
854.451	23086
854.585	22805
854.72	22759
854.854	22862
854.988	22839
855.122	22854
855.256	22805
855.39	22721
855.524	22816
855.658	22790
855.792	22850
855.926	22801
856.06	22854
856.194	22980
856.327	22778
856.461	22740
856.595	22733
856.729	22725
856.862	22949
856.996	22839
857.13	22930
857.263	23025
857.397	22900
857.53	22847
857.664	22831
857.797	22877
857.931	22942
858.064	22816
858.197	23018
858.331	22816
858.464	22877
858.597	22816
858.731	22748
858.864	22740
858.997	22881
859.13	22862
859.263	22904
859.396	22786
859.529	22961
859.662	22763
859.795	22828
859.928	22843
860.061	22957
860.194	23048
860.327	22828
860.46	22797
860.592	22984
860.725	23014
860.858	22923
860.99	22755
861.123	22675
861.256	22740
861.388	22809
861.521	23493
861.653	22782
861.786	22546
861.918	22637
862.05	22733
862.183	22729
862.315	22713
862.447	22850
862.58	22683
862.712	22531
862.844	22565
862.976	22588
863.108	22672
863.24	22869
863.372	22500
863.504	22599
863.636	22516
863.768	22596
863.9	22656
864.032	22489
864.164	22542
864.296	22580
864.428	22706
864.559	22531
864.691	22561
864.823	22577
864.954	22485
865.086	22421
865.217	22451
865.349	22341
865.48	22360
865.612	22398
865.743	22493
865.875	22516
866.006	22557
866.137	22398
866.269	22367
866.4	22455
866.531	22261
866.662	22219
866.793	22226
866.924	22360
867.055	22306
867.186	22337
867.317	22325
867.448	22238
867.579	22291
867.71	22428
867.841	22223
867.972	22310
868.103	22325
868.233	22341
868.364	22253
868.495	22451
868.625	22470
868.756	22733
868.886	22516
869.017	22580
869.147	22698
869.278	22607
869.408	22565
869.539	22573
869.669	22653
869.799	22611
869.929	22752
870.06	22622
870.19	22923
870.32	22957
870.45	22915
870.58	22976
870.71	23056
870.84	23041
870.97	22835
871.1	23014
871.23	23227
871.36	23067
871.489	23056
871.619	23071
871.749	23098
871.879	23303
872.008	23223
872.138	23098
872.267	23185
872.397	22995
872.526	23037
872.656	23041
872.785	23003
872.915	23360
873.044	23227
873.173	23280
873.303	23216
873.432	23269
873.561	23330
873.69	23181
873.819	23231
873.948	23246
874.077	23124
874.206	23223
874.335	23094
874.464	23269
874.593	23379
874.722	23212
874.851	23421
874.979	23455
875.108	23459
875.237	23364
875.365	23250
875.494	23512
875.623	23493
875.751	23463
875.88	23478
876.008	23551
876.136	23573
876.265	23604
876.393	23946
876.521	23786
876.65	24038
876.778	23786
876.906	23813
877.034	23604
877.162	23722
877.29	23661
877.418	23794
877.546	23760
877.674	23752
877.802	23668
877.93	23642
878.058	23661
878.185	23646
878.313	23737
878.441	23729
878.568	23539
878.696	23630
878.824	23657
878.951	23927
879.079	23752
879.206	24098
879.333	23992
879.461	23859
879.588	24022
879.715	23813
879.842	23996
879.97	23752
880.097	23543
880.224	23600
880.351	23630
880.478	23512
880.605	23512
880.732	23604
880.859	23817
880.986	23615
881.112	23646
881.239	23493
881.366	23315
881.493	23185
881.619	23250
881.746	23083
881.872	23090
881.999	23094
882.125	23056
882.252	23064
882.378	23136
882.505	23170
882.631	23003
882.757	22828
882.883	22927
883.01	22645
883.136	22797
883.262	22706
883.388	22660
883.514	22809
883.64	22885
883.766	22755
883.892	22546
884.018	22451
884.143	22736
884.269	22763
884.395	22535
884.52	22318
884.646	22497
884.772	22299
884.897	22367
885.023	22432
885.148	22394
885.274	22649
885.399	22588
885.524	22451
885.65	22470
885.775	22405
885.9	22280
886.025	22596
886.15	22447
886.275	22284
886.4	22500
886.525	22409
886.65	22192
886.775	22352
886.9	22516
887.025	22569
887.149	22291
887.274	22341
887.399	22120
887.523	22093
887.648	22181
887.773	21983
887.897	22223
888.021	22432
888.146	22036
888.27	22253
888.395	22131
888.519	22234
888.643	22196
888.767	22246
888.891	22093
889.015	21911
889.139	22131
889.263	21857
889.387	22116
889.511	22215
889.635	22139
889.759	21953
889.883	21964
890.006	21960
890.13	21964
890.254	21899
890.377	21762
890.501	21717
890.624	21576
890.748	21701
890.871	21713
890.995	21572
891.118	21564
891.241	21515
891.364	21507
891.488	21583
891.611	21462
891.734	21515
891.857	21572
891.98	21523
892.103	21545
892.226	21561
892.349	21481
892.471	21256
892.594	21405
892.717	21447
892.839	21500
892.962	21450
893.085	21370
893.207	21382
893.33	21226
893.452	21260
893.575	21477
893.697	21275
893.819	21705
893.941	21511
894.064	21496
894.186	21199
894.308	21264
894.43	21492
894.552	21504
894.674	21507
894.796	21283
894.918	21412
895.04	21275
895.161	21367
895.283	21428
895.405	21374
895.526	21397
895.648	21363
895.769	21393
895.891	21374
896.012	21420
896.134	21431
896.255	21443
896.376	21310
896.498	21382
896.619	21313
896.74	21367
896.861	21477
896.982	21690
897.103	21838
897.224	21633
897.345	21603
897.466	21549
897.587	21606
897.708	21713
897.828	21629
897.949	21557
898.07	21488
898.19	21538
898.311	21682
898.431	21473
898.552	21466
898.672	21542
898.792	21652
898.913	21500
899.033	21458
899.153	21241
899.273	21188
899.393	21397
899.513	21310
899.633	21298
899.753	21325
899.873	21237
899.993	21283
900.113	21184
900.232	21161
900.352	21165
900.472	21085
900.591	21043
900.711	21066
900.83	20876
900.95	21154
901.069	21070
901.189	20876
901.308	20708
901.427	20450
901.546	20659
901.665	20495
901.784	20648
901.904	20446
902.023	20298
902.141	20172
902.26	20119
902.379	20221
902.498	20081
902.617	20020
902.735	20103
902.854	20096
902.973	19989
903.091	19765
903.21	19700
903.328	19849
903.446	19601
903.565	19514
903.683	19457
903.801	19350
903.919	19449
904.038	19472
904.156	19316
904.274	19373
904.392	19327
904.51	19293
904.627	19289
904.745	19228
904.863	19320
904.981	19152
905.098	18897
905.216	19034
905.334	19076
905.451	19050
905.569	18890
905.686	19061
905.803	19012
905.921	18726
906.038	18825
906.155	18833
906.272	18719
906.389	18692
906.506	18555
906.623	18464
906.74	18593
906.857	18308
906.974	18395
907.091	18464
907.208	18597
907.324	18483
907.441	18380
907.557	18254
907.674	18190
907.79	18186
907.907	18190
908.023	18235
908.139	18251
908.256	18155
908.372	18098
908.488	17992
908.604	17904
908.72	17840
908.836	17946
908.952	17904
909.068	17882
909.184	17980
909.3	17992
909.415	17870
909.531	17832
909.647	17718
909.762	17558
909.878	17604
909.993	17627
910.108	17516
910.224	17611
910.339	17486
910.454	17486
910.57	17490
910.685	17398
910.8	17611
910.915	17528
911.03	17417
911.145	17330
911.259	17151
911.374	17261
911.489	17181
911.604	17128
911.718	16953
911.833	16953
911.947	16889
912.062	16847
912.176	16938
912.291	17048
912.405	16946
912.519	17109
912.633	17102
912.748	16965
912.862	16881
912.976	16725
913.09	16592
913.204	16683
913.318	16641
913.431	16729
913.545	16771
913.659	16866
913.772	16702
913.886	16470
914	16535
914.113	16588
914.226	16577
914.34	16649
914.453	16421
914.566	16523
914.68	16424
914.793	16341
914.906	16173
915.019	16093
915.132	16044
915.245	16082
915.358	16029
915.47	16040
915.583	16093
915.696	16166
915.809	16192
915.921	16238
916.034	16078
916.146	15892
916.259	16032
916.371	16147
916.483	15987
916.595	15960
916.708	15865
916.82	15907
916.932	15823
917.044	15895
917.156	15804
917.268	15667
917.38	15724
917.491	15660
917.603	15724
917.715	15842
917.826	15751
917.938	15641
918.049	15603
918.161	15652
918.272	15823
918.384	15739
918.495	15633
918.606	15481
918.717	15378
918.828	15344
918.939	15488
919.05	15332
919.161	15435
919.272	15123
919.383	15332
919.494	15515
919.604	15542
919.715	15458
919.826	15241
919.936	15325
920.047	15530
920.157	15294
920.267	15625
920.378	15401
920.488	15450
920.598	15496
920.708	15728
920.818	15534
920.928	15519
921.038	15671
921.148	15618
921.258	15344
921.368	15226
921.477	15161
921.587	15043
921.697	14941
921.806	15093
921.916	14944
922.025	14826
922.134	14754
922.244	14708
922.353	14929
922.462	14617
922.571	14587
922.68	14389
922.789	14317
922.898	14374
923.007	14339
923.116	14366
923.224	14294
923.333	14324
923.442	14256
923.55	14180
923.659	14237
923.767	14286
923.876	14130
923.984	14320
924.092	14130
924.201	14183
924.309	14130
924.417	14157
924.525	13928
924.633	14020
924.741	14956
924.849	13830
924.956	13906
925.064	13814
925.172	13597
925.279	13731
925.387	13750
925.494	13757
925.602	13811
925.709	13757
925.816	13571
925.924	13639
926.031	13845
926.138	13734
926.245	13700
926.352	13559
926.459	13689
926.566	13734
926.673	13677
926.779	13487
926.886	13480
926.993	13365
927.099	13259
927.206	13266
927.312	13187
927.419	13403
927.525	13266
927.631	13293
927.737	13202
927.843	13107
927.95	13050
928.056	13053
928.162	13183
928.267	13168
928.373	13696
928.479	13099
928.585	12920
928.69	13027
928.796	13038
928.901	12981
929.007	12806
929.112	12958
929.218	12996
929.323	12791
929.428	12772
929.533	12867
929.638	12688
929.743	12772
929.848	12726
929.953	12772
930.058	12681
930.163	12399
930.267	12479
930.372	12517
930.477	12399
930.581	12688
930.685	12498
930.79	12361
930.894	12391
930.998	12319
931.103	12483
931.207	12125
931.311	11977
931.415	11882
931.519	11786
931.623	11741
