Data from test_V78500241_1093.txt Node
Date: Fri Mar 25 15:49:22 CST 2022
User: usil
Spectrometer: V785-0024
Trigger mode: 0
Integration Time (sec): 4.000000E-1
Scans to average: 1
Nonlinearity correction enabled: false
Boxcar width: 0
Storing dark spectrum: false
XAxis mode: Wavelengths
Number of Pixels in Spectrum: 1024
>>>>>Begin Spectral Data<<<<<
801.071	28462
801.214	28295
801.356	28013
801.499	28040
801.641	28093
801.783	27865
801.926	28078
802.068	27964
802.211	28006
802.353	27793
802.496	27652
802.638	27682
802.78	27633
802.923	27462
803.065	27538
803.208	27408
803.35	27614
803.492	27690
803.635	27953
803.777	27789
803.919	27873
804.061	28306
804.204	28006
804.346	27762
804.488	27751
804.63	27823
804.773	27789
804.915	27766
805.057	27914
805.199	27835
805.341	27918
805.483	28025
805.626	28074
805.768	27880
805.91	27956
806.052	28002
806.194	28017
806.336	28299
806.478	28048
806.62	28112
806.762	28204
806.904	28329
807.046	28538
807.188	28481
807.33	28504
807.472	28565
807.614	28261
807.756	28508
807.898	28459
808.04	28325
808.182	28371
808.324	28238
808.465	28440
808.607	28577
808.749	28740
808.891	28774
809.033	28820
809.174	28828
809.316	28759
809.458	28634
809.6	28523
809.741	28755
809.883	28824
810.025	29060
810.166	29003
810.308	29204
810.45	29064
810.591	28995
810.733	28805
810.875	28596
811.016	28573
811.158	28577
811.299	28805
811.441	29033
811.582	28957
811.724	28793
811.865	28869
812.007	28786
812.148	28691
812.29	28725
812.431	28843
812.573	29098
812.714	29170
812.855	29292
812.997	29288
813.138	29368
813.279	29417
813.421	29273
813.562	29360
813.703	29025
813.845	29014
813.986	28710
814.127	28584
814.268	28432
814.41	28519
814.551	28440
814.692	28592
814.833	28382
814.974	28565
815.115	28596
815.256	28204
815.397	28352
815.539	28306
815.68	28135
815.821	28219
815.962	28306
816.103	28230
816.244	28162
816.385	28032
816.526	28006
816.666	27854
816.807	27728
816.948	27812
817.089	27842
817.23	27770
817.371	27682
817.512	27648
817.653	27736
817.793	27675
817.934	27751
818.075	27743
818.216	27846
818.356	27648
818.497	27599
818.638	27401
818.778	27534
818.919	27553
819.06	27606
819.2	27656
819.341	27705
819.481	27808
819.622	27865
819.762	28158
819.903	27979
820.043	27884
820.184	27842
820.324	27743
820.465	28063
820.605	27827
820.746	27846
820.886	27686
821.026	27979
821.167	27785
821.307	27907
821.447	27781
821.588	27850
821.728	27572
821.868	27348
822.008	27302
822.149	27207
822.289	27233
822.429	26864
822.569	26918
822.709	26971
822.849	26830
822.99	26815
823.13	26743
823.27	26625
823.41	26629
823.55	26423
823.69	26511
823.83	26644
823.97	26465
824.11	26438
824.25	26275
824.389	26385
824.529	26446
824.669	26351
824.809	26606
824.949	26507
825.089	26526
825.228	26457
825.368	26263
825.508	26267
825.648	26267
825.787	26263
825.927	26358
826.067	26275
826.206	26180
826.346	26294
826.485	26393
826.625	26313
826.765	26301
826.904	26309
827.044	26161
827.183	26119
827.323	25951
827.462	25951
827.601	26039
827.741	25970
827.88	26046
828.02	25833
828.159	26027
828.298	26081
828.437	26020
828.577	25925
828.716	26100
828.855	25799
828.994	25586
829.134	25556
829.273	25708
829.412	25784
829.551	25639
829.69	25723
829.829	25662
829.968	25795
830.107	25750
830.246	25674
830.385	25616
830.524	25655
830.663	25502
830.802	25453
830.941	25141
831.08	25278
831.219	25297
831.357	25441
831.496	25499
831.635	25346
831.774	25160
831.913	25152
832.051	25095
832.19	25038
832.329	25118
832.467	25076
832.606	24913
832.744	24973
832.883	24970
833.022	24970
833.16	24844
833.299	24954
833.437	24943
833.576	25164
833.714	24928
833.852	25103
833.991	24871
834.129	25053
834.267	25122
834.406	25046
834.544	25031
834.682	25023
834.821	25004
834.959	25114
835.097	25019
835.235	25027
835.373	24985
835.511	24901
835.65	24905
835.788	24871
835.926	24703
836.064	24616
836.202	24700
836.34	24890
836.478	24753
836.615	24730
836.753	24856
836.891	24905
837.029	24875
837.167	24776
837.305	24688
837.443	24665
837.58	24696
837.718	24711
837.856	24753
837.993	24566
838.131	24597
838.269	24578
838.406	24753
838.544	24547
838.681	24350
838.819	24338
838.956	24049
839.094	24144
839.231	24064
839.369	24292
839.506	24544
839.643	24414
839.781	24163
839.918	24114
840.055	24098
840.193	24140
840.33	24076
840.467	24076
840.604	24117
840.742	24330
840.879	23847
841.016	24003
841.153	23950
841.29	23992
841.427	24041
841.564	23980
841.701	24038
841.838	23893
841.975	23950
842.112	23939
842.249	23999
842.385	23802
842.522	24095
842.659	23847
842.796	23687
842.933	23836
843.069	23642
843.206	23714
843.343	23790
843.479	23809
843.616	23703
843.752	23478
843.889	23668
844.025	23786
844.162	23520
844.298	23676
844.435	23589
844.571	23478
844.708	23634
844.844	23726
844.98	23672
845.117	23596
845.253	23531
845.389	23402
845.525	23501
845.661	23402
845.798	23235
845.934	23345
846.07	23349
846.206	23277
846.342	23379
846.478	23170
846.614	23159
846.75	22923
846.886	22938
847.022	23105
847.158	23079
847.294	23029
847.429	23071
847.565	22965
847.701	23277
847.837	22733
847.972	22733
848.108	22904
848.244	22782
848.379	22736
848.515	22634
848.65	22512
848.786	22618
848.921	22691
849.057	22721
849.192	22713
849.328	22759
849.463	22713
849.598	22447
849.734	22466
849.869	22523
850.004	22341
850.14	22436
850.275	22348
850.41	22299
850.545	22352
850.68	22268
850.815	22436
850.95	22352
851.085	22569
851.22	22554
851.355	22500
851.49	22276
851.625	22405
851.76	22470
851.895	22242
852.03	22238
852.165	22478
852.299	22341
852.434	22413
852.569	22360
852.703	22447
852.838	22367
852.973	22519
853.107	22455
853.242	22363
853.376	22135
853.511	22150
853.645	22074
853.78	22173
853.914	22284
854.048	22139
854.183	22002
854.317	22166
854.451	22440
854.585	22192
854.72	22128
854.854	22287
854.988	22200
855.122	22158
855.256	22109
855.39	22131
855.524	22242
855.658	22188
855.792	22166
855.926	22223
856.06	22367
856.194	22291
856.327	22287
856.461	22143
856.595	22093
856.729	22200
856.862	22280
856.996	22223
857.13	22310
857.263	22318
857.397	22360
857.53	22131
857.664	22314
857.797	22242
857.931	22333
858.064	22192
858.197	22291
858.331	22234
858.464	22234
858.597	22082
858.731	22207
858.864	22147
858.997	22169
859.13	22162
859.263	22276
859.396	22280
859.529	22124
859.662	22211
859.795	22196
859.928	22230
860.061	22375
860.194	22322
860.327	22215
860.46	22322
860.592	22382
860.725	22447
860.858	22386
860.99	22188
861.123	22185
861.256	22207
861.388	22253
861.521	22946
861.653	22207
861.786	22029
861.918	21987
862.05	22120
862.183	22131
862.315	22200
862.447	22196
862.58	22120
862.712	21953
862.844	21747
862.976	22002
863.108	21998
863.24	22417
863.372	21797
863.504	21831
863.636	21873
863.768	21926
863.9	21884
864.032	21838
864.164	21911
864.296	21930
864.428	22017
864.559	21960
864.691	21972
864.823	21888
864.954	21907
865.086	21823
865.217	21838
865.349	21701
865.48	21724
865.612	21804
865.743	21922
865.875	21781
866.006	21854
866.137	21778
866.269	21827
866.4	21785
866.531	21759
866.662	21682
866.793	21679
866.924	21778
867.055	21717
867.186	21831
867.317	21755
867.448	21671
867.579	21781
867.71	21739
867.841	21660
867.972	21762
868.103	21701
868.233	21747
868.364	21838
868.495	21949
868.625	21823
868.756	22090
868.886	21922
869.017	21945
869.147	22070
869.278	22090
869.408	22006
869.539	21964
869.669	22017
869.799	22078
869.929	22223
870.06	22032
870.19	22265
870.32	22352
870.45	22363
870.58	22371
870.71	22466
870.84	22462
870.97	22314
871.1	22329
871.23	22599
871.36	22538
871.489	22519
871.619	22569
871.749	22485
871.879	22706
872.008	22778
872.138	22531
872.267	22569
872.397	22462
872.526	22413
872.656	22455
872.785	22402
872.915	22649
873.044	22763
873.173	22535
873.303	22733
873.432	22664
873.561	22691
873.69	22596
873.819	22497
873.948	22618
874.077	22694
874.206	22592
874.335	22577
874.464	22782
874.593	22790
874.722	22835
874.851	22812
874.979	22866
875.108	22968
875.237	22961
875.365	22713
875.494	22771
875.623	23018
875.751	22763
875.88	22782
876.008	22858
876.136	23022
876.265	23143
876.393	23436
876.521	23261
876.65	23193
876.778	23261
876.906	23086
877.034	23117
877.162	23174
877.29	23098
877.418	23166
877.546	23151
877.674	23060
877.802	23128
877.93	23060
878.058	23064
878.185	23003
878.313	23136
878.441	23128
878.568	22968
878.696	23166
878.824	23185
878.951	23162
879.079	23288
879.206	23562
879.333	23235
879.461	23124
879.588	23189
879.715	23440
879.842	23372
879.97	23242
880.097	22957
880.224	23029
880.351	23029
880.478	22881
880.605	22949
880.732	22972
880.859	23330
880.986	23067
881.112	23014
881.239	22881
881.366	22748
881.493	22611
881.619	22618
881.746	22592
881.872	22466
881.999	22577
882.125	22405
882.252	22557
882.378	22390
882.505	22683
882.631	22314
882.757	22112
882.883	22325
883.01	22242
883.136	22196
883.262	22143
883.388	22067
883.514	22280
883.64	22234
883.766	22200
883.892	22013
884.018	21968
884.143	22162
884.269	22246
884.395	21876
884.52	21759
884.646	21842
884.772	21751
884.897	21759
885.023	21869
885.148	21956
885.274	21953
885.399	22002
885.524	21953
885.65	21930
885.775	21800
885.9	21736
886.025	21972
886.15	21759
886.275	21717
886.4	21823
886.525	21797
886.65	21747
886.775	21743
886.9	21880
887.025	21964
887.149	21895
887.274	21622
887.399	21717
887.523	21648
887.648	21644
887.773	21595
887.897	21690
888.021	21690
888.146	21545
888.27	21713
888.395	21793
888.519	21606
888.643	21633
888.767	21641
888.891	21500
889.015	21340
889.139	21504
889.263	21408
889.387	21629
889.511	21557
889.635	21580
889.759	21310
889.883	21302
890.006	21344
890.13	21561
890.254	21382
890.377	21412
890.501	21146
890.624	20990
890.748	21119
890.871	20998
890.995	21009
891.118	20845
891.241	21009
891.364	20952
891.488	21074
891.611	21047
891.734	21020
891.857	21005
891.98	21028
892.103	20960
892.226	20952
892.349	20933
892.471	20705
892.594	20937
892.717	20960
892.839	20868
892.962	20891
893.085	20914
893.207	20883
893.33	20777
893.452	20689
893.575	20937
893.697	20819
893.819	20971
893.941	21066
894.064	20937
894.186	20762
894.308	20648
894.43	20853
894.552	20902
894.674	20880
894.796	20667
894.918	20769
895.04	20933
895.161	20887
895.283	20815
895.405	20842
895.526	20773
895.648	20845
895.769	20849
895.891	20918
896.012	20944
896.134	20838
896.255	20724
896.376	20887
896.498	20765
896.619	20918
896.74	20891
896.861	20853
896.982	21184
897.103	21256
897.224	20967
897.345	21024
897.466	21066
897.587	21055
897.708	21066
897.828	20986
897.949	21017
898.07	20826
898.19	20948
898.311	21142
898.431	20975
898.552	21009
898.672	21055
898.792	21074
898.913	21055
899.033	20899
899.153	20788
899.273	20689
899.393	20651
899.513	20720
899.633	20823
899.753	20815
899.873	20716
899.993	20743
900.113	20788
900.232	20705
900.352	20678
900.472	20659
900.591	20495
900.711	20613
900.83	20469
900.95	20670
901.069	20655
901.189	20442
901.308	20313
901.427	20126
901.546	20149
901.665	20237
901.784	20199
901.904	19951
902.023	19841
902.141	19791
902.26	19666
902.379	19693
902.498	19639
902.617	19616
902.735	19685
902.854	19582
902.973	19506
903.091	19392
903.21	19293
903.328	19350
903.446	19270
903.565	19137
903.683	19084
903.801	18935
903.919	19061
904.038	18962
904.156	18810
904.274	18878
904.392	18848
904.51	18810
904.627	18901
904.745	18825
904.863	18833
904.981	18703
905.098	18517
905.216	18464
905.334	18532
905.451	18612
905.569	18525
905.686	18525
905.803	18464
905.921	18289
906.038	18338
906.155	18258
906.272	18213
906.389	18228
906.506	18159
906.623	18041
906.74	18022
906.857	17927
906.974	17859
907.091	18019
907.208	18171
907.324	18087
907.441	17916
907.557	17775
907.674	17771
907.79	17684
907.907	17764
908.023	17710
908.139	17733
908.256	17718
908.372	17668
908.488	17653
908.604	17490
908.72	17505
908.836	17547
908.952	17410
909.068	17402
909.184	17535
909.3	17497
909.415	17478
909.531	17493
909.647	17159
909.762	17200
909.878	17102
909.993	17193
910.108	17136
910.224	17117
910.339	17140
910.454	17086
910.57	17102
910.685	16927
910.8	17258
910.915	17094
911.03	16908
911.145	16801
911.259	16812
911.374	16664
911.489	16771
911.604	16630
911.718	16481
911.833	16550
911.947	16421
912.062	16295
912.176	16542
912.291	16466
912.405	16493
912.519	16687
912.633	16649
912.748	16485
912.862	16466
912.976	16329
913.09	16234
913.204	16318
913.318	16291
913.431	16382
913.545	16306
913.659	16428
913.772	16257
913.886	16196
914	16086
914.113	16177
914.226	16207
914.34	16154
914.453	15964
914.566	16006
914.68	15983
914.793	15880
914.906	15732
915.019	15717
915.132	15568
915.245	15606
915.358	15618
915.47	15686
915.583	15633
915.696	15728
915.809	15774
915.921	15816
916.034	15595
916.146	15507
916.259	15504
916.371	15648
916.483	15591
916.595	15614
916.708	15507
916.82	15519
916.932	15492
917.044	15458
917.156	15450
917.268	15313
917.38	15245
917.491	15378
917.603	15332
917.715	15389
917.826	15367
917.938	15367
918.049	15135
918.161	15268
918.272	15466
918.384	15348
918.495	15245
918.606	15116
918.717	14971
918.828	15108
918.939	15100
919.05	14982
919.161	15047
919.272	14804
919.383	14880
919.494	15154
919.604	15230
919.715	15131
919.826	14994
919.936	15047
920.047	15097
920.157	15024
920.267	15127
920.378	15013
920.488	14948
920.598	15127
920.708	15291
920.818	15195
920.928	15097
921.038	15348
921.148	15203
921.258	14910
921.368	14853
921.477	14716
921.587	14720
921.697	14602
921.806	14765
921.916	14579
922.025	14400
922.134	14503
922.244	14351
922.353	14389
922.462	14237
922.571	14214
922.68	14001
922.789	14031
922.898	13982
923.007	13925
923.116	13978
923.224	14008
923.333	13940
923.442	13879
923.55	13833
923.659	13868
923.767	13906
923.876	13742
923.984	13860
924.092	13655
924.201	13734
924.309	13788
924.417	13696
924.525	13670
924.633	13636
924.741	14347
924.849	13362
924.956	13651
925.064	13411
925.172	13358
925.279	13266
925.387	13514
925.494	13445
925.602	13460
925.709	13582
925.816	13285
925.924	13327
926.031	13430
926.138	13354
926.245	13388
926.352	13228
926.459	13324
926.566	13453
926.673	13244
926.779	13187
926.886	13103
926.993	12928
927.099	13019
927.206	13012
927.312	12875
927.419	12977
927.525	12890
927.631	12973
927.737	12890
927.843	12821
927.95	12681
928.056	12779
928.162	12791
928.267	12745
928.373	13441
928.479	12825
928.585	12593
928.69	12688
928.796	12802
928.901	12635
929.007	12532
929.112	12574
929.218	12585
929.323	12513
929.428	12403
929.533	12589
929.638	12429
929.743	12369
929.848	12574
929.953	12456
930.058	12292
930.163	12304
930.267	12182
930.372	12342
930.477	12209
930.581	12429
930.685	12277
930.79	12087
930.894	12106
930.998	12083
931.103	12159
931.207	11824
931.311	11783
931.415	11543
931.519	11414
931.623	11387
