Data from test_V78500241_3181.txt Node
Date: Fri Mar 25 16:03:50 CST 2022
User: usil
Spectrometer: V785-0024
Trigger mode: 0
Integration Time (sec): 4.000000E-1
Scans to average: 1
Nonlinearity correction enabled: false
Boxcar width: 0
Storing dark spectrum: false
XAxis mode: Wavelengths
Number of Pixels in Spectrum: 1024
>>>>>Begin Spectral Data<<<<<
801.071	28615
801.214	28630
801.356	28542
801.499	28333
801.641	28280
801.783	28276
801.926	28314
802.068	28341
802.211	28257
802.353	28276
802.496	28185
802.638	28013
802.78	28105
802.923	27937
803.065	27983
803.208	27888
803.35	28013
803.492	28097
803.635	28272
803.777	28044
803.919	28276
804.061	28523
804.204	28341
804.346	28074
804.488	28341
804.63	28188
804.773	28173
804.915	28257
805.057	28451
805.199	28128
805.341	28280
805.483	28261
805.626	28409
805.768	28325
805.91	28481
806.052	28428
806.194	28299
806.336	28485
806.478	28615
806.62	28451
806.762	28565
806.904	28622
807.046	28957
807.188	28869
807.33	28843
807.472	28824
807.614	28713
807.756	28839
807.898	28759
808.04	28656
808.182	28717
808.324	28645
808.465	28862
808.607	29075
808.749	29181
808.891	29242
809.033	29349
809.174	29102
809.316	29067
809.458	29140
809.6	29193
809.741	29098
809.883	29212
810.025	29315
810.166	29440
810.308	29395
810.45	29398
810.591	29288
810.733	29117
810.875	29098
811.016	29189
811.158	29166
811.299	29311
811.441	29341
811.582	29258
811.724	29277
811.865	29132
812.007	29041
812.148	29204
812.29	29299
812.431	29318
812.573	29528
812.714	29687
812.855	29703
812.997	29611
813.138	29878
813.279	29847
813.421	29642
813.562	29474
813.703	29429
813.845	29269
813.986	29094
814.127	28892
814.268	28911
814.41	28843
814.551	28790
814.692	28908
814.833	28790
814.974	28866
815.115	28847
815.256	28698
815.397	28656
815.539	28744
815.68	28668
815.821	28599
815.962	28763
816.103	28580
816.244	28569
816.385	28356
816.526	28459
816.666	28421
816.807	28265
816.948	28169
817.089	28291
817.23	28147
817.371	28238
817.512	28120
817.653	28230
817.793	27953
817.934	28109
818.075	28219
818.216	28128
818.356	28101
818.497	27987
818.638	27854
818.778	27960
818.919	27892
819.06	28029
819.2	28040
819.341	28135
819.481	28223
819.622	28344
819.762	28489
819.903	28394
820.043	28337
820.184	28276
820.324	28409
820.465	28280
820.605	28287
820.746	28249
820.886	28169
821.026	28253
821.167	28219
821.307	28272
821.447	28215
821.588	28120
821.728	27922
821.868	27701
822.008	27717
822.149	27686
822.289	27701
822.429	27405
822.569	27332
822.709	27397
822.849	27138
822.99	27207
823.13	27100
823.27	27089
823.41	27116
823.55	26925
823.69	27058
823.83	27024
823.97	26933
824.11	26929
824.25	26651
824.389	26724
824.529	26849
824.669	26948
824.809	26956
824.949	26910
825.089	26982
825.228	26773
825.368	26568
825.508	26613
825.648	26826
825.787	26762
825.927	26743
826.067	26712
826.206	26739
826.346	26765
826.485	26868
826.625	26697
826.765	26743
826.904	26712
827.044	26522
827.183	26412
827.323	26374
827.462	26511
827.601	26499
827.741	26396
827.88	26374
828.02	26248
828.159	26290
828.298	26374
828.437	26450
828.577	26358
828.716	26594
828.855	26248
828.994	26096
829.134	26100
829.273	26088
829.412	26054
829.551	26115
829.69	26172
829.829	26073
829.968	26126
830.107	26115
830.246	26107
830.385	25966
830.524	26039
830.663	25940
830.802	25826
830.941	25670
831.08	25597
831.219	25772
831.357	25811
831.496	25879
831.635	25548
831.774	25635
831.913	25476
832.051	25537
832.19	25483
832.329	25472
832.467	25354
832.606	25251
832.744	25156
832.883	25365
833.022	25396
833.16	25449
833.299	25354
833.437	25346
833.576	25426
833.714	25419
833.852	25407
833.991	25563
834.129	25434
834.267	25571
834.406	25449
834.544	25464
834.682	25320
834.821	25411
834.959	25537
835.097	25358
835.235	25548
835.373	25411
835.511	25460
835.65	25247
835.788	25217
835.926	24996
836.064	25000
836.202	25251
836.34	25255
836.478	25350
836.615	25225
836.753	25259
836.891	25331
837.029	25289
837.167	25206
837.305	25076
837.443	25099
837.58	25160
837.718	25160
837.856	25042
837.993	25088
838.131	25099
838.269	24859
838.406	24905
838.544	24958
838.681	24787
838.819	24650
838.956	24563
839.094	24642
839.231	24646
839.369	24821
839.506	24863
839.643	24757
839.781	24582
839.918	24486
840.055	24532
840.193	24540
840.33	24407
840.467	24433
840.604	24597
840.742	24734
840.879	24452
841.016	24388
841.153	24266
841.29	24585
841.427	24532
841.564	24502
841.701	24509
841.838	24483
841.975	24471
842.112	24342
842.249	24270
842.385	24281
842.522	24338
842.659	24205
842.796	24201
842.933	24121
843.069	24247
843.206	24167
843.343	24353
843.479	24213
843.616	24308
843.752	24030
843.889	23992
844.025	24133
844.162	23988
844.298	24003
844.435	23878
844.571	23954
844.708	24110
844.844	24079
844.98	24129
845.117	24114
845.253	24038
845.389	23847
845.525	23889
845.661	23699
845.798	23779
845.934	23798
846.07	23687
846.206	23786
846.342	23802
846.478	23611
846.614	23505
846.75	23383
846.886	23398
847.022	23562
847.158	23615
847.294	23398
847.429	23493
847.565	23531
847.701	23611
847.837	23227
847.972	23121
848.108	23258
848.244	23239
848.379	23166
848.515	23121
848.65	23041
848.786	23086
848.921	23025
849.057	23113
849.192	23056
849.328	22984
849.463	22915
849.598	23018
849.734	22965
849.869	22961
850.004	22805
850.14	22843
850.275	22831
850.41	22660
850.545	22641
850.68	22736
850.815	22896
850.95	22801
851.085	22946
851.22	22873
851.355	22782
851.49	22858
851.625	22691
851.76	22736
851.895	22683
852.03	22721
852.165	22782
852.299	22793
852.434	22774
852.569	22820
852.703	22717
852.838	22847
852.973	22869
853.107	22881
853.242	22805
853.376	22592
853.511	22451
853.645	22618
853.78	22801
853.914	22675
854.048	22603
854.183	22618
854.317	22603
854.451	22824
854.585	22641
854.72	22557
854.854	22565
854.988	22470
855.122	22736
855.256	22504
855.39	22588
855.524	22679
855.658	22744
855.792	22679
855.926	22626
856.06	22546
856.194	22793
856.327	22672
856.461	22561
856.595	22478
856.729	22596
856.862	22721
856.996	22603
857.13	22649
857.263	22744
857.397	22729
857.53	22538
857.664	22698
857.797	22675
857.931	22752
858.064	22626
858.197	22504
858.331	22557
858.464	22523
858.597	22527
858.731	22542
858.864	22546
858.997	22615
859.13	22561
859.263	22668
859.396	22630
859.529	22637
859.662	22493
859.795	22710
859.928	22687
860.061	22725
860.194	22816
860.327	22717
860.46	22645
860.592	22694
860.725	22858
860.858	22687
860.99	22550
861.123	22588
861.256	22538
861.388	22618
861.521	23364
861.653	22382
861.786	22390
861.918	22409
862.05	22367
862.183	22500
862.315	22489
862.447	22607
862.58	22462
862.712	22462
862.844	22268
862.976	22310
863.108	22394
863.24	22744
863.372	22295
863.504	22379
863.636	22386
863.768	22363
863.9	22424
864.032	22253
864.164	22249
864.296	22329
864.428	22375
864.559	22268
864.691	22405
864.823	22413
864.954	22303
865.086	22329
865.217	22310
865.349	22204
865.48	22261
865.612	22211
865.743	22257
865.875	22215
866.006	22166
866.137	22204
866.269	22219
866.4	22124
866.531	22116
866.662	22063
866.793	22120
866.924	22124
867.055	22112
867.186	22116
867.317	22059
867.448	21979
867.579	22078
867.71	22143
867.841	21937
867.972	22150
868.103	22082
868.233	22070
868.364	22135
868.495	22291
868.625	22272
868.756	22447
868.886	22253
869.017	22246
869.147	22432
869.278	22382
869.408	22337
869.539	22268
869.669	22428
869.799	22325
869.929	22394
870.06	22607
870.19	22694
870.32	22557
870.45	22694
870.58	22786
870.71	22763
870.84	22805
870.97	22713
871.1	22721
871.23	22892
871.36	23014
871.489	22961
871.619	22858
871.749	22976
871.879	23048
872.008	23071
872.138	23025
872.267	22980
872.397	22934
872.526	22900
872.656	22873
872.785	22763
872.915	23044
873.044	23102
873.173	22942
873.303	23090
873.432	23132
873.561	23022
873.69	22953
873.819	22828
873.948	23067
874.077	22976
874.206	22968
874.335	22984
874.464	22999
874.593	23299
874.722	23075
874.851	23315
874.979	23212
875.108	23277
875.237	23140
875.365	23079
875.494	23242
875.623	23284
875.751	23216
875.88	23258
876.008	23185
876.136	23326
876.265	23642
876.393	23851
876.521	23558
876.65	23703
876.778	23646
876.906	23486
877.034	23566
877.162	23577
877.29	23531
877.418	23562
877.546	23524
877.674	23474
877.802	23486
877.93	23535
878.058	23421
878.185	23467
878.313	23463
878.441	23448
878.568	23364
878.696	23459
878.824	23573
878.951	23634
879.079	23649
879.206	23794
879.333	23703
879.461	23623
879.588	23592
879.715	23665
879.842	23779
879.97	23589
880.097	23474
880.224	23307
880.351	23402
880.478	23337
880.605	23337
880.732	23322
880.859	23585
880.986	23292
881.112	23421
881.239	23227
881.366	23022
881.493	23075
881.619	22896
881.746	23029
881.872	22968
881.999	22866
882.125	22858
882.252	22866
882.378	22972
882.505	22999
882.631	22752
882.757	22706
882.883	22584
883.01	22519
883.136	22451
883.262	22519
883.388	22360
883.514	22637
883.64	22645
883.766	22398
883.892	22284
884.018	22382
884.143	22409
884.269	22679
884.395	22268
884.52	22226
884.646	22367
884.772	22223
884.897	22097
885.023	22344
885.148	22272
885.274	22310
885.399	22360
885.524	22219
885.65	22188
885.775	22196
885.9	22257
886.025	22291
886.15	22306
886.275	22063
886.4	22093
886.525	22253
886.65	22097
886.775	22162
886.9	22268
887.025	22478
887.149	22090
887.274	22093
887.399	22013
887.523	21979
887.648	22032
887.773	21899
887.897	22040
888.021	21953
888.146	21854
888.27	22097
888.395	22025
888.519	22029
888.643	22040
888.767	21945
888.891	21774
889.015	21701
889.139	21778
889.263	21682
889.387	21869
889.511	21926
889.635	21869
889.759	21854
889.883	21800
890.006	21732
890.13	21869
890.254	21606
890.377	21751
890.501	21496
890.624	21367
890.748	21553
890.871	21488
890.995	21283
891.118	21184
891.241	21237
891.364	21378
891.488	21416
891.611	21310
891.734	21336
891.857	21340
891.98	21275
892.103	21401
892.226	21317
892.349	21325
892.471	21268
892.594	21142
892.717	21302
892.839	21199
892.962	21211
893.085	21260
893.207	21359
893.33	20960
893.452	21138
893.575	21184
893.697	21214
893.819	21272
893.941	21412
894.064	21306
894.186	21142
894.308	21096
894.43	21336
894.552	21355
894.674	21264
894.796	21127
894.918	21116
895.04	21157
895.161	21306
895.283	21184
895.405	21036
895.526	21245
895.648	21192
895.769	21222
895.891	21199
896.012	21119
896.134	21218
896.255	21119
896.376	21062
896.498	21245
896.619	21055
896.74	21230
896.861	21256
896.982	21534
897.103	21481
897.224	21363
897.345	21447
897.466	21268
897.587	21386
897.708	21397
897.828	21443
897.949	21321
898.07	21135
898.19	21154
898.311	21488
898.431	21363
898.552	21370
898.672	21363
898.792	21420
898.913	21336
899.033	21150
899.153	21192
899.273	21055
899.393	21138
899.513	21249
899.633	21108
899.753	21138
899.873	20982
899.993	21222
900.113	21100
900.232	21096
900.352	20971
900.472	20971
900.591	20826
900.711	20941
900.83	20845
900.95	20910
901.069	20921
901.189	20693
901.308	20484
901.427	20457
901.546	20351
901.665	20511
901.784	20434
901.904	20347
902.023	20183
902.141	19974
902.26	19921
902.379	20065
902.498	20008
902.617	20046
902.735	19864
902.854	19826
902.973	19894
903.091	19605
903.21	19643
903.328	19609
903.446	19453
903.565	19415
903.683	19369
903.801	19335
903.919	19346
904.038	19392
904.156	19148
904.274	19152
904.392	19031
904.51	19137
904.627	19095
904.745	19168
904.863	19228
904.981	19000
905.098	18905
905.216	18920
905.334	18802
905.451	18802
905.569	18848
905.686	18856
905.803	18783
905.921	18509
906.038	18711
906.155	18566
906.272	18498
906.389	18513
906.506	18384
906.623	18296
906.74	18292
906.857	18300
906.974	18171
907.091	18330
907.208	18471
907.324	18315
907.441	18163
907.557	18091
907.674	18060
907.79	17984
907.907	17999
908.023	18034
908.139	18053
908.256	18022
908.372	17939
908.488	17843
908.604	17767
908.72	17813
908.836	17756
908.952	17699
909.068	17729
909.184	17737
909.3	17726
909.415	17771
909.531	17733
909.647	17486
909.762	17528
909.878	17406
909.993	17459
910.108	17387
910.224	17512
910.339	17429
910.454	17345
910.57	17216
910.685	17239
910.8	17425
910.915	17417
911.03	17330
911.145	17105
911.259	17048
911.374	17071
911.489	16869
911.604	16843
911.718	16740
911.833	16702
911.947	16683
912.062	16603
912.176	16805
912.291	16927
912.405	16812
912.519	16946
912.633	16889
912.748	16782
912.862	16691
912.976	16656
913.09	16481
913.204	16485
913.318	16611
913.431	16603
913.545	16535
913.659	16733
913.772	16573
913.886	16348
914	16394
914.113	16615
914.226	16371
914.34	16386
914.453	16109
914.566	16455
914.68	16238
914.793	16188
914.906	16032
915.019	15918
915.132	15797
915.245	15949
915.358	15934
915.47	15880
915.583	16017
915.696	15861
915.809	16025
915.921	15994
916.034	15991
916.146	15816
916.259	15823
916.371	15953
916.483	15934
916.595	15717
916.708	15850
916.82	15717
916.932	15686
917.044	15709
917.156	15717
917.268	15500
917.38	15572
917.491	15618
917.603	15526
917.715	15595
917.826	15701
917.938	15477
918.049	15496
918.161	15447
918.272	15515
918.384	15553
918.495	15351
918.606	15420
918.717	15268
918.828	15332
918.939	15359
919.05	15154
919.161	15355
919.272	15017
919.383	15157
919.494	15313
919.604	15477
919.715	15294
919.826	15104
919.936	15230
920.047	15355
920.157	15233
920.267	15389
920.378	15370
920.488	15332
920.598	15397
920.708	15538
920.818	15477
920.928	15321
921.038	15587
921.148	15515
921.258	15142
921.368	15116
921.477	15081
921.587	14952
921.697	14857
921.806	14891
921.916	14777
922.025	14674
922.134	14610
922.244	14564
922.353	14735
922.462	14507
922.571	14434
922.68	14282
922.789	14199
922.898	14389
923.007	14123
923.116	14275
923.224	14286
923.333	14138
923.442	14046
923.55	14107
923.659	14123
923.767	14142
923.876	14058
923.984	14168
924.092	13967
924.201	14050
924.309	14054
924.417	13970
924.525	13898
924.633	13837
924.741	14708
924.849	13742
924.956	13830
925.064	13658
925.172	13571
925.279	13632
925.387	13681
925.494	13590
925.602	13704
925.709	13670
925.816	13453
925.924	13655
926.031	13658
926.138	13525
926.245	13563
926.352	13388
926.459	13552
926.566	13567
926.673	13411
926.779	13453
926.886	13289
926.993	13202
927.099	13187
927.206	13209
927.312	13110
927.419	13164
927.525	13145
927.631	13213
927.737	13050
927.843	13053
927.95	12806
928.056	12970
928.162	12973
928.267	12973
928.373	13491
928.479	13050
928.585	12776
928.69	12913
928.796	12947
928.901	12871
929.007	12646
929.112	12821
929.218	12730
929.323	12635
929.428	12639
929.533	12833
929.638	12627
929.743	12646
929.848	12700
929.953	12559
930.058	12506
930.163	12300
930.267	12384
930.372	12429
930.477	12334
930.581	12513
930.685	12395
930.79	12235
930.894	12163
930.998	12239
931.103	12220
931.207	11958
931.311	11954
931.415	11703
931.519	11619
931.623	11532
