Data from test_V78500241_2607.txt Node
Date: Fri Mar 25 15:59:51 CST 2022
User: usil
Spectrometer: V785-0024
Trigger mode: 0
Integration Time (sec): 4.000000E-1
Scans to average: 1
Nonlinearity correction enabled: false
Boxcar width: 0
Storing dark spectrum: false
XAxis mode: Wavelengths
Number of Pixels in Spectrum: 1024
>>>>>Begin Spectral Data<<<<<
801.071	28698
801.214	28706
801.356	28500
801.499	28322
801.641	28325
801.783	28226
801.926	28348
802.068	28299
802.211	28112
802.353	28150
802.496	28044
802.638	27914
802.78	28013
802.923	27903
803.065	27755
803.208	27930
803.35	28135
803.492	28029
803.635	28230
803.777	28025
803.919	28215
804.061	28580
804.204	28253
804.346	28063
804.488	28063
804.63	28169
804.773	28112
804.915	28360
805.057	28413
805.199	28173
805.341	28166
805.483	28413
805.626	28306
805.768	28166
805.91	28284
806.052	28310
806.194	28192
806.336	28447
806.478	28436
806.62	28371
806.762	28573
806.904	28736
807.046	28843
807.188	28805
807.33	28843
807.472	28778
807.614	28854
807.756	28664
807.898	28752
808.04	28546
808.182	28641
808.324	28683
808.465	28668
808.607	28858
808.749	28911
808.891	29166
809.033	29269
809.174	28987
809.316	28984
809.458	28965
809.6	29083
809.741	29140
809.883	29159
810.025	29379
810.166	29337
810.308	29349
810.45	29379
810.591	29269
810.733	29029
810.875	28980
811.016	28946
811.158	28930
811.299	29121
811.441	29204
811.582	29292
811.724	28953
811.865	29067
812.007	29044
812.148	28987
812.29	28984
812.431	29064
812.573	29433
812.714	29486
812.855	29520
812.997	29653
813.138	29805
813.279	29539
813.421	29577
813.562	29634
813.703	29395
813.845	29265
813.986	28984
814.127	28847
814.268	28615
814.41	28721
814.551	28698
814.692	28729
814.833	28744
814.974	28656
815.115	28668
815.256	28607
815.397	28611
815.539	28630
815.68	28409
815.821	28485
815.962	28626
816.103	28500
816.244	28371
816.385	28489
816.526	28443
816.666	28261
816.807	28051
816.948	28044
817.089	28090
817.23	27975
817.371	28029
817.512	28067
817.653	28101
817.793	27926
817.934	27979
818.075	28036
818.216	27934
818.356	28109
818.497	28017
818.638	27724
818.778	27854
818.919	27949
819.06	27979
819.2	28074
819.341	27994
819.481	28067
819.622	28112
819.762	28382
819.903	28306
820.043	28306
820.184	28158
820.324	28204
820.465	28363
820.605	28238
820.746	28059
820.886	28044
821.026	28139
821.167	28082
821.307	28131
821.447	28120
821.588	27895
821.728	27918
821.868	27846
822.008	27485
822.149	27504
822.289	27538
822.429	27378
822.569	27268
822.709	27302
822.849	27017
822.99	27230
823.13	27020
823.27	26910
823.41	26819
823.55	26891
823.69	26872
823.83	26967
823.97	26937
824.11	26697
824.25	26511
824.389	26689
824.529	26834
824.669	26708
824.809	26807
824.949	26834
825.089	26777
825.228	26777
825.368	26488
825.508	26427
825.648	26568
825.787	26492
825.927	26735
826.067	26571
826.206	26583
826.346	26453
826.485	26636
826.625	26583
826.765	26655
826.904	26743
827.044	26427
827.183	26286
827.323	26282
827.462	26473
827.601	26343
827.741	26343
827.88	26377
828.02	26199
828.159	26324
828.298	26377
828.437	26313
828.577	26259
828.716	26351
828.855	26088
828.994	25951
829.134	25811
829.273	25989
829.412	25894
829.551	25963
829.69	25963
829.829	26005
829.968	26164
830.107	26191
830.246	25993
830.385	25986
830.524	25974
830.663	25795
830.802	25628
830.941	25483
831.08	25590
831.219	25552
831.357	25624
831.496	25951
831.635	25563
831.774	25616
831.913	25578
832.051	25441
832.19	25358
832.329	25400
832.467	25335
832.606	25217
832.744	25236
832.883	25278
833.022	25183
833.16	25259
833.299	25362
833.437	25278
833.576	25381
833.714	25304
833.852	25335
833.991	25316
834.129	25392
834.267	25438
834.406	25343
834.544	25285
834.682	25282
834.821	25228
834.959	25578
835.097	25327
835.235	25282
835.373	25350
835.511	25358
835.65	25187
835.788	25179
835.926	25019
836.064	24867
836.202	25015
836.34	25095
836.478	25392
836.615	25050
836.753	25084
836.891	25255
837.029	25168
837.167	25065
837.305	25008
837.443	24844
837.58	25053
837.718	25038
837.856	24977
837.993	24779
838.131	24924
838.269	24878
838.406	24916
838.544	24825
838.681	24597
838.819	24684
838.956	24300
839.094	24304
839.231	24486
839.369	24623
839.506	24779
839.643	24650
839.781	24486
839.918	24410
840.055	24483
840.193	24342
840.33	24357
840.467	24384
840.604	24361
840.742	24555
840.879	24209
841.016	24178
841.153	24129
841.29	24433
841.427	24426
841.564	24296
841.701	24403
841.838	24262
841.975	24353
842.112	24228
842.249	24098
842.385	24125
842.522	24247
842.659	24201
842.796	24121
842.933	24095
843.069	24060
843.206	24087
843.343	24091
843.479	24102
843.616	24045
843.752	23916
843.889	23950
844.025	24087
844.162	23798
844.298	23942
844.435	23828
844.571	23866
844.708	23961
844.844	24083
844.98	23999
845.117	24011
845.253	23798
845.389	23710
845.525	23847
845.661	23741
845.798	23630
845.934	23665
846.07	23436
846.206	23566
846.342	23665
846.478	23589
846.614	23326
846.75	23277
846.886	23395
847.022	23410
847.158	23292
847.294	23372
847.429	23315
847.565	23204
847.701	23558
847.837	23037
847.972	22946
848.108	23166
848.244	23094
848.379	22946
848.515	22976
848.65	22805
848.786	22847
848.921	22923
849.057	22991
849.192	22991
849.328	22850
849.463	22862
849.598	22904
849.734	22759
849.869	22850
850.004	22733
850.14	22793
850.275	22645
850.41	22527
850.545	22641
850.68	22565
850.815	22694
850.95	22500
851.085	22752
851.22	22740
851.355	22687
851.49	22759
851.625	22744
851.76	22656
851.895	22527
852.03	22538
852.165	22592
852.299	22854
852.434	22706
852.569	22771
852.703	22694
852.838	22759
852.973	22782
853.107	22797
853.242	22622
853.376	22599
853.511	22474
853.645	22451
853.78	22565
853.914	22542
854.048	22474
854.183	22436
854.317	22394
854.451	22634
854.585	22500
854.72	22599
854.854	22531
854.988	22398
855.122	22508
855.256	22413
855.39	22459
855.524	22531
855.658	22455
855.792	22478
855.926	22478
856.06	22557
856.194	22462
856.327	22516
856.461	22367
856.595	22459
856.729	22386
856.862	22706
856.996	22607
857.13	22557
857.263	22538
857.397	22641
857.53	22386
857.664	22577
857.797	22504
857.931	22557
858.064	22440
858.197	22641
858.331	22291
858.464	22417
858.597	22386
858.731	22413
858.864	22443
858.997	22424
859.13	22500
859.263	22493
859.396	22569
859.529	22504
859.662	22337
859.795	22508
859.928	22367
860.061	22615
860.194	22626
860.327	22653
860.46	22550
860.592	22561
860.725	22683
860.858	22622
860.99	22466
861.123	22485
861.256	22451
861.388	22527
861.521	23250
861.653	22284
861.786	22253
861.918	22299
862.05	22352
862.183	22417
862.315	22356
862.447	22447
862.58	22382
862.712	22238
862.844	22162
862.976	22291
863.108	22234
863.24	22626
863.372	22215
863.504	22120
863.636	22086
863.768	22116
863.9	22188
864.032	22120
864.164	22181
864.296	22196
864.428	22325
864.559	22261
864.691	22234
864.823	22204
864.954	22128
865.086	22276
865.217	22082
865.349	21998
865.48	22128
865.612	22143
865.743	22268
865.875	21911
866.006	22017
866.137	21975
866.269	22131
866.4	21998
866.531	22010
866.662	22093
866.793	21930
866.924	21949
867.055	22013
867.186	22078
867.317	22040
867.448	21945
867.579	22021
867.71	22017
867.841	21941
867.972	21987
868.103	22021
868.233	21953
868.364	22128
868.495	21949
868.625	22242
868.756	22211
868.886	22139
869.017	22158
869.147	22417
869.278	22379
869.408	22185
869.539	22150
869.669	22371
869.799	22234
869.929	22337
870.06	22306
870.19	22630
870.32	22519
870.45	22508
870.58	22660
870.71	22687
870.84	22725
870.97	22664
871.1	22481
871.23	22946
871.36	22793
871.489	22767
871.619	22862
871.749	22820
871.879	22862
872.008	22892
872.138	22934
872.267	22919
872.397	22691
872.526	22656
872.656	22660
872.785	22698
872.915	22915
873.044	23052
873.173	22911
873.303	22854
873.432	22946
873.561	22911
873.69	22816
873.819	22900
873.948	23056
874.077	22869
874.206	22820
874.335	22854
874.464	22972
874.593	23166
874.722	22923
874.851	23151
874.979	23098
875.108	23064
875.237	23105
875.365	23060
875.494	22946
875.623	23197
875.751	22999
875.88	23128
876.008	23254
876.136	23326
876.265	23566
876.393	23596
876.521	23486
876.65	23554
876.778	23478
876.906	23395
877.034	23387
877.162	23455
877.29	23391
877.418	23551
877.546	23433
877.674	23471
877.802	23501
877.93	23425
878.058	23455
878.185	23345
878.313	23242
878.441	23391
878.568	23143
878.696	23395
878.824	23486
878.951	23566
879.079	23638
879.206	23813
879.333	23524
879.461	23543
879.588	23482
879.715	23459
879.842	23604
879.97	23486
880.097	23269
880.224	23197
880.351	23223
880.478	23178
880.605	23258
880.732	23166
880.859	23436
880.986	23109
881.112	23261
881.239	23102
881.366	22790
881.493	22946
881.619	22866
881.746	22881
881.872	22805
881.999	22702
882.125	22858
882.252	22835
882.378	22599
882.505	22748
882.631	22679
882.757	22580
882.883	22626
883.01	22573
883.136	22314
883.262	22428
883.388	22234
883.514	22459
883.64	22417
883.766	22432
883.892	22230
884.018	22318
884.143	22405
884.269	22447
884.395	22105
884.52	22143
884.646	22082
884.772	22150
884.897	21926
885.023	22063
885.148	22105
885.274	22207
885.399	22276
885.524	22143
885.65	22230
885.775	22120
885.9	22090
886.025	22135
886.15	22131
886.275	22032
886.4	22048
886.525	22154
886.65	21945
886.775	22013
886.9	22169
887.025	22226
887.149	22169
887.274	21983
887.399	21857
887.523	21739
887.648	21838
887.773	21797
887.897	21975
888.021	21835
888.146	21686
888.27	22002
888.395	21937
888.519	21918
888.643	21895
888.767	22048
888.891	21686
889.015	21713
889.139	21709
889.263	21583
889.387	21865
889.511	21945
889.635	21728
889.759	21618
889.883	21610
890.006	21675
890.13	21705
890.254	21477
890.377	21481
890.501	21408
890.624	21431
890.748	21359
890.871	21169
890.995	21389
891.118	21173
891.241	21154
891.364	21252
891.488	21397
891.611	21199
891.734	21161
891.857	21173
891.98	21226
892.103	21214
892.226	21157
892.349	21203
892.471	20944
892.594	21112
892.717	21066
892.839	21077
892.962	21108
893.085	21154
893.207	21036
893.33	21013
893.452	20944
893.575	21161
893.697	21009
893.819	21283
893.941	21233
894.064	21161
894.186	21020
894.308	20933
894.43	21123
894.552	21176
894.674	21165
894.796	21138
894.918	21043
895.04	20929
895.161	21135
895.283	21207
895.405	20971
895.526	21093
895.648	20960
895.769	21104
895.891	21085
896.012	21142
896.134	21104
896.255	21043
896.376	20910
896.498	21108
896.619	21028
896.74	21142
896.861	21138
896.982	21416
897.103	21370
897.224	21222
897.345	21161
897.466	21233
897.587	21329
897.708	21374
897.828	21412
897.949	21138
898.07	20952
898.19	21188
898.311	21218
898.431	21203
898.552	21287
898.672	21473
898.792	21416
898.913	21416
899.033	21104
899.153	21188
899.273	21020
899.393	21131
899.513	20963
899.633	20937
899.753	20986
899.873	21112
899.993	21013
900.113	20800
900.232	21081
900.352	20800
900.472	20678
900.591	20788
900.711	20845
900.83	20636
900.95	20765
901.069	20857
901.189	20689
901.308	20358
901.427	20347
901.546	20393
901.665	20404
901.784	20450
901.904	20149
902.023	20195
902.141	19932
902.26	19898
902.379	19860
902.498	19795
902.617	19833
902.735	19894
902.854	19856
902.973	19788
903.091	19586
903.21	19616
903.328	19430
903.446	19438
903.565	19289
903.683	19335
903.801	19217
903.919	19213
904.038	19232
904.156	19038
904.274	19168
904.392	18981
904.51	19008
904.627	19038
904.745	19122
904.863	19042
904.981	18962
905.098	18783
905.216	18661
905.334	18837
905.451	18635
905.569	18738
905.686	18749
905.803	18703
905.921	18517
906.038	18513
906.155	18578
906.272	18342
906.389	18426
906.506	18327
906.623	18319
906.74	18300
906.857	18140
906.974	18152
907.091	18357
907.208	18308
907.324	18315
907.441	18182
907.557	17984
907.674	17984
907.79	17847
907.907	17866
908.023	17927
908.139	17954
908.256	17832
908.372	17779
908.488	17817
908.604	17745
908.72	17649
908.836	17707
908.952	17505
909.068	17623
909.184	17668
909.3	17638
909.415	17756
909.531	17649
909.647	17345
909.762	17440
909.878	17326
909.993	17330
910.108	17326
910.224	17292
910.339	17356
910.454	17185
910.57	17246
910.685	17102
910.8	17387
910.915	17334
911.03	17212
911.145	17071
911.259	16991
911.374	17018
911.489	16904
911.604	16717
911.718	16611
911.833	16706
911.947	16656
912.062	16466
912.176	16649
912.291	16710
912.405	16672
912.519	16824
912.633	16968
912.748	16675
912.862	16675
912.976	16451
913.09	16299
913.204	16432
913.318	16402
913.431	16558
913.545	16550
913.659	16634
913.772	16440
913.886	16249
914	16238
914.113	16432
914.226	16421
914.34	16436
914.453	16207
914.566	16242
914.68	16116
914.793	16101
914.906	16021
915.019	15816
915.132	15793
915.245	15804
915.358	15846
915.47	15781
915.583	15766
915.696	15838
915.809	15960
915.921	15994
916.034	15831
916.146	15785
916.259	15766
916.371	15759
916.483	15743
916.595	15637
916.708	15610
916.82	15633
916.932	15572
917.044	15686
917.156	15572
917.268	15519
917.38	15454
917.491	15428
917.603	15443
917.715	15462
917.826	15656
917.938	15473
918.049	15332
918.161	15450
918.272	15538
918.384	15485
918.495	15359
918.606	15332
918.717	15195
918.828	15329
918.939	15192
919.05	15188
919.161	15161
919.272	14967
919.383	15104
919.494	15306
919.604	15313
919.715	15230
919.826	15146
919.936	15180
920.047	15199
920.157	15161
920.267	15401
920.378	15222
920.488	15077
920.598	15351
920.708	15431
920.818	15317
920.928	15317
921.038	15469
921.148	15370
921.258	15138
921.368	15051
921.477	15074
921.587	14891
921.697	14746
921.806	15024
921.916	14727
922.025	14587
922.134	14503
922.244	14450
922.353	14568
922.462	14549
922.571	14328
922.68	14267
922.789	14180
922.898	14134
923.007	14100
923.116	14084
923.224	14119
923.333	14130
923.442	14100
923.55	13967
923.659	13936
923.767	14012
923.876	13921
923.984	14005
924.092	13738
924.201	13875
924.309	13807
924.417	13856
924.525	13845
924.633	13772
924.741	14750
924.849	13567
924.956	13795
925.064	13609
925.172	13495
925.279	13616
925.387	13639
925.494	13563
925.602	13674
925.709	13544
925.816	13392
925.924	13525
926.031	13624
926.138	13468
926.245	13540
926.352	13434
926.459	13499
926.566	13571
926.673	13403
926.779	13293
926.886	13232
926.993	13171
927.099	13152
927.206	13069
927.312	13061
927.419	13141
927.525	13019
927.631	13080
927.737	12962
927.843	12905
927.95	12776
928.056	12920
928.162	12810
928.267	12935
928.373	13468
928.479	12890
928.585	12764
928.69	12859
928.796	12863
928.901	12745
929.007	12513
929.112	12734
929.218	12665
929.323	12631
929.428	12525
929.533	12749
929.638	12475
929.743	12654
929.848	12631
929.953	12483
930.058	12452
930.163	12251
930.267	12308
930.372	12414
930.477	12239
930.581	12445
930.685	12357
930.79	12125
930.894	12258
930.998	12152
931.103	12262
931.207	11832
931.311	11923
931.415	11794
931.519	11615
931.623	11467
