Data from test_V78500241_1833.txt Node
Date: Fri Mar 25 15:54:29 CST 2022
User: usil
Spectrometer: V785-0024
Trigger mode: 0
Integration Time (sec): 4.000000E-1
Scans to average: 1
Nonlinearity correction enabled: false
Boxcar width: 0
Storing dark spectrum: false
XAxis mode: Wavelengths
Number of Pixels in Spectrum: 1024
>>>>>Begin Spectral Data<<<<<
801.071	28546
801.214	28394
801.356	28352
801.499	28257
801.641	28135
801.783	28097
801.926	28135
802.068	27994
802.211	28029
802.353	28002
802.496	27850
802.638	27880
802.78	27797
802.923	27751
803.065	27641
803.208	27679
803.35	27800
803.492	27956
803.635	27991
803.777	27876
803.919	27979
804.061	28276
804.204	28135
804.346	28048
804.488	28032
804.63	28177
804.773	27979
804.915	28177
805.057	28143
805.199	27945
805.341	28226
805.483	28070
805.626	28131
805.768	27983
805.91	28280
806.052	28128
806.194	28131
806.336	28325
806.478	28246
806.62	28139
806.762	28257
806.904	28443
807.046	28744
807.188	28550
807.33	28565
807.472	28580
807.614	28672
807.756	28577
807.898	28310
808.04	28394
808.182	28436
808.324	28508
808.465	28607
808.607	28839
808.749	28831
808.891	28987
809.033	28991
809.174	28862
809.316	28793
809.458	28915
809.6	28763
809.741	28972
809.883	28984
810.025	29216
810.166	29128
810.308	29132
810.45	29037
810.591	29155
810.733	28816
810.875	28866
811.016	28698
811.158	28797
811.299	28911
811.441	29105
811.582	28980
811.724	28881
811.865	28675
812.007	28843
812.148	28744
812.29	28831
812.431	29052
812.573	29254
812.714	29303
812.855	29322
812.997	29223
813.138	29627
813.279	29600
813.421	29383
813.562	29303
813.703	29216
813.845	29094
813.986	28812
814.127	28577
814.268	28550
814.41	28588
814.551	28516
814.692	28618
814.833	28447
814.974	28390
815.115	28634
815.256	28371
815.397	28485
815.539	28424
815.68	28398
815.821	28318
815.962	28291
816.103	28367
816.244	28192
816.385	28143
816.526	28093
816.666	27884
816.807	27964
816.948	27998
817.089	28025
817.23	27800
817.371	27964
817.512	27888
817.653	27934
817.793	27953
817.934	27789
818.075	27884
818.216	27873
818.356	27808
818.497	27812
818.638	27553
818.778	27625
818.919	27629
819.06	27705
819.2	27747
819.341	27766
819.481	27865
819.622	27914
819.762	28169
819.903	28116
820.043	27899
820.184	28010
820.324	28059
820.465	28063
820.605	27953
820.746	27926
820.886	27854
821.026	27914
821.167	27956
821.307	28078
821.447	28017
821.588	27667
821.728	27717
821.868	27534
822.008	27397
822.149	27355
822.289	27252
822.429	26994
822.569	27085
822.709	27009
822.849	26807
822.99	26735
823.13	26823
823.27	26670
823.41	26571
823.55	26636
823.69	26693
823.83	26727
823.97	26644
824.11	26366
824.25	26549
824.389	26568
824.529	26545
824.669	26499
824.809	26526
824.949	26629
825.089	26514
825.228	26488
825.368	26480
825.508	26415
825.648	26396
825.787	26412
825.927	26503
826.067	26385
826.206	26480
826.346	26461
826.485	26530
826.625	26465
826.765	26457
826.904	26400
827.044	26153
827.183	26240
827.323	26157
827.462	26233
827.601	26050
827.741	25928
827.88	26119
828.02	25947
828.159	25936
828.298	26142
828.437	26172
828.577	26062
828.716	26218
828.855	25978
828.994	25852
829.134	25849
829.273	25833
829.412	25677
829.551	25571
829.69	25811
829.829	25742
829.968	25761
830.107	25734
830.246	25780
830.385	25795
830.524	25647
830.663	25476
830.802	25487
830.941	25415
831.08	25441
831.219	25449
831.357	25430
831.496	25647
831.635	25453
831.774	25388
831.913	25289
832.051	25179
832.19	25065
832.329	25137
832.467	25008
832.606	24894
832.744	25027
832.883	24989
833.022	25137
833.16	25099
833.299	25190
833.437	25076
833.576	25107
833.714	25145
833.852	25225
833.991	25110
834.129	25190
834.267	25027
834.406	25175
834.544	25129
834.682	25091
834.821	25164
834.959	25202
835.097	24985
835.235	25168
835.373	25084
835.511	25137
835.65	25072
835.788	25012
835.926	24802
836.064	24722
836.202	24810
836.34	25004
836.478	25015
836.615	24977
836.753	25065
836.891	24909
837.029	24897
837.167	24844
837.305	24852
837.443	24806
837.58	24757
837.718	24741
837.856	24890
837.993	24661
838.131	24631
838.269	24601
838.406	24715
838.544	24566
838.681	24372
838.819	24414
838.956	24270
839.094	24243
839.231	24289
839.369	24418
839.506	24654
839.643	24528
839.781	24292
839.918	24213
840.055	24270
840.193	24178
840.33	24163
840.467	24117
840.604	24216
840.742	24334
840.879	23992
841.016	24133
841.153	24003
841.29	24194
841.427	24220
841.564	24224
841.701	24167
841.838	24083
841.975	23973
842.112	23973
842.249	23889
842.385	23923
842.522	24136
842.659	24079
842.796	23939
842.933	23912
843.069	23882
843.206	23779
843.343	23946
843.479	23794
843.616	23923
843.752	23733
843.889	23786
844.025	23775
844.162	23623
844.298	23786
844.435	23638
844.571	23619
844.708	23779
844.844	23878
844.98	23699
845.117	23646
845.253	23615
845.389	23512
845.525	23531
845.661	23661
845.798	23410
845.934	23452
846.07	23364
846.206	23539
846.342	23429
846.478	23345
846.614	23174
846.75	23033
846.886	23044
847.022	23231
847.158	23113
847.294	23083
847.429	23307
847.565	23128
847.701	23356
847.837	22885
847.972	22843
848.108	22995
848.244	22976
848.379	22736
848.515	22755
848.65	22611
848.786	22763
848.921	22706
849.057	22892
849.192	22797
849.328	22847
849.463	22782
849.598	22672
849.734	22577
849.869	22542
850.004	22455
850.14	22531
850.275	22443
850.41	22341
850.545	22527
850.68	22466
850.815	22493
850.95	22451
851.085	22759
851.22	22653
851.355	22500
851.49	22447
851.625	22588
851.76	22443
851.895	22363
852.03	22523
852.165	22390
852.299	22447
852.434	22584
852.569	22497
852.703	22626
852.838	22550
852.973	22767
853.107	22649
853.242	22398
853.376	22363
853.511	22196
853.645	22291
853.78	22413
853.914	22371
854.048	22409
854.183	22333
854.317	22284
854.451	22474
854.585	22360
854.72	22257
854.854	22360
854.988	22234
855.122	22398
855.256	22200
855.39	22348
855.524	22417
855.658	22318
855.792	22268
855.926	22295
856.06	22375
856.194	22413
856.327	22367
856.461	22226
856.595	22226
856.729	22360
856.862	22405
856.996	22481
857.13	22337
857.263	22538
857.397	22455
857.53	22382
857.664	22405
857.797	22470
857.931	22455
858.064	22360
858.197	22451
858.331	22344
858.464	22238
858.597	22204
858.731	22204
858.864	22295
858.997	22242
859.13	22284
859.263	22287
859.396	22379
859.529	22219
859.662	22390
859.795	22223
859.928	22333
860.061	22440
860.194	22508
860.327	22303
860.46	22356
860.592	22379
860.725	22489
860.858	22470
860.99	22398
861.123	22356
861.256	22181
861.388	22390
861.521	23003
861.653	22162
861.786	22109
861.918	22215
862.05	22257
862.183	22261
862.315	22276
862.447	22276
862.58	22143
862.712	22002
862.844	22006
862.976	22120
863.108	22112
863.24	22489
863.372	21956
863.504	21926
863.636	22021
863.768	22124
863.9	22101
864.032	21953
864.164	22044
864.296	21960
864.428	22021
864.559	22154
864.691	22086
864.823	22017
864.954	21983
865.086	21869
865.217	21972
865.349	21869
865.48	21964
865.612	22013
865.743	22006
865.875	21979
866.006	21823
866.137	21953
866.269	21865
866.4	21915
866.531	21812
866.662	21778
866.793	21827
866.924	21793
867.055	21747
867.186	21915
867.317	21915
867.448	21736
867.579	21800
867.71	21739
867.841	21819
867.972	21720
868.103	21838
868.233	21888
868.364	21812
868.495	21953
868.625	22051
868.756	22128
868.886	22017
869.017	22051
869.147	22147
869.278	22109
869.408	22147
869.539	22166
869.669	22207
869.799	22097
869.929	22242
870.06	22204
870.19	22341
870.32	22344
870.45	22352
870.58	22497
870.71	22683
870.84	22523
870.97	22462
871.1	22424
871.23	22542
871.36	22767
871.489	22573
871.619	22653
871.749	22577
871.879	22710
872.008	22691
872.138	22550
872.267	22599
872.397	22565
872.526	22516
872.656	22485
872.785	22504
872.915	22748
873.044	22767
873.173	22771
873.303	22759
873.432	22771
873.561	22763
873.69	22767
873.819	22675
873.948	22839
874.077	22615
874.206	22577
874.335	22805
874.464	22729
874.593	22877
874.722	22805
874.851	22896
874.979	22946
875.108	23064
875.237	23014
875.365	22702
875.494	22896
875.623	22927
875.751	22835
875.88	22896
876.008	22991
876.136	22980
876.265	23292
876.393	23356
876.521	23265
876.65	23402
876.778	23216
876.906	23239
877.034	23254
877.162	23189
877.29	23090
877.418	23353
877.546	23200
877.674	23143
877.802	23223
877.93	23197
878.058	23250
878.185	23117
878.313	23155
878.441	23292
878.568	23113
878.696	23189
878.824	23299
878.951	23395
879.079	23459
879.206	23414
879.333	23573
879.461	23185
879.588	23406
879.715	23562
879.842	23547
879.97	23307
880.097	23166
880.224	23037
880.351	23170
880.478	23132
880.605	22984
880.732	23071
880.859	23193
880.986	23105
881.112	23075
881.239	22896
881.366	22831
881.493	22672
881.619	22664
881.746	22721
881.872	22637
881.999	22527
882.125	22577
882.252	22706
882.378	22516
882.505	22710
882.631	22455
882.757	22329
882.883	22402
883.01	22344
883.136	22181
883.262	22158
883.388	22120
883.514	22314
883.64	22341
883.766	22158
883.892	22017
884.018	22105
884.143	22204
884.269	22382
884.395	21941
884.52	21895
884.646	21975
884.772	21888
884.897	21903
885.023	21865
885.148	21983
885.274	22040
885.399	22074
885.524	21918
885.65	21873
885.775	21819
885.9	21945
886.025	22017
886.15	21941
886.275	21899
886.4	21899
886.525	21926
886.65	21884
886.775	21884
886.9	21930
887.025	22128
887.149	21846
887.274	21686
887.399	21660
887.523	21759
887.648	21667
887.773	21542
887.897	21854
888.021	21732
888.146	21618
888.27	21743
888.395	21694
888.519	21698
888.643	21698
888.767	21732
888.891	21629
889.015	21435
889.139	21564
889.263	21393
889.387	21523
889.511	21774
889.635	21682
889.759	21492
889.883	21511
890.006	21450
890.13	21534
890.254	21321
890.377	21397
890.501	21287
890.624	21211
890.748	21058
890.871	21207
890.995	21081
891.118	21055
891.241	21157
891.364	21085
891.488	21119
891.611	21165
891.734	21074
891.857	21077
891.98	21043
892.103	21032
892.226	20975
892.349	20963
892.471	20826
892.594	20929
892.717	20941
892.839	20815
892.962	20952
893.085	21043
893.207	20971
893.33	20811
893.452	20864
893.575	20826
893.697	20952
893.819	21173
893.941	21131
894.064	21089
894.186	20876
894.308	20811
894.43	20979
894.552	21085
894.674	20967
894.796	20872
894.918	20853
895.04	20876
895.161	21070
895.283	20876
895.405	20815
895.526	20948
895.648	20929
895.769	20918
895.891	20986
896.012	20982
896.134	20986
896.255	20960
896.376	20899
896.498	20952
896.619	20971
896.74	20929
896.861	21100
896.982	21245
897.103	21313
897.224	21135
897.345	21112
897.466	21005
897.587	21176
897.708	21321
897.828	21077
897.949	21013
898.07	20933
898.19	21066
898.311	21218
898.431	21127
898.552	21051
898.672	21104
898.792	21116
898.913	21192
899.033	20963
899.153	20933
899.273	20800
899.393	20788
899.513	20887
899.633	20868
899.753	20990
899.873	20834
899.993	20971
900.113	20769
900.232	20769
900.352	20667
900.472	20705
900.591	20541
900.711	20598
900.83	20541
900.95	20735
901.069	20777
901.189	20522
901.308	20282
901.427	20073
901.546	20225
901.665	20240
901.784	20298
901.904	20092
902.023	20008
902.141	19765
902.26	19772
902.379	19761
902.498	19712
902.617	19696
902.735	19734
902.854	19563
902.973	19616
903.091	19365
903.21	19304
903.328	19396
903.446	19236
903.565	19259
903.683	19198
903.801	19042
903.919	19168
904.038	19080
904.156	18973
904.274	18962
904.392	19000
904.51	18848
904.627	18837
904.745	18985
904.863	18897
904.981	18684
905.098	18654
905.216	18707
905.334	18536
905.451	18608
905.569	18582
905.686	18646
905.803	18517
905.921	18315
906.038	18479
906.155	18460
906.272	18361
906.389	18327
906.506	18190
906.623	18133
906.74	18045
906.857	18057
906.974	18007
907.091	18194
907.208	18254
907.324	18038
907.441	17965
907.557	17931
907.674	17760
907.79	17726
907.907	17859
908.023	17851
908.139	17832
908.256	17733
908.372	17722
908.488	17596
908.604	17657
908.72	17448
908.836	17478
908.952	17406
909.068	17539
909.184	17661
909.3	17505
909.415	17551
909.531	17558
909.647	17242
909.762	17254
909.878	17189
909.993	17250
910.108	17181
910.224	17197
910.339	17174
910.454	17109
910.57	17045
910.685	16976
910.8	17307
910.915	17159
911.03	17006
911.145	16740
911.259	16816
911.374	16786
911.489	16778
911.604	16618
911.718	16626
911.833	16519
911.947	16432
912.062	16402
912.176	16481
912.291	16588
912.405	16603
912.519	16748
912.633	16774
912.748	16516
912.862	16538
912.976	16356
913.09	16284
913.204	16234
913.318	16306
913.431	16455
913.545	16337
913.659	16409
913.772	16257
913.886	16150
914	16158
914.113	16223
914.226	16188
914.34	16238
914.453	16017
914.566	16169
914.68	15964
914.793	15987
914.906	15846
915.019	15759
915.132	15709
915.245	15709
915.358	15808
915.47	15728
915.583	15728
915.696	15831
915.809	15861
915.921	15846
916.034	15671
916.146	15629
916.259	15648
916.371	15709
916.483	15724
916.595	15587
916.708	15564
916.82	15587
916.932	15488
917.044	15534
917.156	15500
917.268	15557
917.38	15397
917.491	15332
917.603	15428
917.715	15428
917.826	15519
917.938	15275
918.049	15287
918.161	15397
918.272	15473
918.384	15420
918.495	15344
918.606	15256
918.717	15169
918.828	15188
918.939	15207
919.05	15070
919.161	15184
919.272	14910
919.383	15039
919.494	15146
919.604	15397
919.715	15077
919.826	15062
919.936	15051
920.047	15237
920.157	15123
920.267	15279
920.378	15116
920.488	15047
920.598	15180
920.708	15420
920.818	15131
920.928	15272
921.038	15386
921.148	15389
921.258	15039
921.368	14994
921.477	14868
921.587	14876
921.697	14667
921.806	14765
921.916	14731
922.025	14613
922.134	14507
922.244	14446
922.353	14499
922.462	14317
922.571	14202
922.68	14130
922.789	14054
922.898	14157
923.007	14012
923.116	14054
923.224	14180
923.333	14058
923.442	13940
923.55	13974
923.659	13928
923.767	14005
923.876	13879
923.984	13947
924.092	13780
924.201	13803
924.309	13826
924.417	13826
924.525	13738
924.633	13727
924.741	14522
924.849	13491
924.956	13647
925.064	13616
925.172	13506
925.279	13529
925.387	13514
925.494	13476
925.602	13636
925.709	13552
925.816	13324
925.924	13400
926.031	13449
926.138	13426
926.245	13521
926.352	13297
926.459	13400
926.566	13472
926.673	13316
926.779	13217
926.886	13236
926.993	13084
927.099	12989
927.206	13042
927.312	12977
927.419	13072
927.525	13050
927.631	12989
927.737	12856
927.843	12795
927.95	12684
928.056	12875
928.162	12821
928.267	12878
928.373	13518
928.479	12913
928.585	12772
928.69	12837
928.796	12878
928.901	12726
929.007	12616
929.112	12662
929.218	12677
929.323	12623
929.428	12540
929.533	12654
929.638	12410
929.743	12502
929.848	12517
929.953	12506
930.058	12410
930.163	12258
930.267	12232
930.372	12357
930.477	12258
930.581	12395
930.685	12300
930.79	12102
930.894	12182
930.998	12079
931.103	12353
931.207	11893
931.311	11733
931.415	11570
931.519	11471
931.623	11524
