Data from test_V78500241_1488.txt Node
Date: Fri Mar 25 15:52:06 CST 2022
User: usil
Spectrometer: V785-0024
Trigger mode: 0
Integration Time (sec): 4.000000E-1
Scans to average: 1
Nonlinearity correction enabled: false
Boxcar width: 0
Storing dark spectrum: false
XAxis mode: Wavelengths
Number of Pixels in Spectrum: 1024
>>>>>Begin Spectral Data<<<<<
801.071	27823
801.214	27857
801.356	27572
801.499	27450
801.641	27336
801.783	27526
801.926	27545
802.068	27431
802.211	27408
802.353	27230
802.496	27062
802.638	27214
802.78	27047
802.923	27074
803.065	27024
803.208	27013
803.35	27024
803.492	27154
803.635	27302
803.777	27298
803.919	27275
804.061	27595
804.204	27313
804.346	27070
804.488	27169
804.63	27188
804.773	27287
804.915	27287
805.057	27294
805.199	27214
805.341	27397
805.483	27416
805.626	27389
805.768	27310
805.91	27378
806.052	27439
806.194	27317
806.336	27595
806.478	27618
806.62	27469
806.762	27545
806.904	27713
807.046	27953
807.188	27846
807.33	27922
807.472	27888
807.614	27785
807.756	27762
807.898	27587
808.04	27641
808.182	27709
808.324	27694
808.465	27850
808.607	27899
808.749	28017
808.891	28021
809.033	28192
809.174	28116
809.316	28215
809.458	28067
809.6	27949
809.741	28169
809.883	28318
810.025	28360
810.166	28268
810.308	28363
810.45	28451
810.591	28295
810.733	28067
810.875	27960
811.016	28082
811.158	27899
811.299	28169
811.441	28246
811.582	28215
811.724	28021
811.865	28074
812.007	28070
812.148	28021
812.29	28090
812.431	28192
812.573	28405
812.714	28413
812.855	28455
812.997	28535
813.138	28618
813.279	28763
813.421	28535
813.562	28557
813.703	28459
813.845	28268
813.986	27903
814.127	27778
814.268	27701
814.41	27789
814.551	27842
814.692	27713
814.833	27641
814.974	27606
815.115	27686
815.256	27450
815.397	27545
815.539	27580
815.68	27488
815.821	27473
815.962	27507
816.103	27370
816.244	27454
816.385	27275
816.526	27287
816.666	27085
816.807	27001
816.948	27176
817.089	27047
817.23	26982
817.371	26967
817.512	27009
817.653	26921
817.793	27127
817.934	26982
818.075	27001
818.216	26994
818.356	26940
818.497	26982
818.638	26716
818.778	26777
818.919	26785
819.06	26880
819.2	26804
819.341	27066
819.481	26986
819.622	27306
819.762	27359
819.903	27313
820.043	27169
820.184	27119
820.324	27039
820.465	27214
820.605	27211
820.746	27070
820.886	27024
821.026	26975
821.167	27116
821.307	27287
821.447	27135
821.588	27058
821.728	26887
821.868	26754
822.008	26526
822.149	26587
822.289	26393
822.429	26332
822.569	26263
822.709	26240
822.849	26100
822.99	26077
823.13	26077
823.27	25955
823.41	25795
823.55	25662
823.69	25864
823.83	25879
823.97	25795
824.11	25693
824.25	25533
824.389	25696
824.529	25772
824.669	25601
824.809	25833
824.949	25811
825.089	25772
825.228	25868
825.368	25476
825.508	25518
825.648	25620
825.787	25620
825.927	25632
826.067	25563
826.206	25468
826.346	25525
826.485	25525
826.625	25506
826.765	25715
826.904	25597
827.044	25308
827.183	25297
827.323	25343
827.462	25304
827.601	25225
827.741	25354
827.88	25213
828.02	25126
828.159	25225
828.298	25358
828.437	25400
828.577	25350
828.716	25350
828.855	25190
828.994	24962
829.134	24981
829.273	24966
829.412	24939
829.551	24992
829.69	25065
829.829	25065
829.968	25076
830.107	25080
830.246	24981
830.385	24859
830.524	24871
830.663	24681
830.802	24726
830.941	24658
831.08	24365
831.219	24635
831.357	24612
831.496	24810
831.635	24483
831.774	24578
831.913	24544
832.051	24346
832.19	24350
832.329	24391
832.467	24235
832.606	24144
832.744	24049
832.883	24213
833.022	24270
833.16	24194
833.299	24251
833.437	24270
833.576	24315
833.714	24239
833.852	24467
833.991	24258
834.129	24395
834.267	24346
834.406	24350
834.544	24357
834.682	24334
834.821	24323
834.959	24483
835.097	24372
835.235	24445
835.373	24296
835.511	24289
835.65	24079
835.788	24171
835.926	24026
836.064	23961
836.202	23980
836.34	24220
836.478	24178
836.615	24178
836.753	24087
836.891	24098
837.029	24133
837.167	24194
837.305	24060
837.443	23999
837.58	23920
837.718	24030
837.856	23992
837.993	23904
838.131	24015
838.269	23866
838.406	23855
838.544	23851
838.681	23653
838.819	23615
838.956	23364
839.094	23452
839.231	23391
839.369	23592
839.506	23767
839.643	23710
839.781	23539
839.918	23410
840.055	23318
840.193	23531
840.33	23326
840.467	23391
840.604	23444
840.742	23638
840.879	23239
841.016	23360
841.153	23246
841.29	23539
841.427	23444
841.564	23410
841.701	23288
841.838	23212
841.975	23227
842.112	23337
842.249	23113
842.385	23064
842.522	23227
842.659	23189
842.796	22991
842.933	23178
843.069	23018
843.206	22968
843.343	23151
843.479	23033
843.616	23109
843.752	22949
843.889	22858
844.025	22911
844.162	22812
844.298	22995
844.435	22942
844.571	22915
844.708	22889
844.844	22972
844.98	23006
845.117	23067
845.253	22816
845.389	22820
845.525	22755
845.661	22843
845.798	22459
845.934	22687
846.07	22698
846.206	22611
846.342	22694
846.478	22694
846.614	22455
846.75	22363
846.886	22257
847.022	22398
847.158	22356
847.294	22421
847.429	22360
847.565	22261
847.701	22615
847.837	22093
847.972	22036
848.108	22223
848.244	22120
848.379	22017
848.515	21888
848.65	21835
848.786	21998
848.921	22044
849.057	21983
849.192	22101
849.328	22074
849.463	21926
849.598	21979
849.734	21720
849.869	21873
850.004	21751
850.14	21724
850.275	21724
850.41	21618
850.545	21610
850.68	21629
850.815	21641
850.95	21701
851.085	21850
851.22	21797
851.355	21736
851.49	21603
851.625	21682
851.76	21629
851.895	21705
852.03	21530
852.165	21679
852.299	21656
852.434	21899
852.569	21728
852.703	21827
852.838	21778
852.973	21789
853.107	21850
853.242	21545
853.376	21610
853.511	21435
853.645	21447
853.78	21534
853.914	21576
854.048	21397
854.183	21496
854.317	21538
854.451	21701
854.585	21504
854.72	21492
854.854	21591
854.988	21530
855.122	21492
855.256	21485
855.39	21492
855.524	21622
855.658	21572
855.792	21534
855.926	21656
856.06	21553
856.194	21694
856.327	21549
856.461	21454
856.595	21424
856.729	21530
856.862	21686
856.996	21378
857.13	21705
857.263	21629
857.397	21610
857.53	21587
857.664	21656
857.797	21450
857.931	21576
858.064	21416
858.197	21622
858.331	21523
858.464	21450
858.597	21435
858.731	21477
858.864	21496
858.997	21526
859.13	21488
859.263	21572
859.396	21667
859.529	21606
859.662	21633
859.795	21462
859.928	21561
860.061	21713
860.194	21728
860.327	21526
860.46	21549
860.592	21583
860.725	21587
860.858	21660
860.99	21542
861.123	21504
861.256	21481
861.388	21492
861.521	22067
861.653	21435
861.786	21336
861.918	21374
862.05	21382
862.183	21382
862.315	21401
862.447	21507
862.58	21469
862.712	21298
862.844	21203
862.976	21294
863.108	21317
863.24	21747
863.372	21237
863.504	21260
863.636	21131
863.768	21199
863.9	21325
864.032	21226
864.164	21207
864.296	21226
864.428	21386
864.559	21264
864.691	21325
864.823	21116
864.954	21260
865.086	21226
865.217	21249
865.349	21100
865.48	21214
865.612	21138
865.743	21188
865.875	21195
866.006	21104
866.137	21085
866.269	21085
866.4	21131
866.531	21100
866.662	20895
866.793	21081
866.924	20979
867.055	21036
867.186	21036
867.317	20918
867.448	21028
867.579	21074
867.71	20887
867.841	21036
867.972	21085
868.103	21001
868.233	21096
868.364	21028
868.495	21252
868.625	21348
868.756	21412
868.886	21272
869.017	21252
869.147	21428
869.278	21405
869.408	21439
869.539	21317
869.669	21466
869.799	21283
869.929	21359
870.06	21386
870.19	21648
870.32	21564
870.45	21701
870.58	21759
870.71	21736
870.84	21808
870.97	21622
871.1	21842
871.23	21983
871.36	21739
871.489	21793
871.619	21899
871.749	21797
871.879	21934
872.008	22013
872.138	21895
872.267	21907
872.397	21728
872.526	21808
872.656	21781
872.785	21728
872.915	21926
873.044	21899
873.173	21915
873.303	22048
873.432	21941
873.561	22143
873.69	21937
873.819	21884
873.948	21934
874.077	22131
874.206	21873
874.335	22036
874.464	22124
874.593	22143
874.722	22154
874.851	22147
874.979	22219
875.108	22139
875.237	22154
875.365	21972
875.494	22139
875.623	22215
875.751	22063
875.88	22150
876.008	22215
876.136	22306
876.265	22584
876.393	22702
876.521	22698
876.65	22580
876.778	22618
876.906	22382
877.034	22596
877.162	22527
877.29	22485
877.418	22630
877.546	22440
877.674	22618
877.802	22432
877.93	22310
878.058	22481
878.185	22379
878.313	22535
878.441	22474
878.568	22421
878.696	22424
878.824	22527
878.951	22497
879.079	22736
879.206	22725
879.333	22603
879.461	22538
879.588	22679
879.715	22637
879.842	22733
879.97	22630
880.097	22234
880.224	22318
880.351	22428
880.478	22272
880.605	22181
880.732	22280
880.859	22512
880.986	22363
881.112	22272
881.239	22306
881.366	22059
881.493	21869
881.619	21953
881.746	21964
881.872	21975
881.999	21861
882.125	21861
882.252	21888
882.378	21899
882.505	21846
882.631	21770
882.757	21587
882.883	21519
883.01	21530
883.136	21614
883.262	21450
883.388	21408
883.514	21637
883.64	21507
883.766	21454
883.892	21378
884.018	21488
884.143	21466
884.269	21641
884.395	21279
884.52	21165
884.646	21256
884.772	21192
884.897	21142
885.023	21256
885.148	21355
885.274	21344
885.399	21249
885.524	21188
885.65	21249
885.775	21226
885.9	21294
886.025	21431
886.15	21348
886.275	21214
886.4	21108
886.525	21135
886.65	21100
886.775	21066
886.9	21321
887.025	21294
887.149	21184
887.274	20948
887.399	21074
887.523	21180
887.648	20960
887.773	20925
887.897	21112
888.021	21005
888.146	20861
888.27	21089
888.395	21093
888.519	21070
888.643	20982
888.767	21001
888.891	20796
889.015	20887
889.139	20941
889.263	20743
889.387	20979
889.511	20925
889.635	20887
889.759	20796
889.883	20762
890.006	20746
890.13	20883
890.254	20617
890.377	20724
890.501	20590
890.624	20457
890.748	20655
890.871	20370
890.995	20412
891.118	20240
891.241	20438
891.364	20473
891.488	20511
891.611	20332
891.734	20351
891.857	20495
891.98	20320
892.103	20393
892.226	20381
892.349	20298
892.471	20092
892.594	20252
892.717	20275
892.839	20313
892.962	20237
893.085	20377
893.207	20218
893.33	20119
893.452	20256
893.575	20259
893.697	20259
893.819	20370
893.941	20419
894.064	20484
894.186	20142
894.308	20191
894.43	20286
894.552	20286
894.674	20240
894.796	20229
894.918	20248
895.04	20126
895.161	20317
895.283	20229
895.405	20229
895.526	20187
895.648	20202
895.769	20271
895.891	20320
896.012	20374
896.134	20415
896.255	20309
896.376	20221
896.498	20278
896.619	20252
896.74	20267
896.861	20358
896.982	20473
897.103	20693
897.224	20495
897.345	20552
897.466	20339
897.587	20465
897.708	20484
897.828	20454
897.949	20419
898.07	20358
898.19	20389
898.311	20587
898.431	20351
898.552	20495
898.672	20579
898.792	20423
898.913	20514
899.033	20317
899.153	20332
899.273	20229
899.393	20282
899.513	20206
899.633	20271
899.753	20134
899.873	20214
899.993	20282
900.113	20259
900.232	20237
900.352	20145
900.472	20088
900.591	19947
900.711	20016
900.83	20008
900.95	20221
901.069	19974
901.189	19974
901.308	19734
901.427	19575
901.546	19609
901.665	19693
901.784	19620
901.904	19476
902.023	19430
902.141	19202
902.26	19107
902.379	19168
902.498	19088
902.617	18973
902.735	19198
902.854	19171
902.973	18924
903.091	18719
903.21	18863
903.328	18814
903.446	18578
903.565	18582
903.683	18620
903.801	18350
903.919	18483
904.038	18517
904.156	18330
904.274	18407
904.392	18289
904.51	18224
904.627	18235
904.745	18319
904.863	18243
904.981	18167
905.098	18003
905.216	17908
905.334	18083
905.451	17942
905.569	17912
905.686	18034
905.803	18026
905.921	17687
906.038	17843
906.155	17882
906.272	17604
906.389	17718
906.506	17509
906.623	17604
906.74	17604
906.857	17410
906.974	17395
907.091	17558
907.208	17532
907.324	17611
907.441	17535
907.557	17277
907.674	17311
907.79	17299
907.907	17162
908.023	17265
908.139	17223
908.256	17220
908.372	17060
908.488	17109
908.604	17079
908.72	16828
908.836	17014
908.952	16938
909.068	16953
909.184	17022
909.3	16957
909.415	16980
909.531	17022
909.647	16759
909.762	16672
909.878	16710
909.993	16630
910.108	16630
910.224	16664
910.339	16577
910.454	16561
910.57	16516
910.685	16356
910.8	16744
910.915	16656
911.03	16493
911.145	16360
911.259	16272
911.374	16268
911.489	16246
911.604	16090
911.718	16017
911.833	16135
911.947	15907
912.062	15876
912.176	15983
912.291	16078
912.405	15930
912.519	16261
912.633	16150
912.748	16181
912.862	16032
912.976	15823
913.09	15694
913.204	15766
913.318	15823
913.431	15892
913.545	15930
913.659	15907
913.772	15755
913.886	15641
914	15599
914.113	15709
914.226	15736
914.34	15648
914.453	15644
914.566	15610
914.68	15587
914.793	15450
914.906	15283
915.019	15157
915.132	15146
915.245	15256
915.358	15306
915.47	15222
915.583	15233
915.696	15272
915.809	15275
915.921	15336
916.034	15176
916.146	15199
916.259	15089
916.371	15157
916.483	15195
916.595	15047
916.708	15089
916.82	15028
916.932	15108
917.044	15058
917.156	15028
917.268	14883
917.38	14883
917.491	14838
917.603	14914
917.715	14918
917.826	14864
917.938	14739
918.049	14773
918.161	14876
918.272	14937
918.384	14929
918.495	14853
918.606	14693
918.717	14659
918.828	14590
918.939	14735
919.05	14575
919.161	14568
919.272	14400
919.383	14511
919.494	14621
919.604	14864
919.715	14621
919.826	14571
919.936	14526
920.047	14727
920.157	14602
920.267	14769
920.378	14621
920.488	14564
920.598	14796
920.708	14830
920.818	14826
920.928	14667
921.038	14948
921.148	14739
921.258	14556
921.368	14412
921.477	14362
921.587	14328
921.697	14187
921.806	14362
921.916	14195
922.025	14172
922.134	13902
922.244	14073
922.353	13967
922.462	13841
922.571	13822
922.68	13655
922.789	13495
922.898	13662
923.007	13491
923.116	13613
923.224	13605
923.333	13582
923.442	13506
923.55	13468
923.659	13438
923.767	13518
923.876	13468
923.984	13441
924.092	13282
924.201	13327
924.309	13335
924.417	13320
924.525	13297
924.633	13293
924.741	14168
924.849	13160
924.956	13145
925.064	13091
925.172	12993
925.279	13061
925.387	13107
925.494	13042
925.602	13099
925.709	12985
925.816	12973
925.924	13008
926.031	13027
926.138	12932
926.245	12989
926.352	12852
926.459	12973
926.566	13023
926.673	12882
926.779	12776
926.886	12783
926.993	12631
927.099	12555
927.206	12551
927.312	12612
927.419	12635
927.525	12555
927.631	12513
927.737	12452
927.843	12452
927.95	12350
928.056	12407
928.162	12475
928.267	12475
928.373	13069
928.479	12422
928.585	12277
928.69	12289
928.796	12437
928.901	12285
929.007	12148
929.112	12308
929.218	12197
929.323	12117
929.428	12011
929.533	12239
929.638	12076
929.743	12175
929.848	12091
929.953	12045
930.058	11920
930.163	11832
930.267	11817
930.372	12079
930.477	11790
930.581	11946
930.685	11863
930.79	11630
930.894	11775
930.998	11752
931.103	11908
931.207	11486
931.311	11376
931.415	11292
931.519	11041
931.623	11094
