Data from test_V78500241_2480.txt Node
Date: Fri Mar 25 15:58:58 CST 2022
User: usil
Spectrometer: V785-0024
Trigger mode: 0
Integration Time (sec): 4.000000E-1
Scans to average: 1
Nonlinearity correction enabled: false
Boxcar width: 0
Storing dark spectrum: false
XAxis mode: Wavelengths
Number of Pixels in Spectrum: 1024
>>>>>Begin Spectral Data<<<<<
801.071	28200
801.214	28040
801.356	27823
801.499	27888
801.641	27561
801.783	27759
801.926	27625
802.068	27759
802.211	27675
802.353	27751
802.496	27534
802.638	27389
802.78	27313
802.923	27291
803.065	27264
803.208	27214
803.35	27222
803.492	27530
803.635	27603
803.777	27576
803.919	27568
804.061	28010
804.204	27542
804.346	27618
804.488	27443
804.63	27477
804.773	27545
804.915	27633
805.057	27759
805.199	27511
805.341	27633
805.483	27648
805.626	27682
805.768	27538
805.91	27819
806.052	27762
806.194	27583
806.336	27922
806.478	27648
806.62	27732
806.762	27774
806.904	28070
807.046	28181
807.188	28207
807.33	28105
807.472	28162
807.614	28211
807.756	28082
807.898	27869
808.04	27945
808.182	27964
808.324	27899
808.465	28166
808.607	28242
808.749	28390
808.891	28329
809.033	28683
809.174	28436
809.316	28382
809.458	28226
809.6	28268
809.741	28527
809.883	28421
810.025	28672
810.166	28561
810.308	28664
810.45	28557
810.591	28508
810.733	28337
810.875	28428
811.016	28344
811.158	28287
811.299	28303
811.441	28500
811.582	28500
811.724	28394
811.865	28299
812.007	28329
812.148	28318
812.29	28459
812.431	28478
812.573	28656
812.714	28805
812.855	28847
812.997	28866
813.138	29090
813.279	28957
813.421	28797
813.562	28862
813.703	28736
813.845	28622
813.986	28272
814.127	28044
814.268	28002
814.41	28139
814.551	27934
814.692	28105
814.833	28074
814.974	28013
815.115	28120
815.256	27953
815.397	27911
815.539	27979
815.68	27876
815.821	27724
815.962	27812
816.103	27903
816.244	27778
816.385	27679
816.526	27580
816.666	27450
816.807	27348
816.948	27401
817.089	27538
817.23	27450
817.371	27443
817.512	27207
817.653	27165
817.793	27176
817.934	27306
818.075	27405
818.216	27241
818.356	27230
818.497	27332
818.638	26990
818.778	27138
818.919	27112
819.06	27081
819.2	27321
819.341	27321
819.481	27340
819.622	27420
819.762	27618
819.903	27591
820.043	27515
820.184	27561
820.324	27424
820.465	27439
820.605	27447
820.746	27492
820.886	27233
821.026	27397
821.167	27382
821.307	27583
821.447	27393
821.588	27306
821.728	27085
821.868	26948
822.008	26914
822.149	26758
822.289	26750
822.429	26602
822.569	26545
822.709	26415
822.849	26320
822.99	26259
823.13	26366
823.27	26415
823.41	26202
823.55	25932
823.69	26077
823.83	26336
823.97	26252
824.11	25898
824.25	25860
824.389	25989
824.529	26126
824.669	25986
824.809	26084
824.949	26054
825.089	26122
825.228	25986
825.368	25830
825.508	25700
825.648	25818
825.787	25902
825.927	25913
826.067	25769
826.206	25814
826.346	25826
826.485	25898
826.625	25795
826.765	25963
826.904	25856
827.044	25529
827.183	25727
827.323	25518
827.462	25495
827.601	25518
827.741	25601
827.88	25582
828.02	25464
828.159	25419
828.298	25502
828.437	25537
828.577	25597
828.716	25613
828.855	25521
828.994	25160
829.134	25164
829.273	25301
829.412	25247
829.551	25175
829.69	25377
829.829	25293
829.968	25343
830.107	25171
830.246	25324
830.385	25228
830.524	25095
830.663	25042
830.802	24970
830.941	24829
831.08	24715
831.219	24825
831.357	24981
831.496	24996
831.635	24696
831.774	24665
831.913	24635
832.051	24608
832.19	24635
832.329	24730
832.467	24646
832.606	24509
832.744	24471
832.883	24410
833.022	24479
833.16	24429
833.299	24494
833.437	24578
833.576	24585
833.714	24578
833.852	24498
833.991	24631
834.129	24753
834.267	24654
834.406	24414
834.544	24696
834.682	24601
834.821	24604
834.959	24639
835.097	24563
835.235	24787
835.373	24582
835.511	24517
835.65	24414
835.788	24566
835.926	24281
836.064	24144
836.202	24277
836.34	24365
836.478	24505
836.615	24407
836.753	24311
836.891	24380
837.029	24361
837.167	24205
837.305	24258
837.443	24232
837.58	24216
837.718	24342
837.856	24319
837.993	24186
838.131	24060
838.269	24018
838.406	24178
838.544	24053
838.681	23916
838.819	23847
838.956	23653
839.094	23672
839.231	23672
839.369	23885
839.506	24095
839.643	24003
839.781	23756
839.918	23649
840.055	23657
840.193	23608
840.33	23539
840.467	23581
840.604	23634
840.742	23859
840.879	23455
841.016	23414
841.153	23501
841.29	23619
841.427	23512
841.564	23581
841.701	23600
841.838	23573
841.975	23570
842.112	23558
842.249	23474
842.385	23474
842.522	23608
842.659	23478
842.796	23330
842.933	23269
843.069	23307
843.206	23303
843.343	23353
843.479	23303
843.616	23326
843.752	23147
843.889	23105
844.025	23235
844.162	23220
844.298	23216
844.435	23044
844.571	23113
844.708	23136
844.844	23261
844.98	23200
845.117	23280
845.253	23181
845.389	23094
845.525	23098
845.661	22968
845.798	22942
845.934	22953
846.07	22702
846.206	22858
846.342	22999
846.478	22786
846.614	22744
846.75	22618
846.886	22664
847.022	22679
847.158	22538
847.294	22675
847.429	22573
847.565	22538
847.701	22847
847.837	22466
847.972	22299
848.108	22356
848.244	22337
848.379	22116
848.515	22188
848.65	22112
848.786	22173
848.921	22272
849.057	22318
849.192	22272
849.328	22226
849.463	22120
849.598	22116
849.734	22006
849.869	22017
850.004	21934
850.14	21987
850.275	21960
850.41	21873
850.545	21884
850.68	21846
850.815	21831
850.95	21930
851.085	22044
851.22	22188
851.355	21953
851.49	21918
851.625	21953
851.76	21869
851.895	21926
852.03	21934
852.165	21922
852.299	21964
852.434	21968
852.569	21953
852.703	21846
852.838	21892
852.973	22010
853.107	22010
853.242	21816
853.376	21842
853.511	21667
853.645	21679
853.78	21873
853.914	21812
854.048	21690
854.183	21793
854.317	21774
854.451	21941
854.585	21717
854.72	21850
854.854	21850
854.988	21633
855.122	21739
855.256	21679
855.39	21755
855.524	21751
855.658	21705
855.792	21762
855.926	21675
856.06	21709
856.194	21861
856.327	21778
856.461	21667
856.595	21800
856.729	21690
856.862	21968
856.996	21720
857.13	21804
857.263	21876
857.397	21865
857.53	21671
857.664	21819
857.797	21861
857.931	21800
858.064	21724
858.197	21755
858.331	21637
858.464	21606
858.597	21641
858.731	21770
858.864	21762
858.997	21698
859.13	21755
859.263	21717
859.396	21800
859.529	21732
859.662	21774
859.795	21641
859.928	21816
860.061	21968
860.194	22025
860.327	21831
860.46	21717
860.592	21816
860.725	22025
860.858	21884
860.99	21823
861.123	21557
861.256	21698
861.388	21789
861.521	22649
861.653	21545
861.786	21610
861.918	21694
862.05	21698
862.183	21564
862.315	21713
862.447	21797
862.58	21743
862.712	21545
862.844	21572
862.976	21580
863.108	21625
863.24	21850
863.372	21443
863.504	21519
863.636	21405
863.768	21583
863.9	21507
864.032	21264
864.164	21450
864.296	21557
864.428	21599
864.559	21519
864.691	21538
864.823	21408
864.954	21530
865.086	21545
865.217	21367
865.349	21294
865.48	21428
865.612	21405
865.743	21477
865.875	21367
866.006	21393
866.137	21332
866.269	21439
866.4	21428
866.531	21416
866.662	21294
866.793	21302
866.924	21241
867.055	21275
867.186	21310
867.317	21195
867.448	21450
867.579	21268
867.71	21161
867.841	21135
867.972	21355
868.103	21116
868.233	21275
868.364	21348
868.495	21435
868.625	21587
868.756	21660
868.886	21458
869.017	21553
869.147	21728
869.278	21713
869.408	21572
869.539	21488
869.669	21534
869.799	21557
869.929	21618
870.06	21747
870.19	21903
870.32	21857
870.45	21915
870.58	21934
870.71	21987
870.84	21911
870.97	22017
871.1	22067
871.23	22063
871.36	22188
871.489	22147
871.619	22116
871.749	22097
871.879	22299
872.008	22344
872.138	22185
872.267	22143
872.397	21998
872.526	21960
872.656	22006
872.785	21994
872.915	22249
873.044	22166
873.173	22116
873.303	22280
873.432	22238
873.561	22333
873.69	22238
873.819	22280
873.948	22238
874.077	22226
874.206	22090
874.335	22177
874.464	22356
874.593	22474
874.722	22257
874.851	22409
874.979	22493
875.108	22417
875.237	22398
875.365	22310
875.494	22337
875.623	22493
875.751	22440
875.88	22310
876.008	22459
876.136	22653
876.265	22843
876.393	23083
876.521	22862
876.65	22873
876.778	22793
876.906	22744
877.034	22736
877.162	22755
877.29	22752
877.418	22740
877.546	22858
877.674	22763
877.802	22733
877.93	22702
878.058	22809
878.185	22630
878.313	22702
878.441	22687
878.568	22557
878.696	22675
878.824	22706
878.951	22824
879.079	22866
879.206	23105
879.333	22809
879.461	22828
879.588	22904
879.715	22976
879.842	22968
879.97	22812
880.097	22565
880.224	22573
880.351	22554
880.478	22812
880.605	22573
880.732	22538
880.859	22828
880.986	22615
881.112	22485
881.239	22344
881.366	22303
881.493	22158
881.619	22029
881.746	22265
881.872	22158
881.999	22074
882.125	22162
882.252	22143
882.378	22044
882.505	22253
882.631	21884
882.757	21915
882.883	21987
883.01	21804
883.136	21857
883.262	21663
883.388	21660
883.514	21945
883.64	21953
883.766	21671
883.892	21511
884.018	21694
884.143	21736
884.269	21778
884.395	21610
884.52	21416
884.646	21587
884.772	21397
884.897	21367
885.023	21378
885.148	21580
885.274	21591
885.399	21633
885.524	21447
885.65	21485
885.775	21412
885.9	21382
886.025	21511
886.15	21488
886.275	21610
886.4	21416
886.525	21370
886.65	21367
886.775	21348
886.9	21523
887.025	21606
887.149	21310
887.274	21272
887.399	21123
887.523	21230
887.648	21180
887.773	21104
887.897	21431
888.021	21203
888.146	21131
888.27	21313
888.395	21313
888.519	21184
888.643	21245
888.767	21226
888.891	21135
889.015	21005
889.139	21192
889.263	20971
889.387	21127
889.511	21157
889.635	21077
889.759	21047
889.883	21036
890.006	21081
890.13	21150
890.254	20937
890.377	20902
890.501	20735
890.624	20823
890.748	20811
890.871	20629
890.995	20670
891.118	20530
891.241	20636
891.364	20476
891.488	20758
891.611	20621
891.734	20598
891.857	20602
891.98	20621
892.103	20625
892.226	20587
892.349	20473
892.471	20396
892.594	20514
892.717	20514
892.839	20400
892.962	20457
893.085	20537
893.207	20507
893.33	20408
893.452	20313
893.575	20446
893.697	20587
893.819	20617
893.941	20552
894.064	20670
894.186	20358
894.308	20389
894.43	20533
894.552	20583
894.674	20636
894.796	20366
894.918	20434
895.04	20427
895.161	20552
895.283	20522
895.405	20431
895.526	20438
895.648	20556
895.769	20571
895.891	20606
896.012	20469
896.134	20590
896.255	20480
896.376	20450
896.498	20469
896.619	20480
896.74	20537
896.861	20518
896.982	20739
897.103	20933
897.224	20804
897.345	20651
897.466	20636
897.587	20800
897.708	20838
897.828	20644
897.949	20541
898.07	20419
898.19	20689
898.311	20663
898.431	20693
898.552	20781
898.672	20853
898.792	20686
898.913	20750
899.033	20625
899.153	20457
899.273	20332
899.393	20454
899.513	20423
899.633	20495
899.753	20522
899.873	20461
899.993	20358
900.113	20339
900.232	20423
900.352	20339
900.472	20343
900.591	20176
900.711	20111
900.83	20309
900.95	20286
901.069	20282
901.189	20103
901.308	19906
901.427	19803
901.546	19849
901.665	19753
901.784	19803
901.904	19696
902.023	19521
902.141	19430
902.26	19381
902.379	19362
902.498	19346
902.617	19255
902.735	19274
902.854	19179
902.973	19324
903.091	18977
903.21	18962
903.328	19042
903.446	18951
903.565	18703
903.683	18863
903.801	18719
903.919	18730
904.038	18741
904.156	18661
904.274	18612
904.392	18479
904.51	18513
904.627	18517
904.745	18642
904.863	18566
904.981	18277
905.098	18224
905.216	18247
905.334	18190
905.451	18243
905.569	18106
905.686	18216
905.803	18186
905.921	18076
906.038	18155
906.155	18087
906.272	17790
906.389	17939
906.506	17775
906.623	17764
906.74	17786
906.857	17638
906.974	17642
907.091	17802
907.208	17843
907.324	17707
907.441	17634
907.557	17478
907.674	17402
907.79	17444
907.907	17376
908.023	17463
908.139	17509
908.256	17349
908.372	17341
908.488	17284
908.604	17208
908.72	17197
908.836	17193
908.952	17208
909.068	17143
909.184	17292
909.3	17189
909.415	17185
909.531	17121
909.647	16953
909.762	16892
909.878	16729
909.993	16911
910.108	16816
910.224	16740
910.339	16801
910.454	16744
910.57	16717
910.685	16607
910.8	16862
910.915	16824
911.03	16637
911.145	16519
911.259	16413
911.374	16371
911.489	16299
911.604	16268
911.718	16238
911.833	16181
911.947	16211
912.062	16032
912.176	16200
912.291	16207
912.405	16177
912.519	16341
912.633	16344
912.748	16135
912.862	16139
912.976	15998
913.09	15926
913.204	15918
913.318	15953
913.431	16109
913.545	16051
913.659	16158
913.772	15922
913.886	15755
914	15804
914.113	15869
914.226	15888
914.34	15762
914.453	15667
914.566	15850
914.68	15663
914.793	15652
914.906	15466
915.019	15370
915.132	15363
915.245	15355
915.358	15450
915.47	15428
915.583	15374
915.696	15382
915.809	15492
915.921	15496
916.034	15283
916.146	15332
916.259	15260
916.371	15454
916.483	15279
916.595	15218
916.708	15310
916.82	15321
916.932	15252
917.044	15180
917.156	15043
917.268	14990
917.38	15100
917.491	15058
917.603	15184
917.715	15097
917.826	15150
917.938	14906
918.049	14811
918.161	14876
918.272	15184
918.384	15104
918.495	15017
918.606	14902
918.717	14807
918.828	14838
918.939	14804
919.05	14727
919.161	14754
919.272	14587
919.383	14651
919.494	14785
919.604	15039
919.715	14777
919.826	14610
919.936	14739
920.047	14788
920.157	14796
920.267	14971
920.378	14785
920.488	14777
920.598	15001
920.708	15051
920.818	14781
920.928	14857
921.038	15062
921.148	14899
921.258	14701
921.368	14705
921.477	14522
921.587	14503
921.697	14275
921.806	14442
921.916	14320
922.025	14145
922.134	14088
922.244	14024
922.353	14168
922.462	13974
922.571	14035
922.68	13765
922.789	13814
922.898	13704
923.007	13750
923.116	13803
923.224	13784
923.333	13704
923.442	13597
923.55	13586
923.659	13575
923.767	13605
923.876	13578
923.984	13632
924.092	13438
924.201	13544
924.309	13540
924.417	13419
924.525	13396
924.633	13430
924.741	14237
924.849	13213
924.956	13358
925.064	13202
925.172	13168
925.279	13137
925.387	13141
925.494	13110
925.602	13316
925.709	13175
925.816	13034
925.924	13141
926.031	13137
926.138	13160
926.245	13194
926.352	13015
926.459	13065
926.566	13084
926.673	12981
926.779	12958
926.886	12935
926.993	12802
927.099	12817
927.206	12654
927.312	12681
927.419	12760
927.525	12753
927.631	12730
927.737	12612
927.843	12563
927.95	12536
928.056	12593
928.162	12509
928.267	12604
928.373	13293
928.479	12627
928.585	12308
928.69	12525
928.796	12544
928.901	12528
929.007	12311
929.112	12346
929.218	12395
929.323	12273
929.428	12308
929.533	12433
929.638	12224
929.743	12296
929.848	12289
929.953	12186
930.058	12095
930.163	11885
930.267	12007
930.372	12083
930.477	11946
930.581	12121
930.685	11946
930.79	11874
930.894	11836
930.998	11893
931.103	11870
931.207	11528
931.311	11539
931.415	11505
931.519	11216
931.623	11239
