Data from test_V78500241_1756.txt Node
Date: Fri Mar 25 15:53:57 CST 2022
User: usil
Spectrometer: V785-0024
Trigger mode: 0
Integration Time (sec): 4.000000E-1
Scans to average: 1
Nonlinearity correction enabled: false
Boxcar width: 0
Storing dark spectrum: false
XAxis mode: Wavelengths
Number of Pixels in Spectrum: 1024
>>>>>Begin Spectral Data<<<<<
801.071	28637
801.214	28653
801.356	28379
801.499	28379
801.641	28223
801.783	28124
801.926	28314
802.068	28112
802.211	28147
802.353	28135
802.496	28025
802.638	27888
802.78	27964
802.923	27793
803.065	27812
803.208	27838
803.35	27701
803.492	28010
803.635	28017
803.777	27838
803.919	28101
804.061	28462
804.204	28143
804.346	28162
804.488	28021
804.63	28086
804.773	28063
804.915	28109
805.057	28287
805.199	28158
805.341	28207
805.483	28215
805.626	28375
805.768	28139
805.91	28280
806.052	28325
806.194	28131
806.336	28497
806.478	28238
806.62	28276
806.762	28519
806.904	28481
807.046	28858
807.188	28691
807.33	28801
807.472	28683
807.614	28618
807.756	28755
807.898	28565
808.04	28546
808.182	28481
808.324	28550
808.465	28653
808.607	28892
808.749	29083
808.891	28965
809.033	29083
809.174	29090
809.316	28999
809.458	28923
809.6	29018
809.741	29098
809.883	29220
810.025	29364
810.166	29402
810.308	29334
810.45	29155
810.591	29204
810.733	29060
810.875	29044
811.016	28828
811.158	28923
811.299	29079
811.441	29094
811.582	29083
811.724	28976
811.865	28850
812.007	28968
812.148	28873
812.29	29022
812.431	29178
812.573	29334
812.714	29474
812.855	29661
812.997	29596
813.138	29790
813.279	29646
813.421	29524
813.562	29391
813.703	29387
813.845	29208
813.986	28938
814.127	28759
814.268	28596
814.41	28771
814.551	28656
814.692	28713
814.833	28656
814.974	28596
815.115	28645
815.256	28607
815.397	28592
815.539	28607
815.68	28542
815.821	28436
815.962	28519
816.103	28565
816.244	28447
816.385	28242
816.526	28314
816.666	28036
816.807	28021
816.948	28048
817.089	28063
817.23	27888
817.371	27991
817.512	27991
817.653	27922
817.793	28006
817.934	28063
818.075	28101
818.216	27960
818.356	28017
818.497	27846
818.638	27686
818.778	27774
818.919	27675
819.06	27808
819.2	27907
819.341	28086
819.481	27972
819.622	28109
819.762	28447
819.903	28120
820.043	28211
820.184	28234
820.324	28154
820.465	28223
820.605	28048
820.746	28143
820.886	27960
821.026	28177
821.167	28010
821.307	28143
821.447	28078
821.588	27899
821.728	27854
821.868	27694
822.008	27553
822.149	27393
822.289	27321
822.429	27272
822.569	27161
822.709	27256
822.849	27017
822.99	26979
823.13	26921
823.27	26960
823.41	26815
823.55	26769
823.69	26811
823.83	26777
823.97	26693
824.11	26499
824.25	26739
824.389	26537
824.529	26655
824.669	26716
824.809	26804
824.949	26659
825.089	26765
825.228	26739
825.368	26450
825.508	26476
825.648	26579
825.787	26686
825.927	26530
826.067	26351
826.206	26587
826.346	26621
826.485	26613
826.625	26427
826.765	26545
826.904	26636
827.044	26240
827.183	26301
827.323	26107
827.462	26309
827.601	26396
827.741	26187
827.88	26248
828.02	26195
828.159	26195
828.298	26290
828.437	26305
828.577	26103
828.716	26328
828.855	26126
828.994	26039
829.134	26035
829.273	26001
829.412	25772
829.551	25822
829.69	25791
829.829	25772
829.968	25932
830.107	25986
830.246	25936
830.385	25898
830.524	25746
830.663	25715
830.802	25738
830.941	25548
831.08	25422
831.219	25635
831.357	25537
831.496	25830
831.635	25514
831.774	25495
831.913	25381
832.051	25316
832.19	25285
832.329	25259
832.467	25156
832.606	25103
832.744	25183
832.883	25240
833.022	25145
833.16	25236
833.299	25221
833.437	25076
833.576	25320
833.714	25316
833.852	25301
833.991	25278
834.129	25339
834.267	25282
834.406	25240
834.544	25232
834.682	25350
834.821	25183
834.959	25430
835.097	25031
835.235	25244
835.373	25270
835.511	25225
835.65	25023
835.788	25057
835.926	25076
836.064	24989
836.202	24966
836.34	25129
836.478	25164
836.615	25057
836.753	25107
836.891	25057
837.029	25107
837.167	25061
837.305	24977
837.443	25015
837.58	24935
837.718	24905
837.856	24894
837.993	24905
838.131	24928
838.269	24806
838.406	24939
838.544	24844
838.681	24570
838.819	24597
838.956	24426
839.094	24365
839.231	24273
839.369	24517
839.506	24806
839.643	24566
839.781	24456
839.918	24277
840.055	24433
840.193	24209
840.33	24281
840.467	24353
840.604	24384
840.742	24456
840.879	23992
841.016	24194
841.153	24053
841.29	24433
841.427	24258
841.564	24304
841.701	24266
841.838	24235
841.975	24136
842.112	24068
842.249	24003
842.385	23901
842.522	24205
842.659	24098
842.796	24022
842.933	24011
843.069	23973
843.206	23935
843.343	24015
843.479	23939
843.616	23931
843.752	23748
843.889	23805
844.025	23855
844.162	23703
844.298	23878
844.435	23866
844.571	23699
844.708	23904
844.844	23840
844.98	23916
845.117	23851
845.253	23668
845.389	23672
845.525	23608
845.661	23707
845.798	23501
845.934	23676
846.07	23463
846.206	23463
846.342	23604
846.478	23478
846.614	23246
846.75	23109
846.886	23128
847.022	23311
847.158	23303
847.294	23322
847.429	23258
847.565	23288
847.701	23417
847.837	23121
847.972	22946
848.108	22999
848.244	23029
848.379	23033
848.515	22919
848.65	22759
848.786	22866
848.921	22999
849.057	22965
849.192	22968
849.328	22828
849.463	22919
849.598	22790
849.734	22656
849.869	22725
850.004	22535
850.14	22637
850.275	22649
850.41	22615
850.545	22596
850.68	22432
850.815	22691
850.95	22592
851.085	22740
851.22	22809
851.355	22687
851.49	22535
851.625	22569
851.76	22451
851.895	22584
852.03	22402
852.165	22554
852.299	22474
852.434	22637
852.569	22698
852.703	22637
852.838	22752
852.973	22733
853.107	22660
853.242	22531
853.376	22443
853.511	22257
853.645	22352
853.78	22554
853.914	22455
854.048	22523
854.183	22344
854.317	22314
854.451	22573
854.585	22481
854.72	22337
854.854	22394
854.988	22329
855.122	22390
855.256	22185
855.39	22447
855.524	22394
855.658	22462
855.792	22516
855.926	22481
856.06	22394
856.194	22474
856.327	22390
856.461	22436
856.595	22455
856.729	22394
856.862	22535
856.996	22500
857.13	22512
857.263	22432
857.397	22493
857.53	22341
857.664	22478
857.797	22417
857.931	22493
858.064	22382
858.197	22531
858.331	22440
858.464	22272
858.597	22341
858.731	22402
858.864	22356
858.997	22402
859.13	22443
859.263	22390
859.396	22440
859.529	22413
859.662	22375
859.795	22390
859.928	22405
860.061	22550
860.194	22557
860.327	22478
860.46	22322
860.592	22497
860.725	22455
860.858	22580
860.99	22287
861.123	22299
861.256	22341
861.388	22428
861.521	22968
861.653	22257
861.786	22219
861.918	22287
862.05	22299
862.183	22306
862.315	22287
862.447	22443
862.58	22276
862.712	22059
862.844	22093
862.976	22249
863.108	22112
863.24	22428
863.372	22051
863.504	22147
863.636	22048
863.768	22131
863.9	22150
864.032	22120
864.164	22074
864.296	22078
864.428	22105
864.559	22196
864.691	22268
864.823	22261
864.954	22078
865.086	21975
865.217	21979
865.349	21945
865.48	22070
865.612	22036
865.743	22090
865.875	21941
866.006	22044
866.137	22044
866.269	21960
866.4	21960
866.531	21869
866.662	21911
866.793	21850
866.924	21918
867.055	21994
867.186	22116
867.317	21945
867.448	21819
867.579	21926
867.71	21785
867.841	21880
867.972	22006
868.103	21926
868.233	22032
868.364	21873
868.495	22013
868.625	22173
868.756	22196
868.886	22063
869.017	22131
869.147	22329
869.278	22242
869.408	22211
869.539	22150
869.669	22276
869.799	22257
869.929	22314
870.06	22348
870.19	22428
870.32	22371
870.45	22462
870.58	22516
870.71	22649
870.84	22653
870.97	22603
871.1	22523
871.23	22744
871.36	22828
871.489	22664
871.619	22637
871.749	22793
871.879	22698
872.008	22847
872.138	22702
872.267	22763
872.397	22618
872.526	22550
872.656	22504
872.785	22588
872.915	22854
873.044	22774
873.173	22767
873.303	22824
873.432	22824
873.561	22850
873.69	22885
873.819	22710
873.948	22915
874.077	22740
874.206	22759
874.335	22744
874.464	22771
874.593	23041
874.722	22824
874.851	22976
874.979	22987
875.108	22991
875.237	22934
875.365	23003
875.494	22991
875.623	23010
875.751	22984
875.88	23128
876.008	23124
876.136	23216
876.265	23379
876.393	23505
876.521	23440
876.65	23436
876.778	23402
876.906	23444
877.034	23303
877.162	23406
877.29	23235
877.418	23318
877.546	23360
877.674	23220
877.802	23212
877.93	23296
878.058	23322
878.185	23239
878.313	23193
878.441	23440
878.568	23143
878.696	23330
878.824	23379
878.951	23444
879.079	23379
879.206	23585
879.333	23406
879.461	23463
879.588	23383
879.715	23478
879.842	23653
879.97	23486
880.097	23250
880.224	23094
880.351	23185
880.478	23166
880.605	23159
880.732	23132
880.859	23315
880.986	23212
881.112	23155
881.239	22999
881.366	22858
881.493	22839
881.619	22660
881.746	22672
881.872	22778
881.999	22733
882.125	22649
882.252	22721
882.378	22607
882.505	22736
882.631	22557
882.757	22455
882.883	22417
883.01	22371
883.136	22257
883.262	22166
883.388	22055
883.514	22226
883.64	22352
883.766	22360
883.892	22207
884.018	22333
884.143	22242
884.269	22497
884.395	22188
884.52	21949
884.646	21964
884.772	21895
884.897	21850
885.023	21953
885.148	22105
885.274	22295
885.399	22139
885.524	22082
885.65	22029
885.775	22105
885.9	21972
886.025	22131
886.15	22078
886.275	21934
886.4	21873
886.525	21907
886.65	21956
886.775	21945
886.9	22211
887.025	22097
887.149	21949
887.274	21915
887.399	21644
887.523	21759
887.648	21701
887.773	21595
887.897	21831
888.021	21895
888.146	21652
888.27	21743
888.395	21838
888.519	21747
888.643	21838
888.767	21854
888.891	21656
889.015	21492
889.139	21629
889.263	21599
889.387	21682
889.511	21838
889.635	21656
889.759	21534
889.883	21549
890.006	21526
890.13	21625
890.254	21519
890.377	21443
890.501	21287
890.624	21298
890.748	21325
890.871	21192
890.995	21119
891.118	21214
891.241	21169
891.364	21043
891.488	21226
891.611	21222
891.734	21218
891.857	21321
891.98	21089
892.103	21180
892.226	21062
892.349	21096
892.471	20925
892.594	21096
892.717	20994
892.839	21074
892.962	20956
893.085	21138
893.207	21119
893.33	20864
893.452	20914
893.575	21150
893.697	21055
893.819	21116
893.941	21348
894.064	21169
894.186	21081
894.308	20899
894.43	21119
894.552	21192
894.674	21165
894.796	20986
894.918	21066
895.04	21066
895.161	21043
895.283	20975
895.405	20937
895.526	20944
895.648	20868
895.769	21077
895.891	20960
896.012	21154
896.134	21058
896.255	21077
896.376	21070
896.498	20906
896.619	21138
896.74	21093
896.861	21039
896.982	21313
897.103	21481
897.224	21294
897.345	21355
897.466	21165
897.587	21329
897.708	21340
897.828	21291
897.949	21154
898.07	21138
898.19	21218
898.311	21298
898.431	21161
898.552	21233
898.672	21272
898.792	21211
898.913	21245
899.033	21199
899.153	21032
899.273	20815
899.393	20967
899.513	21062
899.633	20956
899.753	20956
899.873	20834
899.993	21020
900.113	20857
900.232	20914
900.352	20838
900.472	20765
900.591	20861
900.711	20762
900.83	20781
900.95	20777
901.069	20769
901.189	20636
901.308	20400
901.427	20290
901.546	20309
901.665	20339
901.784	20320
901.904	20157
902.023	20020
902.141	19936
902.26	19811
902.379	19940
902.498	19849
902.617	19807
902.735	19833
902.854	19780
902.973	19795
903.091	19426
903.21	19438
903.328	19483
903.446	19308
903.565	19331
903.683	19225
903.801	19122
903.919	19198
904.038	19198
904.156	18966
904.274	19061
904.392	18924
904.51	18928
904.627	18993
904.745	18939
904.863	19031
904.981	18806
905.098	18783
905.216	18795
905.334	18749
905.451	18688
905.569	18711
905.686	18669
905.803	18635
905.921	18418
906.038	18566
906.155	18506
906.272	18391
906.389	18498
906.506	18178
906.623	18281
906.74	18205
906.857	18049
906.974	18091
907.091	18277
907.208	18266
907.324	18220
907.441	18121
907.557	17923
907.674	17908
907.79	17878
907.907	17889
908.023	17863
908.139	18022
908.256	17752
908.372	17779
908.488	17786
908.604	17733
908.72	17649
908.836	17604
908.952	17528
909.068	17661
909.184	17783
909.3	17581
909.415	17573
909.531	17589
909.647	17315
909.762	17387
909.878	17307
909.993	17337
910.108	17345
910.224	17334
910.339	17254
910.454	17170
910.57	17117
910.685	17056
910.8	17284
910.915	17261
911.03	17109
911.145	16949
911.259	16873
911.374	16995
911.489	16873
911.604	16828
911.718	16710
911.833	16656
911.947	16618
912.062	16402
912.176	16656
912.291	16763
912.405	16645
912.519	16900
912.633	16862
912.748	16672
912.862	16580
912.976	16481
913.09	16421
913.204	16428
913.318	16554
913.431	16565
913.545	16500
913.659	16561
913.772	16474
913.886	16219
914	16291
914.113	16314
914.226	16325
914.34	16322
914.453	16265
914.566	16265
914.68	16162
914.793	16021
914.906	15968
915.019	15907
915.132	15728
915.245	15804
915.358	15880
915.47	15835
915.583	15789
915.696	15816
915.809	15945
915.921	15895
916.034	15762
916.146	15701
916.259	15606
916.371	15816
916.483	15774
916.595	15663
916.708	15652
916.82	15652
916.932	15698
917.044	15622
917.156	15523
917.268	15519
917.38	15561
917.491	15374
917.603	15458
917.715	15492
917.826	15595
917.938	15447
918.049	15241
918.161	15344
918.272	15515
918.384	15538
918.495	15401
918.606	15135
918.717	15260
918.828	15264
918.939	15180
919.05	15154
919.161	15058
919.272	14921
919.383	15036
919.494	15188
919.604	15260
919.715	15279
919.826	15009
919.936	15070
920.047	15188
920.157	15154
920.267	15313
920.378	15230
920.488	15097
920.598	15367
920.708	15519
920.818	15218
920.928	15256
921.038	15466
921.148	15344
921.258	15055
921.368	14971
921.477	14937
921.587	14807
921.697	14781
921.806	14853
921.916	14682
922.025	14602
922.134	14587
922.244	14488
922.353	14511
922.462	14404
922.571	14275
922.68	14202
922.789	14138
922.898	14221
923.007	14145
923.116	14218
923.224	14191
923.333	14103
923.442	13967
923.55	13955
923.659	14058
923.767	13997
923.876	13898
923.984	13898
924.092	13784
924.201	13890
924.309	13837
924.417	13776
924.525	13799
924.633	13811
924.741	14533
924.849	13594
924.956	13636
925.064	13639
925.172	13449
925.279	13521
925.387	13597
925.494	13575
925.602	13636
925.709	13613
925.816	13388
925.924	13487
926.031	13590
926.138	13464
926.245	13537
926.352	13369
926.459	13468
926.566	13537
926.673	13289
926.779	13354
926.886	13285
926.993	13095
927.099	13095
927.206	13061
927.312	13008
927.419	13076
927.525	13023
927.631	13076
927.737	13088
927.843	12966
927.95	12791
928.056	12958
928.162	12859
928.267	12878
928.373	13514
928.479	12943
928.585	12734
928.69	12764
928.796	12848
928.901	12795
929.007	12578
929.112	12795
929.218	12669
929.323	12696
929.428	12547
929.533	12753
929.638	12536
929.743	12494
929.848	12604
929.953	12547
930.058	12414
930.163	12213
930.267	12308
930.372	12361
930.477	12194
930.581	12464
930.685	12296
930.79	12167
930.894	12159
930.998	12091
931.103	12273
931.207	11855
931.311	11882
931.415	11790
931.519	11562
931.623	11497
