Data from test_V78500241_1393.txt Node
Date: Fri Mar 25 15:51:27 CST 2022
User: usil
Spectrometer: V785-0024
Trigger mode: 0
Integration Time (sec): 4.000000E-1
Scans to average: 1
Nonlinearity correction enabled: false
Boxcar width: 0
Storing dark spectrum: false
XAxis mode: Wavelengths
Number of Pixels in Spectrum: 1024
>>>>>Begin Spectral Data<<<<<
801.071	28044
801.214	28006
801.356	27793
801.499	27770
801.641	27557
801.783	27606
801.926	27511
802.068	27606
802.211	27393
802.353	27492
802.496	27310
802.638	27348
802.78	27184
802.923	27123
803.065	26948
803.208	27119
803.35	27207
803.492	27538
803.635	27458
803.777	27302
803.919	27439
804.061	27804
804.204	27523
804.346	27370
804.488	27340
804.63	27397
804.773	27310
804.915	27427
805.057	27462
805.199	27420
805.341	27405
805.483	27614
805.626	27580
805.768	27439
805.91	27519
806.052	27519
806.194	27572
806.336	27682
806.478	27663
806.62	27564
806.762	27759
806.904	27770
807.046	27994
807.188	27960
807.33	27994
807.472	28082
807.614	28017
807.756	27987
807.898	27755
808.04	27720
808.182	27876
808.324	27812
808.465	28002
808.607	28143
808.749	28200
808.891	28211
809.033	28337
809.174	28341
809.316	28246
809.458	28238
809.6	28158
809.741	28257
809.883	28341
810.025	28398
810.166	28573
810.308	28516
810.45	28424
810.591	28344
810.733	28181
810.875	28276
811.016	27983
811.158	28207
811.299	28348
811.441	28284
811.582	28284
811.724	28287
811.865	28101
812.007	28219
812.148	28169
812.29	28124
812.431	28470
812.573	28474
812.714	28615
812.855	28767
812.997	28790
813.138	28965
813.279	28790
813.421	28603
813.562	28755
813.703	28527
813.845	28409
813.986	28173
814.127	28135
814.268	27899
814.41	27941
814.551	28002
814.692	27930
814.833	27903
814.974	27762
815.115	28006
815.256	27732
815.397	27835
815.539	27705
815.68	27671
815.821	27557
815.962	27644
816.103	27694
816.244	27595
816.385	27534
816.526	27572
816.666	27367
816.807	27233
816.948	27260
817.089	27317
817.23	27230
817.371	27195
817.512	27161
817.653	27249
817.793	27169
817.934	27199
818.075	27203
818.216	27207
818.356	27028
818.497	27127
818.638	26887
818.778	27036
818.919	27009
819.06	26971
819.2	27116
819.341	27104
819.481	27108
819.622	27317
819.762	27564
819.903	27370
820.043	27397
820.184	27184
820.324	27279
820.465	27332
820.605	27203
820.746	27386
820.886	27085
821.026	27325
821.167	27256
821.307	27416
821.447	27203
821.588	27249
821.728	26979
821.868	26686
822.008	26712
822.149	26716
822.289	26571
822.429	26381
822.569	26377
822.709	26278
822.849	26218
822.99	26244
823.13	26020
823.27	26172
823.41	26069
823.55	25841
823.69	26031
823.83	26031
823.97	26008
824.11	25708
824.25	25761
824.389	25890
824.529	25868
824.669	25807
824.809	25860
824.949	25932
825.089	25909
825.228	25864
825.368	25708
825.508	25731
825.648	25594
825.787	25567
825.927	25860
826.067	25666
826.206	25689
826.346	25681
826.485	25628
826.625	25639
826.765	25902
826.904	25582
827.044	25434
827.183	25369
827.323	25377
827.462	25396
827.601	25285
827.741	25362
827.88	25457
828.02	25202
828.159	25392
828.298	25400
828.437	25430
828.577	25365
828.716	25411
828.855	25278
828.994	25152
829.134	25031
829.273	25095
829.412	24932
829.551	25088
829.69	25015
829.829	25088
829.968	25232
830.107	25008
830.246	25145
830.385	24894
830.524	24871
830.663	24814
830.802	24745
830.941	24612
831.08	24635
831.219	24776
831.357	24772
831.496	24837
831.635	24749
831.774	24608
831.913	24525
832.051	24509
832.19	24551
832.329	24403
832.467	24353
832.606	24300
832.744	24346
832.883	24273
833.022	24182
833.16	24327
833.299	24513
833.437	24205
833.576	24346
833.714	24528
833.852	24437
833.991	24437
834.129	24509
834.267	24391
834.406	24471
834.544	24399
834.682	24433
834.821	24391
834.959	24525
835.097	24334
835.235	24452
835.373	24467
835.511	24391
835.65	24121
835.788	24395
835.926	24182
836.064	24003
836.202	24068
836.34	24266
836.478	24273
836.615	24121
836.753	24254
836.891	24159
837.029	24239
837.167	24091
837.305	24174
837.443	24174
837.58	24076
837.718	23992
837.856	24224
837.993	23939
838.131	23969
838.269	24022
838.406	24015
838.544	23870
838.681	23699
838.819	23726
838.956	23611
839.094	23539
839.231	23570
839.369	23596
839.506	23969
839.643	23942
839.781	23490
839.918	23467
840.055	23535
840.193	23566
840.33	23452
840.467	23520
840.604	23535
840.742	23752
840.879	23246
841.016	23398
841.153	23490
841.29	23459
841.427	23444
841.564	23482
841.701	23414
841.838	23474
841.975	23436
842.112	23391
842.249	23303
842.385	23197
842.522	23410
842.659	23273
842.796	23216
842.933	23223
843.069	23223
843.206	23170
843.343	23299
843.479	23170
843.616	23204
843.752	23109
843.889	22976
844.025	23197
844.162	22957
844.298	23029
844.435	23033
844.571	22896
844.708	23067
844.844	23159
844.98	23162
845.117	23071
845.253	22919
845.389	22873
845.525	22820
845.661	22828
845.798	22721
845.934	22759
846.07	22778
846.206	22774
846.342	22736
846.478	22698
846.614	22660
846.75	22478
846.886	22443
847.022	22497
847.158	22538
847.294	22405
847.429	22466
847.565	22390
847.701	22546
847.837	22169
847.972	22147
848.108	22246
848.244	22204
848.379	22101
848.515	22025
848.65	22044
848.786	21987
848.921	22051
849.057	21991
849.192	22044
849.328	22097
849.463	22040
849.598	21903
849.734	21949
849.869	21831
850.004	21842
850.14	21907
850.275	21873
850.41	21656
850.545	21812
850.68	21709
850.815	21941
850.95	21648
851.085	22086
851.22	21956
851.355	21937
851.49	21804
851.625	21857
851.76	21838
851.895	21762
852.03	21728
852.165	21808
852.299	21869
852.434	21831
852.569	21991
852.703	21808
852.838	21831
852.973	21865
853.107	21895
853.242	21827
853.376	21739
853.511	21587
853.645	21591
853.78	21800
853.914	21637
854.048	21500
854.183	21545
854.317	21675
854.451	21698
854.585	21671
854.72	21580
854.854	21736
854.988	21549
855.122	21526
855.256	21473
855.39	21671
855.524	21656
855.658	21679
855.792	21728
855.926	21720
856.06	21705
856.194	21766
856.327	21675
856.461	21507
856.595	21568
856.729	21504
856.862	21728
856.996	21690
857.13	21660
857.263	21663
857.397	21595
857.53	21576
857.664	21637
857.797	21682
857.931	21709
858.064	21629
858.197	21812
858.331	21564
858.464	21610
858.597	21420
858.731	21625
858.864	21618
858.997	21542
859.13	21583
859.263	21641
859.396	21793
859.529	21622
859.662	21709
859.795	21648
859.928	21622
860.061	21838
860.194	21736
860.327	21698
860.46	21667
860.592	21793
860.725	21812
860.858	21755
860.99	21622
861.123	21545
861.256	21564
861.388	21603
861.521	22322
861.653	21553
861.786	21329
861.918	21428
862.05	21534
862.183	21393
862.315	21713
862.447	21648
862.58	21549
862.712	21466
862.844	21199
862.976	21458
863.108	21370
863.24	21865
863.372	21264
863.504	21355
863.636	21272
863.768	21329
863.9	21310
864.032	21180
864.164	21237
864.296	21336
864.428	21450
864.559	21359
864.691	21386
864.823	21469
864.954	21351
865.086	21287
865.217	21275
865.349	21180
865.48	21310
865.612	21241
865.743	21329
865.875	21287
866.006	21127
866.137	21203
866.269	21275
866.4	21249
866.531	21161
866.662	21020
866.793	21195
866.924	21089
867.055	21157
867.186	21096
867.317	21047
867.448	21077
867.579	21188
867.71	21211
867.841	21020
867.972	21127
868.103	21203
868.233	21074
868.364	21249
868.495	21363
868.625	21447
868.756	21587
868.886	21340
869.017	21329
869.147	21526
869.278	21530
869.408	21496
869.539	21336
869.669	21481
869.799	21599
869.929	21580
870.06	21504
870.19	21774
870.32	21770
870.45	21755
870.58	21793
870.71	21899
870.84	21892
870.97	21720
871.1	21861
871.23	22021
871.36	21960
871.489	21903
871.619	21983
871.749	22044
871.879	22086
872.008	22093
872.138	22036
872.267	22006
872.397	21808
872.526	21869
872.656	21793
872.785	21842
872.915	22013
873.044	22029
873.173	22006
873.303	22112
873.432	22116
873.561	22150
873.69	21991
873.819	21949
873.948	21972
874.077	21941
874.206	21972
874.335	21991
874.464	22116
874.593	22238
874.722	22226
874.851	22249
874.979	22242
875.108	22276
875.237	22295
875.365	22116
875.494	22223
875.623	22299
875.751	22257
875.88	22291
876.008	22287
876.136	22470
876.265	22721
876.393	22694
876.521	22615
876.65	22763
876.778	22607
876.906	22611
877.034	22550
877.162	22493
877.29	22679
877.418	22447
877.546	22580
877.674	22588
877.802	22527
877.93	22577
878.058	22546
878.185	22428
878.313	22519
878.441	22694
878.568	22405
878.696	22417
878.824	22615
878.951	22672
879.079	22828
879.206	22953
879.333	22843
879.461	22557
879.588	22573
879.715	22839
879.842	22824
879.97	22641
880.097	22356
880.224	22474
880.351	22500
880.478	22466
880.605	22382
880.732	22375
880.859	22653
880.986	22436
881.112	22386
881.239	22299
881.366	22192
881.493	22059
881.619	21903
881.746	22120
881.872	22051
881.999	21899
882.125	21930
882.252	22029
882.378	21937
882.505	22067
882.631	21835
882.757	21797
882.883	21880
883.01	21743
883.136	21671
883.262	21553
883.388	21492
883.514	21751
883.64	21701
883.766	21557
883.892	21359
884.018	21458
884.143	21663
884.269	21595
884.395	21496
884.52	21424
884.646	21325
884.772	21317
884.897	21302
885.023	21428
885.148	21367
885.274	21466
885.399	21340
885.524	21233
885.65	21386
885.775	21313
885.9	21306
886.025	21332
886.15	21389
886.275	21256
886.4	21249
886.525	21241
886.65	21252
886.775	21226
886.9	21466
887.025	21545
887.149	21222
887.274	21123
887.399	21093
887.523	21032
887.648	21028
887.773	20914
887.897	21001
888.021	21188
888.146	21112
888.27	21245
888.395	21195
888.519	21135
888.643	21135
888.767	21058
888.891	21074
889.015	20902
889.139	20941
889.263	20857
889.387	20910
889.511	21081
889.635	21009
889.759	20781
889.883	20880
890.006	20773
890.13	21028
890.254	20842
890.377	20750
890.501	20598
890.624	20594
890.748	20629
890.871	20594
890.995	20568
891.118	20377
891.241	20366
891.364	20290
891.488	20575
891.611	20488
891.734	20488
891.857	20434
891.98	20396
892.103	20431
892.226	20393
892.349	20282
892.471	20142
892.594	20286
892.717	20381
892.839	20248
892.962	20377
893.085	20385
893.207	20362
893.33	20168
893.452	20271
893.575	20427
893.697	20309
893.819	20461
893.941	20564
894.064	20465
894.186	20282
894.308	20336
894.43	20377
894.552	20518
894.674	20438
894.796	20237
894.918	20210
895.04	20256
895.161	20377
895.283	20343
895.405	20328
895.526	20374
895.648	20374
895.769	20400
895.891	20412
896.012	20492
896.134	20434
896.255	20374
896.376	20252
896.498	20301
896.619	20427
896.74	20317
896.861	20415
896.982	20720
897.103	20739
897.224	20670
897.345	20545
897.466	20552
897.587	20560
897.708	20659
897.828	20587
897.949	20492
898.07	20461
898.19	20434
898.311	20583
898.431	20492
898.552	20495
898.672	20762
898.792	20670
898.913	20571
899.033	20507
899.153	20343
899.273	20290
899.393	20278
899.513	20248
899.633	20324
899.753	20465
899.873	20214
899.993	20343
900.113	20263
900.232	20427
900.352	20103
900.472	20134
900.591	19978
900.711	20202
900.83	20043
900.95	20180
901.069	20065
901.189	20027
901.308	19864
901.427	19670
901.546	19643
901.665	19655
901.784	19727
901.904	19590
902.023	19537
902.141	19213
902.26	19335
902.379	19293
902.498	19198
902.617	19137
902.735	19206
902.854	19148
902.973	19160
903.091	18894
903.21	18764
903.328	18749
903.446	18848
903.565	18601
903.683	18661
903.801	18399
903.919	18604
904.038	18658
904.156	18395
904.274	18483
904.392	18327
904.51	18410
904.627	18410
904.745	18502
904.863	18395
904.981	18292
905.098	17996
905.216	18019
905.334	18072
905.451	18068
905.569	17999
905.686	18106
905.803	18171
905.921	17870
906.038	17931
906.155	17882
906.272	17786
906.389	17767
906.506	17535
906.623	17577
906.74	17630
906.857	17417
906.974	17516
907.091	17718
907.208	17710
907.324	17600
907.441	17440
907.557	17410
907.674	17353
907.79	17193
907.907	17292
908.023	17258
908.139	17258
908.256	17280
908.372	17208
908.488	17155
908.604	17094
908.72	17045
908.836	16927
908.952	16984
909.068	17045
909.184	17124
909.3	17083
909.415	17006
909.531	17102
909.647	16892
909.762	16717
909.878	16740
909.993	16721
910.108	16721
910.224	16672
910.339	16679
910.454	16573
910.57	16611
910.685	16405
910.8	16782
910.915	16721
911.03	16618
911.145	16253
911.259	16257
911.374	16367
911.489	16280
911.604	16265
911.718	16032
911.833	16120
911.947	16044
912.062	15930
912.176	16128
912.291	16093
912.405	16010
912.519	16234
912.633	16177
912.748	16082
912.862	15987
912.976	15876
913.09	15869
913.204	15857
913.318	15911
913.431	15888
913.545	15903
913.659	16002
913.772	15816
913.886	15713
914	15656
914.113	15759
914.226	15854
914.34	15690
914.453	15622
914.566	15641
914.68	15526
914.793	15443
914.906	15245
915.019	15386
915.132	15252
915.245	15245
915.358	15310
915.47	15291
915.583	15203
915.696	15291
915.809	15359
915.921	15363
916.034	15199
916.146	15264
916.259	15184
916.371	15241
916.483	15283
916.595	15154
916.708	15119
916.82	15161
916.932	15005
917.044	15074
917.156	15081
917.268	14925
917.38	14998
917.491	14857
917.603	14899
917.715	14914
917.826	15005
917.938	14887
918.049	14739
918.161	14876
918.272	15017
918.384	15036
918.495	14777
918.606	14788
918.717	14571
918.828	14667
918.939	14689
919.05	14583
919.161	14670
919.272	14568
919.383	14545
919.494	14746
919.604	14788
919.715	14621
919.826	14552
919.936	14598
920.047	14743
920.157	14682
920.267	14819
920.378	14735
920.488	14621
920.598	14842
920.708	14944
920.818	14845
920.928	14667
921.038	14967
921.148	14826
921.258	14598
921.368	14503
921.477	14415
921.587	14442
921.697	14244
921.806	14415
921.916	14278
922.025	14092
922.134	14024
922.244	13974
922.353	14020
922.462	13898
922.571	13875
922.68	13731
922.789	13708
922.898	13731
923.007	13616
923.116	13715
923.224	13689
923.333	13556
923.442	13430
923.55	13411
923.659	13548
923.767	13613
923.876	13480
923.984	13537
924.092	13365
924.201	13373
924.309	13483
924.417	13411
924.525	13327
924.633	13270
924.741	14111
924.849	13145
924.956	13236
925.064	13057
925.172	12970
925.279	13053
925.387	13053
925.494	13088
925.602	13156
925.709	13206
925.816	13004
925.924	12989
926.031	13156
926.138	12966
926.245	13034
926.352	13000
926.459	13019
926.566	13103
926.673	12932
926.779	12825
926.886	12711
926.993	12760
927.099	12627
927.206	12490
927.312	12559
927.419	12604
927.525	12642
927.631	12684
927.737	12509
927.843	12486
927.95	12452
928.056	12445
928.162	12426
928.267	12479
928.373	13175
928.479	12521
928.585	12270
928.69	12475
928.796	12517
928.901	12376
929.007	12190
929.112	12277
929.218	12304
929.323	12175
929.428	12209
929.533	12361
929.638	12121
929.743	12136
929.848	12300
929.953	12159
930.058	11996
930.163	11889
930.267	11908
930.372	12102
930.477	11840
930.581	12076
930.685	11958
930.79	11760
930.894	11756
930.998	11684
931.103	11912
931.207	11410
931.311	11417
931.415	11242
931.519	11193
931.623	11181
