Data from test_V78500241_2326.txt Node
Date: Fri Mar 25 15:57:54 CST 2022
User: usil
Spectrometer: V785-0024
Trigger mode: 0
Integration Time (sec): 4.000000E-1
Scans to average: 1
Nonlinearity correction enabled: false
Boxcar width: 0
Storing dark spectrum: false
XAxis mode: Wavelengths
Number of Pixels in Spectrum: 1024
>>>>>Begin Spectral Data<<<<<
801.071	29064
801.214	28972
801.356	28672
801.499	28710
801.641	28596
801.783	28580
801.926	28637
802.068	28596
802.211	28603
802.353	28417
802.496	28310
802.638	28253
802.78	28086
802.923	28124
803.065	28090
803.208	28154
803.35	28257
803.492	28459
803.635	28462
803.777	28318
803.919	28478
804.061	28767
804.204	28580
804.346	28371
804.488	28516
804.63	28478
804.773	28405
804.915	28626
805.057	28542
805.199	28580
805.341	28599
805.483	28599
805.626	28599
805.768	28413
805.91	28698
806.052	28729
806.194	28443
806.336	28881
806.478	28584
806.62	28580
806.762	28885
806.904	29033
807.046	29124
807.188	29181
807.33	29022
807.472	29143
807.614	28972
807.756	29025
807.898	28995
808.04	29067
808.182	28854
808.324	28968
808.465	29223
808.607	29265
808.749	29493
808.891	29398
809.033	29524
809.174	29414
809.316	29284
809.458	29326
809.6	29341
809.741	29440
809.883	29528
810.025	29665
810.166	29577
810.308	29649
810.45	29554
810.591	29558
810.733	29425
810.875	29383
811.016	29246
811.158	29280
811.299	29497
811.441	29585
811.582	29433
811.724	29512
811.865	29299
812.007	29345
812.148	29520
812.29	29505
812.431	29558
812.573	29661
812.714	29847
812.855	29878
812.997	29916
813.138	30133
813.279	30076
813.421	29920
813.562	30041
813.703	29535
813.845	29589
813.986	29364
814.127	29258
814.268	29185
814.41	29181
814.551	29109
814.692	29208
814.833	28942
814.974	29109
815.115	29197
815.256	28980
815.397	28987
815.539	28968
815.68	28972
815.821	28919
815.962	28972
816.103	28923
816.244	28744
816.385	28809
816.526	28653
816.666	28516
816.807	28379
816.948	28470
817.089	28615
817.23	28493
817.371	28421
817.512	28432
817.653	28310
817.793	28470
817.934	28436
818.075	28554
818.216	28542
818.356	28451
818.497	28215
818.638	28093
818.778	28116
818.919	28257
819.06	28390
819.2	28360
819.341	28382
819.481	28295
819.622	28630
819.762	28687
819.903	28721
820.043	28584
820.184	28569
820.324	28497
820.465	28565
820.605	28474
820.746	28497
820.886	28405
821.026	28561
821.167	28592
821.307	28672
821.447	28531
821.588	28424
821.728	28131
821.868	28128
822.008	27914
822.149	28032
822.289	27873
822.429	27698
822.569	27583
822.709	27629
822.849	27389
822.99	27393
823.13	27420
823.27	27374
823.41	27294
823.55	27024
823.69	27329
823.83	27192
823.97	27131
824.11	27077
824.25	27017
824.389	27020
824.529	27047
824.669	27058
824.809	27154
824.949	27146
825.089	27150
825.228	27150
825.368	26811
825.508	26880
825.648	26887
825.787	27093
825.927	26952
826.067	26853
826.206	26823
826.346	26948
826.485	27058
826.625	26842
826.765	27036
826.904	26982
827.044	26750
827.183	26655
827.323	26644
827.462	26716
827.601	26636
827.741	26648
827.88	26716
828.02	26518
828.159	26609
828.298	26602
828.437	26697
828.577	26682
828.716	26617
828.855	26533
828.994	26355
829.134	26358
829.273	26499
829.412	26419
829.551	26320
829.69	26362
829.829	26499
829.968	26480
830.107	26377
830.246	26453
830.385	26313
830.524	26317
830.663	26077
830.802	26088
830.941	25978
831.08	25944
831.219	26096
831.357	25982
831.496	26309
831.635	25993
831.774	26031
831.913	25898
832.051	25769
832.19	25712
832.329	25757
832.467	25632
832.606	25597
832.744	25571
832.883	25727
833.022	25540
833.16	25666
833.299	25655
833.437	25651
833.576	25685
833.714	25746
833.852	25761
833.991	25826
834.129	25746
834.267	25647
834.406	25712
834.544	25795
834.682	25670
834.821	25731
834.959	25788
835.097	25814
835.235	25616
835.373	25689
835.511	25674
835.65	25521
835.788	25582
835.926	25510
836.064	25339
836.202	25320
836.34	25567
836.478	25670
836.615	25601
836.753	25632
836.891	25529
837.029	25537
837.167	25369
837.305	25308
837.443	25426
837.58	25278
837.718	25362
837.856	25381
837.993	25270
838.131	25358
838.269	25198
838.406	25259
838.544	25164
838.681	24973
838.819	25031
838.956	24924
839.094	24787
839.231	24863
839.369	25179
839.506	25232
839.643	25061
839.781	24878
839.918	24795
840.055	24852
840.193	24867
840.33	24623
840.467	24715
840.604	24696
840.742	24996
840.879	24665
841.016	24768
841.153	24570
841.29	24783
841.427	24650
841.564	24734
841.701	24700
841.838	24772
841.975	24604
842.112	24665
842.249	24585
842.385	24445
842.522	24639
842.659	24582
842.796	24505
842.933	24429
843.069	24418
843.206	24441
843.343	24422
843.479	24380
843.616	24544
843.752	24254
843.889	24273
844.025	24422
844.162	24232
844.298	24365
844.435	24380
844.571	24209
844.708	24361
844.844	24429
844.98	24429
845.117	24426
845.253	24148
845.389	24102
845.525	24140
845.661	24106
845.798	24041
845.934	24041
846.07	23950
846.206	23992
846.342	24136
846.478	23927
846.614	23726
846.75	23668
846.886	23714
847.022	23783
847.158	23661
847.294	23733
847.429	23809
847.565	23668
847.701	23855
847.837	23334
847.972	23311
848.108	23318
848.244	23604
848.379	23429
848.515	23356
848.65	23242
848.786	23303
848.921	23265
849.057	23398
849.192	23391
849.328	23246
849.463	23242
849.598	23216
849.734	23258
849.869	23128
850.004	22927
850.14	23102
850.275	23075
850.41	22968
850.545	23037
850.68	23048
850.815	22915
850.95	23037
851.085	23299
851.22	23166
851.355	23056
851.49	23121
851.625	22976
851.76	23121
851.895	22923
852.03	22927
852.165	22942
852.299	23105
852.434	23216
852.569	23094
852.703	23143
852.838	23033
852.973	23189
853.107	23159
853.242	22995
853.376	22896
853.511	22831
853.645	22862
853.78	22984
853.914	22934
854.048	23006
854.183	22748
854.317	22942
854.451	23018
854.585	22820
854.72	22797
854.854	22854
854.988	22763
855.122	22820
855.256	22740
855.39	22896
855.524	23140
855.658	22911
855.792	22862
855.926	22873
856.06	22919
856.194	22980
856.327	22927
856.461	22915
856.595	22805
856.729	22927
856.862	22991
856.996	22812
857.13	22972
857.263	23060
857.397	22889
857.53	22797
857.664	22987
857.797	22915
857.931	23052
858.064	22850
858.197	22976
858.331	22797
858.464	22866
858.597	22675
858.731	22771
858.864	22805
858.997	22801
859.13	22793
859.263	22873
859.396	22873
859.529	22850
859.662	22904
859.795	22767
859.928	22938
860.061	23140
860.194	23117
860.327	22892
860.46	22934
860.592	22957
860.725	23041
860.858	22942
860.99	23018
861.123	22828
861.256	22801
861.388	22824
861.521	23600
861.653	22668
861.786	22683
861.918	22649
862.05	22713
862.183	22809
862.315	22668
862.447	22824
862.58	22862
862.712	22481
862.844	22573
862.976	22615
863.108	22660
863.24	22972
863.372	22466
863.504	22478
863.636	22584
863.768	22500
863.9	22748
864.032	22523
864.164	22611
864.296	22470
864.428	22733
864.559	22668
864.691	22516
864.823	22577
864.954	22641
865.086	22634
865.217	22356
865.349	22284
865.48	22352
865.612	22432
865.743	22512
865.875	22455
866.006	22485
866.137	22512
866.269	22466
866.4	22367
866.531	22375
866.662	22135
866.793	22424
866.924	22421
867.055	22295
867.186	22219
867.317	22352
867.448	22329
867.579	22409
867.71	22287
867.841	22234
867.972	22493
868.103	22131
868.233	22379
868.364	22432
868.495	22466
868.625	22557
868.756	22721
868.886	22615
869.017	22577
869.147	22668
869.278	22702
869.408	22630
869.539	22596
869.669	22603
869.799	22660
869.929	22664
870.06	22656
870.19	22976
870.32	22911
870.45	22991
870.58	23014
870.71	23147
870.84	22984
870.97	23041
871.1	23033
871.23	23277
871.36	23280
871.489	23044
871.619	23200
871.749	23193
871.879	23155
872.008	23265
872.138	23189
872.267	23178
872.397	23056
872.526	23189
872.656	23079
872.785	23113
872.915	23113
873.044	23242
873.173	23197
873.303	23322
873.432	23261
873.561	23379
873.69	23246
873.819	23258
873.948	23337
874.077	23155
874.206	23162
874.335	23284
874.464	23436
874.593	23356
874.722	23261
874.851	23452
874.979	23368
875.108	23345
875.237	23364
875.365	23296
875.494	23341
875.623	23478
875.751	23368
875.88	23455
876.008	23634
876.136	23554
876.265	23790
876.393	23836
876.521	23942
876.65	23935
876.778	23939
876.906	23657
877.034	23634
877.162	23783
877.29	23722
877.418	23737
877.546	23767
877.674	23748
877.802	23745
877.93	23817
878.058	23756
878.185	23558
878.313	23619
878.441	23790
878.568	23482
878.696	23695
878.824	23745
878.951	23874
879.079	23946
879.206	24038
879.333	23859
879.461	23630
879.588	23840
879.715	23874
879.842	24091
879.97	23843
880.097	23592
880.224	23615
880.351	23535
880.478	23661
880.605	23547
880.732	23653
880.859	23802
880.986	23752
881.112	23680
881.239	23471
881.366	23147
881.493	23174
881.619	23102
881.746	23200
881.872	23155
881.999	23006
882.125	23052
882.252	23277
882.378	23121
882.505	23208
882.631	22881
882.757	22847
882.883	22881
883.01	22679
883.136	22828
883.262	22641
883.388	22599
883.514	22752
883.64	22873
883.766	22668
883.892	22615
884.018	22752
884.143	22835
884.269	22854
884.395	22516
884.52	22489
884.646	22523
884.772	22287
884.897	22386
885.023	22519
885.148	22611
885.274	22641
885.399	22603
885.524	22470
885.65	22447
885.775	22447
885.9	22421
886.025	22405
886.15	22356
886.275	22424
886.4	22390
886.525	22310
886.65	22314
886.775	22257
886.9	22641
887.025	22645
887.149	22405
887.274	22169
887.399	22196
887.523	22173
887.648	22166
887.773	22112
887.897	22169
888.021	22204
888.146	22074
888.27	22265
888.395	22230
888.519	22211
888.643	22158
888.767	22249
888.891	22211
889.015	21956
889.139	21964
889.263	22090
889.387	22051
889.511	22268
889.635	22059
889.759	21865
889.883	22025
890.006	21911
890.13	22029
890.254	21819
890.377	22013
890.501	21694
890.624	21705
890.748	21785
890.871	21720
890.995	21572
891.118	21428
891.241	21530
891.364	21485
891.488	21519
891.611	21587
891.734	21564
891.857	21587
891.98	21564
892.103	21568
892.226	21450
892.349	21428
892.471	21336
892.594	21329
892.717	21416
892.839	21359
892.962	21393
893.085	21511
893.207	21382
893.33	21260
893.452	21317
893.575	21397
893.697	21348
893.819	21504
893.941	21564
894.064	21393
894.186	21306
894.308	21310
894.43	21458
894.552	21443
894.674	21431
894.796	21348
894.918	21355
895.04	21332
895.161	21435
895.283	21332
895.405	21272
895.526	21321
895.648	21283
895.769	21344
895.891	21496
896.012	21511
896.134	21306
896.255	21294
896.376	21252
896.498	21291
896.619	21382
896.74	21313
896.861	21370
896.982	21770
897.103	21819
897.224	21694
897.345	21675
897.466	21466
897.587	21542
897.708	21732
897.828	21671
897.949	21412
898.07	21359
898.19	21530
898.311	21614
898.431	21458
898.552	21488
898.672	21549
898.792	21549
898.913	21534
899.033	21348
899.153	21272
899.273	21245
899.393	21348
899.513	21310
899.633	21241
899.753	21302
899.873	21138
899.993	21264
900.113	21195
900.232	21245
900.352	21211
900.472	21154
900.591	21077
900.711	21070
900.83	21066
900.95	21154
901.069	21138
901.189	20925
901.308	20811
901.427	20636
901.546	20644
901.665	20549
901.784	20579
901.904	20476
902.023	20408
902.141	20168
902.26	20130
902.379	20221
902.498	20100
902.617	20012
902.735	20157
902.854	20111
902.973	20084
903.091	19860
903.21	19738
903.328	19723
903.446	19742
903.565	19594
903.683	19544
903.801	19464
903.919	19449
904.038	19521
904.156	19225
904.274	19491
904.392	19324
904.51	19255
904.627	19320
904.745	19324
904.863	19392
904.981	19160
905.098	18924
905.216	18943
905.334	19076
905.451	19023
905.569	18939
905.686	19008
905.803	18970
905.921	18821
906.038	18901
906.155	18787
906.272	18673
906.389	18700
906.506	18578
906.623	18456
906.74	18597
906.857	18494
906.974	18483
907.091	18673
907.208	18559
907.324	18555
907.441	18452
907.557	18292
907.674	18232
907.79	18171
907.907	18235
908.023	18197
908.139	18292
908.256	18159
908.372	18053
908.488	18038
908.604	17950
908.72	17942
908.836	17889
908.952	17847
909.068	17942
909.184	17958
909.3	17897
909.415	17885
909.531	17836
909.647	17752
909.762	17589
909.878	17661
909.993	17752
910.108	17627
910.224	17581
910.339	17524
910.454	17391
910.57	17474
910.685	17356
910.8	17630
910.915	17558
911.03	17387
911.145	17292
911.259	17124
911.374	17216
911.489	17147
911.604	17151
911.718	16790
911.833	16896
911.947	16869
912.062	16782
912.176	16942
912.291	17045
912.405	16896
912.519	17140
912.633	17086
912.748	16892
912.862	16866
912.976	16656
913.09	16615
913.204	16675
913.318	16759
913.431	16778
913.545	16778
913.659	16820
913.772	16615
913.886	16584
914	16489
914.113	16607
914.226	16599
914.34	16531
914.453	16409
914.566	16504
914.68	16390
914.793	16352
914.906	16154
915.019	16124
915.132	16063
915.245	16086
915.358	16131
915.47	16097
915.583	16105
915.696	16120
915.809	16185
915.921	16249
916.034	16025
916.146	15998
916.259	15964
916.371	16059
916.483	16059
916.595	15975
916.708	15873
916.82	15922
916.932	15846
917.044	15781
917.156	15789
917.268	15785
917.38	15720
917.491	15743
917.603	15739
917.715	15759
917.826	15770
917.938	15614
918.049	15549
918.161	15644
918.272	15705
918.384	15766
918.495	15610
918.606	15485
918.717	15348
918.828	15420
918.939	15473
919.05	15374
919.161	15397
919.272	15184
919.383	15321
919.494	15519
919.604	15625
919.715	15454
919.826	15367
919.936	15393
920.047	15450
920.157	15359
920.267	15481
920.378	15412
920.488	15340
920.598	15534
920.708	15713
920.818	15519
920.928	15561
921.038	15663
921.148	15652
921.258	15321
921.368	15310
921.477	15112
921.587	15085
921.697	15036
921.806	15127
921.916	14956
922.025	14746
922.134	14743
922.244	14735
922.353	14735
922.462	14640
922.571	14480
922.68	14374
922.789	14393
922.898	14412
923.007	14396
923.116	14366
923.224	14336
923.333	14263
923.442	14187
923.55	14176
923.659	14320
923.767	14328
923.876	14164
923.984	14161
924.092	14115
924.201	14092
924.309	14096
924.417	14035
924.525	13982
924.633	14065
924.741	15036
924.849	13807
924.956	13978
925.064	13738
925.172	13750
925.279	13761
925.387	13734
925.494	13674
925.602	13826
925.709	13753
925.816	13609
925.924	13613
926.031	13795
926.138	13791
926.245	13784
926.352	13556
926.459	13696
926.566	13700
926.673	13700
926.779	13483
926.886	13472
926.993	13221
927.099	13263
927.206	13285
927.312	13149
927.419	13228
927.525	13358
927.631	13232
927.737	13240
927.843	13012
927.95	12928
928.056	12993
928.162	13129
928.267	13095
928.373	13772
928.479	13137
928.585	12939
928.69	13015
928.796	13038
928.901	13004
929.007	12810
929.112	12958
929.218	12924
929.323	12795
929.428	12722
929.533	12913
929.638	12692
929.743	12738
929.848	12715
929.953	12650
930.058	12677
930.163	12536
930.267	12601
930.372	12597
930.477	12410
930.581	12719
930.685	12528
930.79	12353
930.894	12338
930.998	12270
931.103	12403
931.207	12060
931.311	12022
931.415	11969
931.519	11707
931.623	11623
