Data from test_V78500241_2596.txt Node
Date: Fri Mar 25 15:59:47 CST 2022
User: usil
Spectrometer: V785-0024
Trigger mode: 0
Integration Time (sec): 4.000000E-1
Scans to average: 1
Nonlinearity correction enabled: false
Boxcar width: 0
Storing dark spectrum: false
XAxis mode: Wavelengths
Number of Pixels in Spectrum: 1024
>>>>>Begin Spectral Data<<<<<
801.071	28436
801.214	28261
801.356	28010
801.499	28040
801.641	27907
801.783	27869
801.926	28017
802.068	27922
802.211	27823
802.353	27671
802.496	27705
802.638	27488
802.78	27496
802.923	27500
803.065	27374
803.208	27496
803.35	27553
803.492	27759
803.635	27739
803.777	27591
803.919	27812
804.061	28040
804.204	27926
804.346	27724
804.488	27694
804.63	27762
804.773	27694
804.915	27835
805.057	27926
805.199	27789
805.341	27892
805.483	27869
805.626	28135
805.768	27732
805.91	27934
806.052	27987
806.194	27800
806.336	28006
806.478	27972
806.62	28017
806.762	27983
806.904	27972
807.046	28478
807.188	28481
807.33	28394
807.472	28401
807.614	28158
807.756	28363
807.898	28295
808.04	28120
808.182	28143
808.324	28234
808.465	28310
808.607	28390
808.749	28687
808.891	28774
809.033	28778
809.174	28816
809.316	28592
809.458	28664
809.6	28672
809.741	28649
809.883	28805
810.025	28953
810.166	28778
810.308	28820
810.45	28782
810.591	28759
810.733	28588
810.875	28557
811.016	28485
811.158	28569
811.299	28691
811.441	28683
811.582	28774
811.724	28542
811.865	28588
812.007	28561
812.148	28672
812.29	28656
812.431	28885
812.573	28908
812.714	28919
812.855	29090
812.997	29250
813.138	29364
813.279	29261
813.421	29132
813.562	29044
813.703	28965
813.845	28900
813.986	28428
814.127	28523
814.268	28405
814.41	28417
814.551	28295
814.692	28363
814.833	28147
814.974	28192
815.115	28276
815.256	28246
815.397	28162
815.539	28093
815.68	28150
815.821	28013
815.962	28147
816.103	28090
816.244	27998
816.385	27854
816.526	27873
816.666	27610
816.807	27622
816.948	27644
817.089	27724
817.23	27660
817.371	27671
817.512	27545
817.653	27515
817.793	27682
817.934	27606
818.075	27648
818.216	27576
818.356	27545
818.497	27519
818.638	27363
818.778	27252
818.919	27424
819.06	27496
819.2	27466
819.341	27637
819.481	27576
819.622	27686
819.762	27846
819.903	27884
820.043	27930
820.184	27694
820.324	27641
820.465	27808
820.605	27751
820.746	27709
820.886	27603
821.026	27701
821.167	27686
821.307	27713
821.447	27648
821.588	27473
821.728	27370
821.868	27131
822.008	27291
822.149	27096
822.289	26971
822.429	26777
822.569	26765
822.709	26625
822.849	26427
822.99	26632
823.13	26503
823.27	26457
823.41	26351
823.55	26324
823.69	26313
823.83	26404
823.97	26298
824.11	26248
824.25	26256
824.389	26248
824.529	26336
824.669	26172
824.809	26404
824.949	26301
825.089	26153
825.228	26263
825.368	25989
825.508	26046
825.648	26062
825.787	26157
825.927	26115
826.067	26043
826.206	26187
826.346	26122
826.485	26195
826.625	26130
826.765	26183
826.904	26187
827.044	25864
827.183	25803
827.323	25727
827.462	25898
827.601	25811
827.741	25677
827.88	25795
828.02	25685
828.159	25822
828.298	25837
828.437	25849
828.577	25681
828.716	25917
828.855	25769
828.994	25468
829.134	25685
829.273	25556
829.412	25491
829.551	25346
829.69	25601
829.829	25460
829.968	25586
830.107	25548
830.246	25491
830.385	25403
830.524	25472
830.663	25301
830.802	25388
830.941	25069
831.08	25019
831.219	25057
831.357	25232
831.496	25335
831.635	25194
831.774	25012
831.913	25008
832.051	24981
832.19	24970
832.329	24901
832.467	24791
832.606	24654
832.744	24764
832.883	24760
833.022	24722
833.16	24722
833.299	24745
833.437	24852
833.576	24760
833.714	24935
833.852	24844
833.991	24897
834.129	24920
834.267	25008
834.406	24806
834.544	24867
834.682	24890
834.821	24856
834.959	24970
835.097	24700
835.235	24837
835.373	24844
835.511	24791
835.65	24719
835.788	24753
835.926	24437
836.064	24521
836.202	24570
836.34	24547
836.478	24741
836.615	24749
836.753	24677
836.891	24753
837.029	24665
837.167	24597
837.305	24620
837.443	24589
837.58	24502
837.718	24582
837.856	24601
837.993	24479
838.131	24521
838.269	24471
838.406	24483
838.544	24426
838.681	24190
838.819	24106
838.956	24007
839.094	23908
839.231	24072
839.369	24155
839.506	24391
839.643	24174
839.781	24053
839.918	23920
840.055	23996
840.193	24011
840.33	23783
840.467	23874
840.604	23965
840.742	24197
840.879	23729
841.016	23729
841.153	23802
841.29	23908
841.427	23859
841.564	23988
841.701	23707
841.838	23684
841.975	23851
842.112	23707
842.249	23745
842.385	23646
842.522	23760
842.659	23767
842.796	23707
842.933	23710
843.069	23627
843.206	23714
843.343	23676
843.479	23653
843.616	23665
843.752	23337
843.889	23497
844.025	23440
844.162	23391
844.298	23520
844.435	23345
844.571	23345
844.708	23501
844.844	23528
844.98	23509
845.117	23471
845.253	23353
845.389	23250
845.525	23265
845.661	23208
845.798	23090
845.934	23197
846.07	23075
846.206	23075
846.342	23341
846.478	23044
846.614	22919
846.75	22797
846.886	22847
847.022	23022
847.158	22896
847.294	22904
847.429	22919
847.565	22835
847.701	23075
847.837	22580
847.972	22592
848.108	22656
848.244	22687
848.379	22409
848.515	22478
848.65	22333
848.786	22428
848.921	22443
849.057	22554
849.192	22546
849.328	22531
849.463	22535
849.598	22409
849.734	22230
849.869	22310
850.004	22318
850.14	22158
850.275	22238
850.41	22192
850.545	22154
850.68	22223
850.815	22253
850.95	22303
851.085	22329
851.22	22329
851.355	22295
851.49	22105
851.625	22188
851.76	22280
851.895	22055
852.03	22055
852.165	22105
852.299	22181
852.434	22234
852.569	22272
852.703	22150
852.838	22261
852.973	22329
853.107	22333
853.242	22040
853.376	22021
853.511	21895
853.645	21911
853.78	22200
853.914	22029
854.048	22040
854.183	22025
854.317	22048
854.451	22265
854.585	22021
854.72	22029
854.854	22032
854.988	21930
855.122	22040
855.256	21979
855.39	22032
855.524	22044
855.658	22181
855.792	22097
855.926	22090
856.06	22131
856.194	21998
856.327	22040
856.461	22055
856.595	22044
856.729	22025
856.862	22093
856.996	22051
857.13	22063
857.263	22162
857.397	22109
857.53	22040
857.664	22158
857.797	22086
857.931	22086
858.064	22097
858.197	22124
858.331	22021
858.464	21964
858.597	21915
858.731	22093
858.864	21903
858.997	22032
859.13	21880
859.263	21937
859.396	22169
859.529	21975
859.662	22006
859.795	22025
859.928	22025
860.061	22162
860.194	22192
860.327	22059
860.46	21998
860.592	22105
860.725	22268
860.858	22143
860.99	22036
861.123	22036
861.256	21953
861.388	22013
861.521	22873
861.653	21979
861.786	21873
861.918	21869
862.05	21998
862.183	21922
862.315	21998
862.447	21808
862.58	21968
862.712	21694
862.844	21804
862.976	21770
863.108	21854
863.24	22356
863.372	21728
863.504	21774
863.636	21694
863.768	21751
863.9	21587
864.032	21625
864.164	21797
864.296	21747
864.428	21762
864.559	21656
864.691	21854
864.823	21720
864.954	21903
865.086	21698
865.217	21576
865.349	21576
865.48	21564
865.612	21644
865.743	21747
865.875	21667
866.006	21637
866.137	21583
866.269	21701
866.4	21553
866.531	21686
866.662	21435
866.793	21439
866.924	21545
867.055	21576
867.186	21530
867.317	21481
867.448	21462
867.579	21614
867.71	21428
867.841	21500
867.972	21557
868.103	21469
868.233	21408
868.364	21538
868.495	21709
868.625	21682
868.756	21793
868.886	21656
869.017	21823
869.147	21892
869.278	21895
869.408	21686
869.539	21907
869.669	21941
869.799	21785
869.929	22017
870.06	22036
870.19	22135
870.32	22128
870.45	22131
870.58	22150
870.71	22303
870.84	22253
870.97	22272
871.1	22192
871.23	22432
871.36	22409
871.489	22341
871.619	22440
871.749	22375
871.879	22516
872.008	22497
872.138	22363
872.267	22405
872.397	22230
872.526	22261
872.656	22169
872.785	22363
872.915	22367
873.044	22436
873.173	22447
873.303	22375
873.432	22394
873.561	22596
873.69	22440
873.819	22451
873.948	22466
874.077	22421
874.206	22436
874.335	22356
874.464	22432
874.593	22577
874.722	22618
874.851	22580
874.979	22622
875.108	22687
875.237	22584
875.365	22519
875.494	22653
875.623	22713
875.751	22535
875.88	22664
876.008	22812
876.136	22889
876.265	23102
876.393	23136
876.521	23193
876.65	23147
876.778	23014
876.906	23018
877.034	23022
877.162	23128
877.29	22946
877.418	23052
877.546	22889
877.674	22968
877.802	23014
877.93	22946
878.058	22991
878.185	22778
878.313	22919
878.441	22862
878.568	22748
878.696	22801
878.824	23056
878.951	23041
879.079	23162
879.206	23315
879.333	23197
879.461	23014
879.588	23231
879.715	23102
879.842	23330
879.97	23098
880.097	22767
880.224	22831
880.351	22828
880.478	22820
880.605	22702
880.732	22854
880.859	23014
880.986	22683
881.112	22965
881.239	22592
881.366	22493
881.493	22531
881.619	22398
881.746	22474
881.872	22375
881.999	22409
882.125	22276
882.252	22325
882.378	22432
882.505	22512
882.631	22238
882.757	22078
882.883	22143
883.01	22036
883.136	22025
883.262	21865
883.388	21934
883.514	22036
883.64	22120
883.766	21873
883.892	21873
884.018	21934
884.143	21949
884.269	22010
884.395	21766
884.52	21690
884.646	21778
884.772	21622
884.897	21656
885.023	21587
885.148	21736
885.274	21835
885.399	21781
885.524	21682
885.65	21682
885.775	21736
885.9	21610
886.025	21808
886.15	21698
886.275	21682
886.4	21561
886.525	21656
886.65	21591
886.775	21564
886.9	21785
887.025	21895
887.149	21751
887.274	21507
887.399	21466
887.523	21435
887.648	21408
887.773	21367
887.897	21629
888.021	21496
888.146	21450
888.27	21507
888.395	21591
888.519	21443
888.643	21420
888.767	21450
888.891	21443
889.015	21389
889.139	21272
889.263	21252
889.387	21355
889.511	21367
889.635	21435
889.759	21169
889.883	21173
890.006	21161
890.13	21374
890.254	21195
890.377	21230
890.501	20971
890.624	20941
890.748	20982
890.871	20933
890.995	20811
891.118	20758
891.241	20842
891.364	20750
891.488	20937
891.611	20750
891.734	20800
891.857	20777
891.98	20811
892.103	20807
892.226	20716
892.349	20804
892.471	20708
892.594	20720
892.717	20705
892.839	20632
892.962	20720
893.085	20697
893.207	20659
893.33	20621
893.452	20560
893.575	20667
893.697	20727
893.819	20785
893.941	20902
894.064	20731
894.186	20655
894.308	20571
894.43	20697
894.552	20807
894.674	20655
894.796	20629
894.918	20689
895.04	20545
895.161	20739
895.283	20716
895.405	20564
895.526	20606
895.648	20674
895.769	20731
895.891	20670
896.012	20754
896.134	20670
896.255	20693
896.376	20693
896.498	20720
896.619	20785
896.74	20556
896.861	20819
896.982	21051
897.103	21089
897.224	20914
897.345	20861
897.466	20872
897.587	20811
897.708	20971
897.828	21062
897.949	20834
898.07	20785
898.19	20872
898.311	20933
898.431	20994
898.552	20853
898.672	21024
898.792	20960
898.913	20864
899.033	20758
899.153	20712
899.273	20720
899.393	20686
899.513	20697
899.633	20800
899.753	20739
899.873	20518
899.993	20670
900.113	20480
900.232	20590
900.352	20480
900.472	20442
900.591	20431
900.711	20431
900.83	20320
900.95	20442
901.069	20434
901.189	20229
901.308	19989
901.427	19940
901.546	19852
901.665	20058
901.784	20027
901.904	19902
902.023	19765
902.141	19594
902.26	19434
902.379	19563
902.498	19331
902.617	19426
902.735	19647
902.854	19441
902.973	19457
903.091	19137
903.21	19148
903.328	19251
903.446	19095
903.565	18973
903.683	19000
903.801	18939
903.919	18935
904.038	18856
904.156	18768
904.274	18821
904.392	18631
904.51	18734
904.627	18719
904.745	18798
904.863	18738
904.981	18528
905.098	18418
905.216	18369
905.334	18361
905.451	18388
905.569	18273
905.686	18456
905.803	18369
905.921	18140
906.038	18232
906.155	18159
906.272	18114
906.389	18087
906.506	17847
906.623	17954
906.74	17828
906.857	17733
906.974	17904
907.091	17999
907.208	18083
907.324	18003
907.441	17851
907.557	17573
907.674	17684
907.79	17524
907.907	17524
908.023	17665
908.139	17615
908.256	17535
908.372	17573
908.488	17368
908.604	17379
908.72	17303
908.836	17360
908.952	17322
909.068	17387
909.184	17395
909.3	17429
909.415	17269
909.531	17330
909.647	17098
909.762	17064
909.878	17003
909.993	16980
910.108	17037
910.224	16949
910.339	17033
910.454	16915
910.57	16885
910.685	16767
910.8	17029
910.915	17174
911.03	16885
911.145	16691
911.259	16500
911.374	16679
911.489	16592
911.604	16497
911.718	16455
911.833	16421
911.947	16261
912.062	16238
912.176	16268
912.291	16318
912.405	16344
912.519	16565
912.633	16523
912.748	16424
912.862	16303
912.976	16234
913.09	16135
913.204	16120
913.318	16249
913.431	16284
913.545	16272
913.659	16295
913.772	16093
913.886	16021
914	15964
914.113	16063
914.226	16071
914.34	16071
914.453	15759
914.566	15945
914.68	15808
914.793	15774
914.906	15701
915.019	15580
915.132	15519
915.245	15614
915.358	15530
915.47	15576
915.583	15542
915.696	15633
915.809	15644
915.921	15709
916.034	15481
916.146	15458
916.259	15454
916.371	15534
916.483	15466
916.595	15408
916.708	15382
916.82	15332
916.932	15370
917.044	15294
917.156	15264
917.268	15199
917.38	15214
917.491	15188
917.603	15184
917.715	15332
917.826	15291
917.938	15093
918.049	15009
918.161	15173
918.272	15233
918.384	15249
918.495	15005
918.606	14994
918.717	14914
918.828	14952
918.939	14963
919.05	14853
919.161	14998
919.272	14682
919.383	14758
919.494	15051
919.604	15085
919.715	14845
919.826	14731
919.936	14792
920.047	14960
920.157	14933
920.267	15108
920.378	14933
920.488	14754
920.598	15051
920.708	15188
920.818	14998
920.928	15043
921.038	15207
921.148	15180
921.258	14845
921.368	14849
921.477	14648
921.587	14613
921.697	14442
921.806	14625
921.916	14461
922.025	14377
922.134	14385
922.244	14259
922.353	14347
922.462	14111
922.571	14077
922.68	13986
922.789	13875
922.898	13974
923.007	13883
923.116	13852
923.224	13795
923.333	13890
923.442	13681
923.55	13791
923.659	13662
923.767	13757
923.876	13727
923.984	13772
924.092	13632
924.201	13620
924.309	13597
924.417	13548
924.525	13586
924.633	13525
924.741	14541
924.849	13354
924.956	13468
925.064	13339
925.172	13225
925.279	13263
925.387	13316
925.494	13282
925.602	13312
925.709	13293
925.816	13274
925.924	13293
926.031	13392
926.138	13304
926.245	13324
926.352	13110
926.459	13278
926.566	13331
926.673	13038
926.779	13107
926.886	12993
926.993	12924
927.099	12894
927.206	12814
927.312	12840
927.419	12886
927.525	12863
927.631	12897
927.737	12768
927.843	12726
927.95	12566
928.056	12707
928.162	12707
928.267	12662
928.373	13282
928.479	12662
928.585	12479
928.69	12635
928.796	12620
928.901	12631
929.007	12441
929.112	12589
929.218	12433
929.323	12426
929.428	12418
929.533	12597
929.638	12232
929.743	12334
929.848	12391
929.953	12330
930.058	12247
930.163	12110
930.267	12163
930.372	12197
930.477	12068
930.581	12235
930.685	12102
930.79	11984
930.894	11935
930.998	11897
931.103	12057
931.207	11783
931.311	11646
931.415	11516
931.519	11288
931.623	11383
