Data from test_V78500241_841.txt Node
Date: Fri Mar 25 15:47:37 CST 2022
User: usil
Spectrometer: V785-0024
Trigger mode: 0
Integration Time (sec): 4.000000E-1
Scans to average: 1
Nonlinearity correction enabled: false
Boxcar width: 0
Storing dark spectrum: false
XAxis mode: Wavelengths
Number of Pixels in Spectrum: 1024
>>>>>Begin Spectral Data<<<<<
801.071	27762
801.214	27629
801.356	27279
801.499	27363
801.641	27165
801.783	27123
801.926	27351
802.068	27256
802.211	27310
802.353	27039
802.496	27001
802.638	26864
802.78	26849
802.923	26887
803.065	26895
803.208	26937
803.35	26891
803.492	27089
803.635	27009
803.777	27058
803.919	27009
804.061	27348
804.204	27199
804.346	26990
804.488	26853
804.63	27036
804.773	26963
804.915	27009
805.057	27184
805.199	27108
805.341	27241
805.483	27081
805.626	27207
805.768	27077
805.91	27089
806.052	27154
806.194	27256
806.336	27298
806.478	27363
806.62	27161
806.762	27363
806.904	27583
807.046	27603
807.188	27743
807.33	27603
807.472	27614
807.614	27610
807.756	27549
807.898	27504
808.04	27408
808.182	27424
808.324	27538
808.465	27469
808.607	27736
808.749	27816
808.891	27873
809.033	27991
809.174	27994
809.316	27728
809.458	27827
809.6	27857
809.741	27918
809.883	27956
810.025	28116
810.166	28074
810.308	28196
810.45	28013
810.591	28029
810.733	27831
810.875	27736
811.016	27739
811.158	27720
811.299	28086
811.441	28078
811.582	28067
811.724	27895
811.865	27838
812.007	27903
812.148	27838
812.29	27903
812.431	28055
812.573	28147
812.714	28303
812.855	28382
812.997	28554
813.138	28508
813.279	28489
813.421	28367
813.562	28382
813.703	28112
813.845	28093
813.986	27831
814.127	27713
814.268	27606
814.41	27587
814.551	27595
814.692	27583
814.833	27469
814.974	27637
815.115	27458
815.256	27568
815.397	27492
815.539	27378
815.68	27291
815.821	27264
815.962	27359
816.103	27397
816.244	27222
816.385	27264
816.526	27051
816.666	26986
816.807	27001
816.948	26925
817.089	26914
817.23	26895
817.371	26811
817.512	26861
817.653	26830
817.793	26785
817.934	26746
818.075	26758
818.216	26815
818.356	26845
818.497	26655
818.638	26598
818.778	26667
818.919	26777
819.06	26686
819.2	26716
819.341	26811
819.481	26834
819.622	26910
819.762	27169
819.903	27036
820.043	27093
820.184	26975
820.324	26902
820.465	27009
820.605	26864
820.746	26929
820.886	26781
821.026	26895
821.167	26910
821.307	26895
821.447	26777
821.588	26716
821.728	26522
821.868	26579
822.008	26476
822.149	26172
822.289	26301
822.429	26046
822.569	25951
822.709	26058
822.849	25883
822.99	25887
823.13	25677
823.27	25738
823.41	25586
823.55	25620
823.69	25753
823.83	25715
823.97	25689
824.11	25339
824.25	25426
824.389	25434
824.529	25441
824.669	25434
824.809	25529
824.949	25624
825.089	25670
825.228	25571
825.368	25316
825.508	25282
825.648	25392
825.787	25354
825.927	25362
826.067	25324
826.206	25373
826.346	25388
826.485	25506
826.625	25304
826.765	25495
826.904	25350
827.044	25156
827.183	25088
827.323	25046
827.462	25053
827.601	25053
827.741	25004
827.88	24977
828.02	24901
828.159	24932
828.298	24928
828.437	25110
828.577	24856
828.716	25221
828.855	25019
828.994	24882
829.134	24741
829.273	24661
829.412	24711
829.551	24681
829.69	24681
829.829	24806
829.968	24772
830.107	24848
830.246	24700
830.385	24566
830.524	24555
830.663	24483
830.802	24399
830.941	24384
831.08	24311
831.219	24304
831.357	24353
831.496	24566
831.635	24289
831.774	24251
831.913	24254
832.051	24194
832.19	24125
832.329	24098
832.467	24060
832.606	23931
832.744	24015
832.883	24133
833.022	24030
833.16	23935
833.299	23973
833.437	23973
833.576	24159
833.714	24144
833.852	24102
833.991	24022
834.129	24152
834.267	24026
834.406	24053
834.544	24136
834.682	24083
834.821	24026
834.959	24289
835.097	23916
835.235	24144
835.373	24015
835.511	24030
835.65	23920
835.788	23874
835.926	23859
836.064	23611
836.202	23752
836.34	24003
836.478	24022
836.615	23798
836.753	23889
836.891	23901
837.029	23912
837.167	23961
837.305	23878
837.443	23764
837.58	23767
837.718	23786
837.856	23703
837.993	23703
838.131	23722
838.269	23573
838.406	23589
838.544	23577
838.681	23429
838.819	23448
838.956	23216
839.094	23216
839.231	23216
839.369	23360
839.506	23627
839.643	23463
839.781	23307
839.918	23223
840.055	23223
840.193	23181
840.33	23136
840.467	23166
840.604	23261
840.742	23467
840.879	23056
841.016	22999
841.153	23109
841.29	23193
841.427	23022
841.564	23174
841.701	23216
841.838	23181
841.975	22949
842.112	23075
842.249	23151
842.385	22953
842.522	23117
842.659	23060
842.796	22904
842.933	22991
843.069	22809
843.206	22713
843.343	22953
843.479	22908
843.616	22885
843.752	22672
843.889	22599
844.025	22717
844.162	22592
844.298	22782
844.435	22767
844.571	22622
844.708	22725
844.844	22782
844.98	22858
845.117	22725
845.253	22573
845.389	22561
845.525	22580
845.661	22668
845.798	22390
845.934	22500
846.07	22405
846.206	22451
846.342	22554
846.478	22367
846.614	22177
846.75	22280
846.886	22143
847.022	22150
847.158	22219
847.294	22143
847.429	22128
847.565	21998
847.701	22451
847.837	21930
847.972	21827
848.108	21911
848.244	21888
848.379	21690
848.515	21587
848.65	21831
848.786	21686
848.921	21778
849.057	21846
849.192	21854
849.328	21846
849.463	21728
849.598	21732
849.734	21739
849.869	21603
850.004	21454
850.14	21656
850.275	21454
850.41	21408
850.545	21447
850.68	21473
850.815	21473
850.95	21450
851.085	21599
851.22	21553
851.355	21523
851.49	21359
851.625	21355
851.76	21485
851.895	21401
852.03	21454
852.165	21534
852.299	21511
852.434	21610
852.569	21378
852.703	21507
852.838	21675
852.973	21648
853.107	21542
853.242	21431
853.376	21306
853.511	21188
853.645	21351
853.78	21332
853.914	21473
854.048	21283
854.183	21252
854.317	21374
854.451	21420
854.585	21264
854.72	21306
854.854	21340
854.988	21173
855.122	21279
855.256	21173
855.39	21249
855.524	21348
855.658	21386
855.792	21283
855.926	21416
856.06	21321
856.194	21462
856.327	21302
856.461	21264
856.595	21233
856.729	21195
856.862	21325
856.996	21389
857.13	21393
857.263	21504
857.397	21435
857.53	21287
857.664	21428
857.797	21393
857.931	21473
858.064	21389
858.197	21462
858.331	21336
858.464	21359
858.597	21131
858.731	21401
858.864	21245
858.997	21287
859.13	21348
859.263	21260
859.396	21408
859.529	21207
859.662	21279
859.795	21260
859.928	21374
860.061	21504
860.194	21424
860.327	21367
860.46	21302
860.592	21389
860.725	21393
860.858	21329
860.99	21359
861.123	21203
861.256	21332
861.388	21131
861.521	21793
861.653	21203
861.786	21100
861.918	21127
862.05	21138
862.183	21241
862.315	21256
862.447	21374
862.58	21169
862.712	20998
862.844	21028
862.976	21066
863.108	20998
863.24	21511
863.372	21039
863.504	20975
863.636	20994
863.768	21096
863.9	20948
864.032	20838
864.164	20967
864.296	21024
864.428	21070
864.559	21157
864.691	20998
864.823	21066
864.954	21005
865.086	20990
865.217	20842
865.349	20834
865.48	20830
865.612	20971
865.743	21100
865.875	20952
866.006	20853
866.137	20864
866.269	20899
866.4	20921
866.531	20762
866.662	20891
866.793	20819
866.924	20925
867.055	20895
867.186	20986
867.317	20762
867.448	20929
867.579	20811
867.71	20845
867.841	20746
867.972	20769
868.103	20830
868.233	20834
868.364	20800
868.495	20883
868.625	21146
868.756	21131
868.886	20925
869.017	21066
869.147	21199
869.278	21207
869.408	21123
869.539	21074
869.669	21188
869.799	21146
869.929	21237
870.06	21207
870.19	21454
870.32	21397
870.45	21405
870.58	21405
870.71	21709
870.84	21644
870.97	21401
871.1	21515
871.23	21694
871.36	21660
871.489	21644
871.619	21667
871.749	21713
871.879	21705
872.008	21831
872.138	21618
872.267	21682
872.397	21466
872.526	21469
872.656	21580
872.785	21370
872.915	21686
873.044	21781
873.173	21823
873.303	21857
873.432	21800
873.561	21774
873.69	21606
873.819	21637
873.948	21812
874.077	21679
874.206	21633
874.335	21713
874.464	21892
874.593	21937
874.722	21835
874.851	21907
874.979	21846
875.108	21903
875.237	21876
875.365	21755
875.494	21945
875.623	21854
875.751	21937
875.88	22032
876.008	22147
876.136	22078
876.265	22390
876.393	22474
876.521	22459
876.65	22261
876.778	22310
876.906	22154
877.034	22371
877.162	22352
877.29	22200
877.418	22352
877.546	22527
877.674	22394
877.802	22265
877.93	22318
878.058	22131
878.185	22246
878.313	22196
878.441	22204
878.568	22200
878.696	22181
878.824	22337
878.951	22356
879.079	22489
879.206	22577
879.333	22500
879.461	22356
879.588	22325
879.715	22459
879.842	22436
879.97	22375
880.097	22185
880.224	22006
880.351	22082
880.478	22097
880.605	22048
880.732	22082
880.859	22356
880.986	22101
881.112	22169
881.239	22013
881.366	21838
881.493	21808
881.619	21743
881.746	21701
881.872	21641
881.999	21671
882.125	21538
882.252	21682
882.378	21591
882.505	21759
882.631	21397
882.757	21374
882.883	21603
883.01	21424
883.136	21359
883.262	21291
883.388	21245
883.514	21397
883.64	21454
883.766	21367
883.892	21214
884.018	21119
884.143	21249
884.269	21534
884.395	21131
884.52	21066
884.646	20994
884.772	20975
884.897	20944
885.023	20956
885.148	21188
885.274	21173
885.399	21104
885.524	21024
885.65	21070
885.775	20990
885.9	21020
886.025	21062
886.15	21138
886.275	20887
886.4	20804
886.525	21032
886.65	20941
886.775	20979
886.9	21039
887.025	21195
887.149	20929
887.274	20796
887.399	20857
887.523	20758
887.648	20804
887.773	20857
887.897	20982
888.021	20895
888.146	20693
888.27	20929
888.395	20804
888.519	20811
888.643	20811
888.767	20834
888.891	20758
889.015	20602
889.139	20579
889.263	20503
889.387	20670
889.511	20746
889.635	20712
889.759	20568
889.883	20537
890.006	20587
890.13	20701
890.254	20507
890.377	20461
890.501	20438
890.624	20301
890.748	20351
890.871	20229
890.995	20046
891.118	20145
891.241	20073
891.364	20149
891.488	20320
891.611	20126
891.734	20119
891.857	20221
891.98	20267
892.103	20240
892.226	20168
892.349	20103
892.471	19928
892.594	20027
892.717	20077
892.839	20016
892.962	20092
893.085	20119
893.207	20073
893.33	19947
893.452	19989
893.575	20001
893.697	19989
893.819	20206
893.941	20229
894.064	20214
894.186	20046
894.308	20012
894.43	20130
894.552	20081
894.674	20134
894.796	19936
894.918	19978
895.04	20084
895.161	20225
895.283	20149
895.405	19871
895.526	20024
895.648	20077
895.769	20111
895.891	20153
896.012	20062
896.134	20202
896.255	20012
896.376	19993
896.498	20043
896.619	19959
896.74	20016
896.861	20130
896.982	20343
897.103	20484
897.224	20358
897.345	20259
897.466	20240
897.587	20339
897.708	20366
897.828	20199
897.949	20229
898.07	20176
898.19	20298
898.311	20362
898.431	20073
898.552	20267
898.672	20336
898.792	20408
898.913	20366
899.033	20149
899.153	20065
899.273	19959
899.393	20107
899.513	20153
899.633	20016
899.753	20138
899.873	19955
899.993	20065
900.113	20020
900.232	20062
900.352	20005
900.472	19940
900.591	19814
900.711	19841
900.83	19818
900.95	19955
901.069	19811
901.189	19605
901.308	19540
901.427	19419
901.546	19422
901.665	19422
901.784	19392
901.904	19304
902.023	19118
902.141	19084
902.26	18886
902.379	18954
902.498	18909
902.617	18947
902.735	19015
902.854	18852
902.973	18848
903.091	18582
903.21	18597
903.328	18639
903.446	18555
903.565	18410
903.683	18399
903.801	18315
903.919	18441
904.038	18426
904.156	18201
904.274	18296
904.392	18129
904.51	18114
904.627	18159
904.745	18140
904.863	18216
904.981	18098
905.098	17817
905.216	17805
905.334	17828
905.451	17950
905.569	17786
905.686	17893
905.803	17748
905.921	17729
906.038	17912
906.155	17684
906.272	17619
906.389	17630
906.506	17433
906.623	17509
906.74	17387
906.857	17269
906.974	17330
907.091	17535
907.208	17497
907.324	17505
907.441	17318
907.557	17128
907.674	17056
907.79	17128
907.907	16984
908.023	17227
908.139	17155
908.256	17014
908.372	17014
908.488	16980
908.604	16892
908.72	16786
908.836	16809
908.952	16771
909.068	16923
909.184	16923
909.3	16771
909.415	16927
909.531	16824
909.647	16519
909.762	16500
909.878	16519
909.993	16618
910.108	16424
910.224	16455
910.339	16455
910.454	16462
910.57	16386
910.685	16386
910.8	16653
910.915	16523
911.03	16341
911.145	16128
911.259	16154
911.374	16124
911.489	16147
911.604	15991
911.718	15903
911.833	15945
911.947	15778
912.062	15690
912.176	15876
912.291	15831
912.405	15827
912.519	15998
912.633	16029
912.748	16044
912.862	15842
912.976	15713
913.09	15603
913.204	15584
913.318	15739
913.431	15835
913.545	15789
913.659	15846
913.772	15660
913.886	15466
914	15469
914.113	15584
914.226	15538
914.34	15553
914.453	15443
914.566	15458
914.68	15332
914.793	15344
914.906	15157
915.019	15188
915.132	15051
915.245	15097
915.358	15226
915.47	15176
915.583	14998
915.696	15157
915.809	15135
915.921	15161
916.034	14990
916.146	14941
916.259	15009
916.371	15024
916.483	15116
916.595	14998
916.708	14952
916.82	14910
916.932	14941
917.044	15001
917.156	14960
917.268	14750
917.38	14800
917.491	14746
917.603	14708
917.715	14807
917.826	14956
917.938	14724
918.049	14564
918.161	14651
918.272	14895
918.384	14861
918.495	14693
918.606	14617
918.717	14522
918.828	14518
918.939	14514
919.05	14404
919.161	14431
919.272	14320
919.383	14317
919.494	14530
919.604	14651
919.715	14465
919.826	14396
919.936	14442
920.047	14583
920.157	14526
920.267	14727
920.378	14541
920.488	14469
920.598	14720
920.708	14819
920.818	14621
920.928	14659
921.038	14762
921.148	14705
921.258	14408
921.368	14408
921.477	14206
921.587	14187
921.697	14111
921.806	14237
921.916	14065
922.025	13868
922.134	13959
922.244	13875
922.353	13883
922.462	13803
922.571	13719
922.68	13586
922.789	13472
922.898	13548
923.007	13483
923.116	13601
923.224	13537
923.333	13537
923.442	13426
923.55	13407
923.659	13350
923.767	13358
923.876	13369
923.984	13343
924.092	13244
924.201	13175
924.309	13251
924.417	13179
924.525	13126
924.633	13171
924.741	14134
924.849	12993
924.956	13088
925.064	12924
925.172	12840
925.279	12928
925.387	12962
925.494	12939
925.602	13114
925.709	13053
925.816	12791
925.924	12897
926.031	12981
926.138	12916
926.245	12791
926.352	12787
926.459	12878
926.566	12966
926.673	12745
926.779	12711
926.886	12662
926.993	12578
927.099	12445
927.206	12456
927.312	12407
927.419	12490
927.525	12471
927.631	12513
927.737	12433
927.843	12311
927.95	12186
928.056	12391
928.162	12410
928.267	12319
928.373	12977
928.479	12342
928.585	12117
928.69	12327
928.796	12330
928.901	12281
929.007	12026
929.112	12209
929.218	12140
929.323	12072
929.428	12114
929.533	12243
929.638	11935
929.743	12030
929.848	12098
929.953	12038
930.058	11958
930.163	11790
930.267	11737
930.372	11920
930.477	11745
930.581	11908
930.685	11748
930.79	11646
930.894	11646
930.998	11657
931.103	11741
931.207	11242
931.311	11345
931.415	11227
931.519	11056
931.623	10987
