Data from test_V78500241_793.txt Node
Date: Fri Mar 25 15:47:17 CST 2022
User: usil
Spectrometer: V785-0024
Trigger mode: 0
Integration Time (sec): 4.000000E-1
Scans to average: 1
Nonlinearity correction enabled: false
Boxcar width: 0
Storing dark spectrum: false
XAxis mode: Wavelengths
Number of Pixels in Spectrum: 1024
>>>>>Begin Spectral Data<<<<<
801.071	27652
801.214	27245
801.356	27100
801.499	27135
801.641	26883
801.783	26868
801.926	26944
802.068	26982
802.211	27001
802.353	26811
802.496	26579
802.638	26609
802.78	26583
802.923	26522
803.065	26473
803.208	26568
803.35	26564
803.492	26583
803.635	26674
803.777	26564
803.919	26815
804.061	27089
804.204	26693
804.346	26727
804.488	26568
804.63	26636
804.773	26746
804.915	26621
805.057	26895
805.199	26807
805.341	26887
805.483	26956
805.626	26849
805.768	26830
805.91	26746
806.052	26975
806.194	26716
806.336	27074
806.478	26902
806.62	26937
806.762	26960
806.904	26937
807.046	27302
807.188	27344
807.33	27393
807.472	27359
807.614	27268
807.756	27287
807.898	27138
808.04	26960
808.182	27131
808.324	27252
808.465	27192
808.607	27279
808.749	27481
808.891	27618
809.033	27682
809.174	27576
809.316	27321
809.458	27500
809.6	27310
809.741	27618
809.883	27736
810.025	27835
810.166	27800
810.308	27854
810.45	27614
810.591	27713
810.733	27614
810.875	27310
811.016	27412
811.158	27180
811.299	27534
811.441	27732
811.582	27599
811.724	27530
811.865	27397
812.007	27580
812.148	27450
812.29	27466
812.431	27572
812.573	27736
812.714	27956
812.855	27911
812.997	28116
813.138	28386
813.279	28158
813.421	27907
813.562	27884
813.703	27819
813.845	27724
813.986	27264
814.127	27233
814.268	27116
814.41	27150
814.551	27009
814.692	27184
814.833	27119
814.974	27047
815.115	27176
815.256	27039
815.397	27081
815.539	26868
815.68	26857
815.821	26899
815.962	26842
816.103	26883
816.244	26762
816.385	26712
816.526	26701
816.666	26419
816.807	26446
816.948	26503
817.089	26587
817.23	26431
817.371	26244
817.512	26457
817.653	26415
817.793	26355
817.934	26355
818.075	26518
818.216	26385
818.356	26400
818.497	26286
818.638	26122
818.778	26126
818.919	26088
819.06	26103
819.2	26233
819.341	26278
819.481	26438
819.622	26579
819.762	26708
819.903	26655
820.043	26594
820.184	26587
820.324	26511
820.465	26522
820.605	26613
820.746	26473
820.886	26381
821.026	26518
821.167	26442
821.307	26408
821.447	26366
821.588	26225
821.728	26248
821.868	26069
822.008	25944
822.149	25959
822.289	25837
822.429	25559
822.569	25540
822.709	25552
822.849	25331
822.99	25362
823.13	25365
823.27	25263
823.41	25228
823.55	25088
823.69	25114
823.83	25183
823.97	25247
824.11	24977
824.25	24924
824.389	25000
824.529	25129
824.669	24924
824.809	25194
824.949	25259
825.089	25103
825.228	25019
825.368	24741
825.508	24833
825.648	25034
825.787	24916
825.927	24924
826.067	24741
826.206	24719
826.346	24684
826.485	24848
826.625	24848
826.765	25034
826.904	24966
827.044	24658
827.183	24677
827.323	24574
827.462	24669
827.601	24616
827.741	24574
827.88	24623
828.02	24422
828.159	24642
828.298	24722
828.437	24646
828.577	24483
828.716	24715
828.855	24601
828.994	24327
829.134	24372
829.273	24384
829.412	24273
829.551	24205
829.69	24346
829.829	24277
829.968	24304
830.107	24357
830.246	24258
830.385	24220
830.524	24243
830.663	24159
830.802	24011
830.941	23798
831.08	23729
831.219	23973
831.357	23912
831.496	24057
831.635	23980
831.774	23767
831.913	23836
832.051	23718
832.19	23596
832.329	23676
832.467	23596
832.606	23459
832.744	23486
832.883	23566
833.022	23554
833.16	23577
833.299	23585
833.437	23551
833.576	23623
833.714	23707
833.852	23828
833.991	23657
834.129	23695
834.267	23672
834.406	23653
834.544	23611
834.682	23608
834.821	23737
834.959	23707
835.097	23528
835.235	23684
835.373	23474
835.511	23661
835.65	23425
835.788	23509
835.926	23318
836.064	23242
836.202	23280
836.34	23589
836.478	23547
836.615	23448
836.753	23467
836.891	23600
837.029	23520
837.167	23376
837.305	23455
837.443	23433
837.58	23242
837.718	23349
837.856	23368
837.993	23197
838.131	23284
838.269	23212
838.406	23159
838.544	23071
838.681	22915
838.819	22942
838.956	22801
839.094	22831
839.231	22805
839.369	22908
839.506	23086
839.643	23006
839.781	22713
839.918	22675
840.055	22637
840.193	22656
840.33	22733
840.467	22729
840.604	22740
840.742	23102
840.879	22611
841.016	22664
841.153	22527
841.29	22752
841.427	22691
841.564	22763
841.701	22656
841.838	22607
841.975	22618
842.112	22500
842.249	22550
842.385	22432
842.522	22519
842.659	22565
842.796	22356
842.933	22367
843.069	22291
843.206	22329
843.343	22497
843.479	22481
843.616	22318
843.752	22204
843.889	22337
844.025	22367
844.162	22253
844.298	22158
844.435	22268
844.571	22272
844.708	22303
844.844	22375
844.98	22329
845.117	22455
845.253	22280
845.389	22162
845.525	22112
845.661	22150
845.798	21907
845.934	22105
846.07	21865
846.206	21972
846.342	22154
846.478	22025
846.614	21831
846.75	21625
846.886	21614
847.022	21736
847.158	21663
847.294	21743
847.429	21694
847.565	21603
847.701	21994
847.837	21389
847.972	21507
848.108	21534
848.244	21515
848.379	21344
848.515	21370
848.65	21184
848.786	21428
848.921	21374
849.057	21424
849.192	21355
849.328	21359
849.463	21245
849.598	21237
849.734	21291
849.869	21188
850.004	21039
850.14	21051
850.275	21131
850.41	21051
850.545	20975
850.68	20941
850.815	20982
850.95	20979
851.085	21252
851.22	21081
851.355	21085
851.49	20998
851.625	20967
851.76	20921
851.895	20883
852.03	20910
852.165	20982
852.299	21039
852.434	21127
852.569	20990
852.703	21032
852.838	21161
852.973	21195
853.107	21089
853.242	21024
853.376	21013
853.511	20701
853.645	20914
853.78	21005
853.914	20842
854.048	20804
854.183	20826
854.317	20979
854.451	21119
854.585	20982
854.72	20762
854.854	20902
854.988	20727
855.122	20925
855.256	20689
855.39	20746
855.524	20967
855.658	20941
855.792	20941
855.926	20944
856.06	20948
856.194	20941
856.327	20785
856.461	20823
856.595	20785
856.729	20902
856.862	20914
856.996	20811
857.13	20853
857.263	21001
857.397	20941
857.53	20933
857.664	20952
857.797	20815
857.931	20929
858.064	20857
858.197	20948
858.331	20861
858.464	20842
858.597	20693
858.731	20735
858.864	20857
858.997	20785
859.13	20895
859.263	20929
859.396	20982
859.529	20918
859.662	20792
859.795	20826
859.928	20902
860.061	20933
860.194	20982
860.327	20811
860.46	20910
860.592	20921
860.725	21020
860.858	21074
860.99	20914
861.123	20788
861.256	20765
861.388	20967
861.521	21382
861.653	20807
861.786	20537
861.918	20667
862.05	20845
862.183	20857
862.315	20823
862.447	20876
862.58	20705
862.712	20564
862.844	20674
862.976	20724
863.108	20724
863.24	21077
863.372	20450
863.504	20522
863.636	20549
863.768	20701
863.9	20663
864.032	20385
864.164	20492
864.296	20552
864.428	20655
864.559	20708
864.691	20629
864.823	20606
864.954	20560
865.086	20648
865.217	20514
865.349	20560
865.48	20560
865.612	20476
865.743	20674
865.875	20412
866.006	20473
866.137	20537
866.269	20473
866.4	20442
866.531	20484
866.662	20324
866.793	20404
866.924	20412
867.055	20484
867.186	20324
867.317	20400
867.448	20438
867.579	20480
867.71	20267
867.841	20343
867.972	20396
868.103	20408
868.233	20408
868.364	20305
868.495	20579
868.625	20678
868.756	20762
868.886	20564
869.017	20617
869.147	20838
869.278	20785
869.408	20720
869.539	20693
869.669	20655
869.799	20644
869.929	20800
870.06	20750
870.19	21066
870.32	20937
870.45	20967
870.58	21005
870.71	21142
870.84	21074
870.97	21264
871.1	21081
871.23	21268
871.36	21294
871.489	21119
871.619	21268
871.749	21199
871.879	21310
872.008	21344
872.138	21222
872.267	21211
872.397	21214
872.526	21104
872.656	21165
872.785	21108
872.915	21256
873.044	21317
873.173	21226
873.303	21313
873.432	21336
873.561	21428
873.69	21302
873.819	21275
873.948	21348
874.077	21233
874.206	21249
874.335	21237
874.464	21439
874.593	21545
874.722	21663
874.851	21504
874.979	21542
875.108	21557
875.237	21439
875.365	21332
875.494	21428
875.623	21618
875.751	21370
875.88	21538
876.008	21671
876.136	21816
876.265	21888
876.393	22010
876.521	21876
876.65	22029
876.778	21808
876.906	21850
877.034	21892
877.162	21945
877.29	21781
877.418	21892
877.546	21880
877.674	21831
877.802	21895
877.93	21869
878.058	21873
878.185	21781
878.313	21785
878.441	21747
878.568	21656
878.696	21903
878.824	21812
878.951	21960
879.079	22032
879.206	22139
879.333	22010
879.461	21816
879.588	21968
879.715	22036
879.842	22109
879.97	21804
880.097	21660
880.224	21717
880.351	21736
880.478	21618
880.605	21755
880.732	21800
880.859	21983
880.986	21720
881.112	21641
881.239	21564
881.366	21416
881.493	21386
881.619	21401
881.746	21386
881.872	21272
881.999	21336
882.125	21184
882.252	21218
882.378	21252
882.505	21351
882.631	21127
882.757	21070
882.883	21131
883.01	21032
883.136	20944
883.262	20849
883.388	20861
883.514	20956
883.64	20960
883.766	20914
883.892	20773
884.018	20895
884.143	20864
884.269	20971
884.395	20708
884.52	20552
884.646	20701
884.772	20385
884.897	20423
885.023	20632
885.148	20800
885.274	20724
885.399	20674
885.524	20556
885.65	20625
885.775	20568
885.9	20609
886.025	20746
886.15	20625
886.275	20514
886.4	20575
886.525	20571
886.65	20552
886.775	20552
886.9	20705
887.025	20750
887.149	20575
887.274	20419
887.399	20431
887.523	20370
887.648	20252
887.773	20263
887.897	20385
888.021	20454
888.146	20233
888.27	20636
888.395	20358
888.519	20396
888.643	20476
888.767	20415
888.891	20294
889.015	20138
889.139	20271
889.263	20324
889.387	20309
889.511	20465
889.635	20218
889.759	20126
889.883	20161
890.006	20225
890.13	20358
890.254	20119
890.377	20130
890.501	19898
890.624	20062
890.748	19993
890.871	19830
890.995	19746
891.118	19712
891.241	19845
891.364	19845
891.488	19841
891.611	19780
891.734	19822
891.857	19936
891.98	19811
892.103	19875
892.226	19822
892.349	19772
892.471	19597
892.594	19693
892.717	19715
892.839	19590
892.962	19643
893.085	19643
893.207	19776
893.33	19571
893.452	19628
893.575	19734
893.697	19666
893.819	19898
893.941	19928
894.064	19780
894.186	19696
894.308	19696
894.43	19826
894.552	19761
894.674	19803
894.796	19556
894.918	19632
895.04	19575
895.161	19693
895.283	19731
895.405	19605
895.526	19674
895.648	19757
895.769	19689
895.891	19677
896.012	19769
896.134	19818
896.255	19784
896.376	19655
896.498	19681
896.619	19666
896.74	19689
896.861	19712
896.982	20069
897.103	20134
897.224	20031
897.345	19947
897.466	19906
897.587	19909
897.708	20077
897.828	19845
897.949	19868
898.07	19864
898.19	19909
898.311	20031
898.431	19887
898.552	19955
898.672	20077
898.792	20065
898.913	20035
899.033	19921
899.153	19742
899.273	19674
899.393	19616
899.513	19761
899.633	19571
899.753	19715
899.873	19616
899.993	19723
900.113	19639
900.232	19677
900.352	19670
900.472	19594
900.591	19354
900.711	19533
900.83	19438
900.95	19674
901.069	19525
901.189	19373
901.308	19179
901.427	19099
901.546	19137
901.665	19076
901.784	19107
901.904	18939
902.023	18802
902.141	18726
902.26	18646
902.379	18681
902.498	18574
902.617	18589
902.735	18673
902.854	18441
902.973	18528
903.091	18346
903.21	18235
903.328	18209
903.446	18270
903.565	18057
903.683	18102
903.801	17980
903.919	18087
904.038	18083
904.156	17783
904.274	17889
904.392	17775
904.51	17764
904.627	17783
904.745	17908
904.863	17790
904.981	17661
905.098	17577
905.216	17562
905.334	17452
905.451	17474
905.569	17467
905.686	17528
905.803	17547
905.921	17337
906.038	17436
906.155	17299
906.272	17162
906.389	17239
906.506	17003
906.623	17117
906.74	17064
906.857	16984
906.974	16911
907.091	17242
907.208	17220
907.324	17018
907.441	17022
907.557	16733
907.674	16771
907.79	16649
907.907	16824
908.023	16656
908.139	16809
908.256	16721
908.372	16626
908.488	16702
908.604	16558
908.72	16489
908.836	16462
908.952	16405
909.068	16443
909.184	16615
909.3	16398
909.415	16523
909.531	16440
909.647	16215
909.762	16242
909.878	16086
909.993	16207
910.108	16185
910.224	16116
910.339	16192
910.454	16120
910.57	16044
910.685	15934
910.8	16211
910.915	16097
911.03	16055
911.145	15922
911.259	15831
911.374	15876
911.489	15709
911.604	15660
911.718	15584
911.833	15599
911.947	15526
912.062	15321
912.176	15576
912.291	15534
912.405	15584
912.519	15747
912.633	15648
912.748	15584
912.862	15644
912.976	15374
913.09	15218
913.204	15287
913.318	15351
913.431	15401
913.545	15431
913.659	15454
913.772	15405
913.886	15157
914	15180
914.113	15283
914.226	15363
914.34	15233
914.453	15066
914.566	15150
914.68	15089
914.793	15066
914.906	14765
915.019	14796
915.132	14712
915.245	14716
915.358	14785
915.47	14815
915.583	14769
915.696	14864
915.809	14880
915.921	14918
916.034	14765
916.146	14712
916.259	14636
916.371	14777
916.483	14705
916.595	14617
916.708	14549
916.82	14655
916.932	14571
917.044	14602
917.156	14568
917.268	14438
917.38	14511
917.491	14457
917.603	14412
917.715	14495
917.826	14495
917.938	14446
918.049	14221
918.161	14408
918.272	14590
918.384	14442
918.495	14511
918.606	14298
918.717	14225
918.828	14206
918.939	14244
919.05	14176
919.161	14237
919.272	14043
919.383	14096
919.494	14229
919.604	14427
919.715	14206
919.826	14092
919.936	14229
920.047	14275
920.157	14263
920.267	14358
920.378	14233
920.488	14286
920.598	14259
920.708	14507
920.818	14374
920.928	14309
921.038	14522
921.148	14465
921.258	14058
921.368	14008
921.477	13970
921.587	13913
921.697	13841
921.806	13921
921.916	13826
922.025	13765
922.134	13556
922.244	13556
922.353	13643
922.462	13460
922.571	13460
922.68	13274
922.789	13209
922.898	13240
923.007	13194
923.116	13285
923.224	13160
923.333	13266
923.442	13107
923.55	13023
923.659	13015
923.767	13179
923.876	12973
923.984	13046
924.092	12943
924.201	13031
924.309	12932
924.417	12993
924.525	12871
924.633	12913
924.741	13826
924.849	12738
924.956	12814
925.064	12639
925.172	12730
925.279	12639
925.387	12665
925.494	12684
925.602	12764
925.709	12688
925.816	12593
925.924	12570
926.031	12715
926.138	12681
926.245	12665
926.352	12570
926.459	12700
926.566	12673
926.673	12490
926.779	12475
926.886	12433
926.993	12327
927.099	12258
927.206	12209
927.312	12216
927.419	12281
927.525	12281
927.631	12281
927.737	12175
927.843	12087
927.95	11977
928.056	12038
928.162	12110
928.267	12129
928.373	12741
928.479	12178
928.585	11882
928.69	12030
928.796	12133
928.901	11958
929.007	11786
929.112	11946
929.218	11882
929.323	11870
929.428	11756
929.533	11870
929.638	11680
929.743	11752
929.848	11783
929.953	11741
930.058	11680
930.163	11497
930.267	11482
930.372	11680
930.477	11444
930.581	11756
930.685	11535
930.79	11398
930.894	11433
930.998	11471
931.103	11532
931.207	11159
931.311	11086
931.415	11006
931.519	10767
931.623	10771
