Data from test_V78500241_609.txt Node
Date: Fri Mar 25 15:46:01 CST 2022
User: usil
Spectrometer: V785-0024
Trigger mode: 0
Integration Time (sec): 4.000000E-1
Scans to average: 1
Nonlinearity correction enabled: false
Boxcar width: 0
Storing dark spectrum: false
XAxis mode: Wavelengths
Number of Pixels in Spectrum: 1024
>>>>>Begin Spectral Data<<<<<
801.071	27861
801.214	27770
801.356	27420
801.499	27439
801.641	27298
801.783	27355
801.926	27389
802.068	27302
802.211	27207
802.353	27150
802.496	26971
802.638	27024
802.78	26838
802.923	26849
803.065	26891
803.208	26960
803.35	26921
803.492	26902
803.635	27112
803.777	26910
803.919	27123
804.061	27321
804.204	27096
804.346	27077
804.488	26948
804.63	26887
804.773	27005
804.915	27066
805.057	27241
805.199	27249
805.341	27077
805.483	27192
805.626	27214
805.768	27203
805.91	27218
806.052	27142
806.194	27089
806.336	27355
806.478	27104
806.62	27374
806.762	27344
806.904	27500
807.046	27876
807.188	27648
807.33	27542
807.472	27561
807.614	27610
807.756	27603
807.898	27450
808.04	27496
808.182	27431
808.324	27435
808.465	27420
808.607	27694
808.749	27861
808.891	27949
809.033	28029
809.174	27876
809.316	27861
809.458	27838
809.6	27979
809.741	28192
809.883	28002
810.025	28131
810.166	28169
810.308	28135
810.45	28078
810.591	28139
810.733	27876
810.875	27892
811.016	27770
811.158	27732
811.299	27941
811.441	28131
811.582	28082
811.724	27998
811.865	27797
812.007	27842
812.148	27774
812.29	28013
812.431	28116
812.573	28253
812.714	28131
812.855	28493
812.997	28538
813.138	28653
813.279	28546
813.421	28382
813.562	28409
813.703	28234
813.845	28070
813.986	27675
814.127	27507
814.268	27443
814.41	27469
814.551	27599
814.692	27576
814.833	27481
814.974	27572
815.115	27488
815.256	27408
815.397	27397
815.539	27477
815.68	27401
815.821	27230
815.962	27218
816.103	27272
816.244	27131
816.385	27039
816.526	27211
816.666	26872
816.807	26883
816.948	26872
817.089	27055
817.23	26982
817.371	26880
817.512	26868
817.653	26849
817.793	26861
817.934	26842
818.075	26819
818.216	26800
818.356	26769
818.497	26674
818.638	26552
818.778	26514
818.919	26636
819.06	26579
819.2	26788
819.341	26853
819.481	26811
819.622	26853
819.762	27203
819.903	27001
820.043	26902
820.184	26994
820.324	27009
820.465	26952
820.605	26940
820.746	26933
820.886	26823
821.026	26956
821.167	26895
821.307	26891
821.447	26883
821.588	26781
821.728	26781
821.868	26503
822.008	26450
822.149	26317
822.289	26396
822.429	26065
822.569	26012
822.709	25928
822.849	25845
822.99	25750
823.13	25750
823.27	25681
823.41	25715
823.55	25521
823.69	25620
823.83	25586
823.97	25567
824.11	25320
824.25	25472
824.389	25301
824.529	25362
824.669	25540
824.809	25487
824.949	25609
825.089	25548
825.228	25518
825.368	25274
825.508	25358
825.648	25301
825.787	25407
825.927	25365
826.067	25225
826.206	25384
826.346	25430
826.485	25358
826.625	25441
826.765	25438
826.904	25354
827.044	25099
827.183	25088
827.323	25069
827.462	25008
827.601	24859
827.741	25133
827.88	25046
828.02	24913
828.159	25023
828.298	24905
828.437	25091
828.577	25015
828.716	25156
828.855	24810
828.994	24905
829.134	24646
829.273	24810
829.412	24726
829.551	24738
829.69	24760
829.829	24764
829.968	24768
830.107	24757
830.246	24635
830.385	24661
830.524	24719
830.663	24551
830.802	24467
830.941	24433
831.08	24262
831.219	24391
831.357	24361
831.496	24536
831.635	24277
831.774	24228
831.913	24323
832.051	24110
832.19	24136
832.329	24159
832.467	23935
832.606	24064
832.744	23942
832.883	24114
833.022	24018
833.16	23824
833.299	24091
833.437	23980
833.576	24152
833.714	24110
833.852	24057
833.991	24205
834.129	24110
834.267	24140
834.406	23969
834.544	24216
834.682	24095
834.821	23999
834.959	24311
835.097	24022
835.235	24182
835.373	23965
835.511	23999
835.65	23965
835.788	23882
835.926	23813
836.064	23668
836.202	23783
836.34	23824
836.478	24098
836.615	23882
836.753	23889
836.891	24011
837.029	23843
837.167	23904
837.305	23798
837.443	23836
837.58	23821
837.718	23748
837.856	23710
837.993	23722
838.131	23638
838.269	23524
838.406	23817
838.544	23596
838.681	23341
838.819	23395
838.956	23162
839.094	23189
839.231	23299
839.369	23349
839.506	23657
839.643	23452
839.781	23166
839.918	23086
840.055	23174
840.193	23132
840.33	23064
840.467	23212
840.604	23143
840.742	23372
840.879	23052
841.016	23098
841.153	23140
841.29	23166
841.427	23136
841.564	23216
841.701	23048
841.838	23025
841.975	22904
842.112	23025
842.249	22930
842.385	22881
842.522	23143
842.659	22862
842.796	22869
842.933	22919
843.069	22843
843.206	22828
843.343	22957
843.479	22782
843.616	22889
843.752	22611
843.889	22649
844.025	22702
844.162	22607
844.298	22774
844.435	22664
844.571	22561
844.708	22717
844.844	22816
844.98	22790
845.117	22744
845.253	22683
845.389	22519
845.525	22557
845.661	22481
845.798	22356
845.934	22588
846.07	22363
846.206	22466
846.342	22535
846.478	22413
846.614	22287
846.75	22131
846.886	22116
847.022	22032
847.158	22207
847.294	22006
847.429	22048
847.565	21983
847.701	22371
847.837	21972
847.972	21720
848.108	21907
848.244	21972
848.379	21759
848.515	21625
848.65	21682
848.786	21762
848.921	21709
849.057	21808
849.192	21838
849.328	21789
849.463	21675
849.598	21686
849.734	21545
849.869	21572
850.004	21408
850.14	21504
850.275	21439
850.41	21348
850.545	21348
850.68	21351
850.815	21481
850.95	21530
851.085	21603
851.22	21462
851.355	21466
851.49	21462
851.625	21511
851.76	21485
851.895	21294
852.03	21443
852.165	21374
852.299	21416
852.434	21500
852.569	21389
852.703	21466
852.838	21660
852.973	21591
853.107	21618
853.242	21382
853.376	21351
853.511	21176
853.645	21291
853.78	21542
853.914	21408
854.048	21218
854.183	21294
854.317	21317
854.451	21435
854.585	21359
854.72	21260
854.854	21313
854.988	21249
855.122	21294
855.256	21127
855.39	21275
855.524	21310
855.658	21329
855.792	21325
855.926	21317
856.06	21454
856.194	21351
856.327	21252
856.461	21169
856.595	21325
856.729	21363
856.862	21310
856.996	21283
857.13	21264
857.263	21439
857.397	21332
857.53	21363
857.664	21287
857.797	21408
857.931	21424
858.064	21302
858.197	21431
858.331	21370
858.464	21218
858.597	21104
858.731	21279
858.864	21241
858.997	21218
859.13	21332
859.263	21382
859.396	21412
859.529	21195
859.662	21142
859.795	21344
859.928	21154
860.061	21317
860.194	21523
860.327	21378
860.46	21211
860.592	21431
860.725	21363
860.858	21401
860.99	21150
861.123	21291
861.256	21260
861.388	21389
861.521	21861
861.653	21081
861.786	21062
861.918	21070
862.05	21275
862.183	21252
862.315	21226
862.447	21241
862.58	21119
862.712	21100
862.844	20971
862.976	20990
863.108	21051
863.24	21511
863.372	21005
863.504	21051
863.636	20948
863.768	21188
863.9	20883
864.032	20906
864.164	20952
864.296	21062
864.428	21119
864.559	21070
864.691	21009
864.823	20956
864.954	20937
865.086	21005
865.217	20899
865.349	20918
865.48	20921
865.612	20883
865.743	20986
865.875	20883
866.006	20769
866.137	20811
866.269	20925
866.4	20963
866.531	20754
866.662	20731
866.793	20796
866.924	20857
867.055	20857
867.186	20861
867.317	20834
867.448	20693
867.579	20914
867.71	20883
867.841	20739
867.972	20792
868.103	20823
868.233	20781
868.364	20826
868.495	20956
868.625	20887
868.756	21173
868.886	21005
869.017	20914
869.147	21127
869.278	21173
869.408	21093
869.539	21043
869.669	21089
869.799	21237
869.929	21142
870.06	21214
870.19	21370
870.32	21260
870.45	21405
870.58	21424
870.71	21583
870.84	21511
870.97	21485
871.1	21386
871.23	21507
871.36	21686
871.489	21595
871.619	21587
871.749	21618
871.879	21759
872.008	21728
872.138	21713
872.267	21694
872.397	21583
872.526	21443
872.656	21481
872.785	21447
872.915	21675
873.044	21660
873.173	21637
873.303	21793
873.432	21785
873.561	21743
873.69	21709
873.819	21835
873.948	21827
874.077	21644
874.206	21701
874.335	21667
874.464	21915
874.593	21915
874.722	21930
874.851	21960
874.979	21926
875.108	22067
875.237	21857
875.365	21876
875.494	21915
875.623	21972
875.751	21911
875.88	21972
876.008	22044
876.136	22097
876.265	22306
876.393	22386
876.521	22322
876.65	22413
876.778	22280
876.906	22215
877.034	22249
877.162	22272
877.29	22124
877.418	22284
877.546	22299
877.674	22363
877.802	22284
877.93	22329
878.058	22162
878.185	21998
878.313	22135
878.441	22284
878.568	22109
878.696	22120
878.824	22318
878.951	22447
879.079	22565
879.206	22546
879.333	22462
879.461	22291
879.588	22390
879.715	22386
879.842	22417
879.97	22333
880.097	22059
880.224	22131
880.351	22181
880.478	22188
880.605	22147
880.732	22070
880.859	22379
880.986	22204
881.112	22055
881.239	21945
881.366	21911
881.493	21797
881.619	21694
881.746	21610
881.872	21694
881.999	21599
882.125	21557
882.252	21675
882.378	21606
882.505	21759
882.631	21530
882.757	21515
882.883	21485
883.01	21351
883.136	21310
883.262	21199
883.388	21268
883.514	21378
883.64	21351
883.766	21336
883.892	21089
884.018	21218
884.143	21294
884.269	21405
884.395	21184
884.52	21055
884.646	21074
884.772	20998
884.897	20902
885.023	20971
885.148	21108
885.274	21116
885.399	21184
885.524	20990
885.65	21036
885.775	21055
885.9	20918
886.025	21062
886.15	21108
886.275	20918
886.4	20925
886.525	20990
886.65	21017
886.775	20880
886.9	21089
887.025	21249
887.149	20918
887.274	20712
887.399	20731
887.523	20663
887.648	20644
887.773	20720
887.897	20880
888.021	20918
888.146	20667
888.27	20868
888.395	20823
888.519	20769
888.643	20861
888.767	20746
888.891	20655
889.015	20579
889.139	20526
889.263	20590
889.387	20743
889.511	20785
889.635	20743
889.759	20602
889.883	20560
890.006	20606
890.13	20648
890.254	20526
890.377	20503
890.501	20389
890.624	20290
890.748	20355
890.871	20206
890.995	20054
891.118	20138
891.241	20145
891.364	20248
891.488	20248
891.611	20062
891.734	20039
891.857	20286
891.98	20164
892.103	20172
892.226	20130
892.349	20180
892.471	19917
892.594	20138
892.717	20073
892.839	20062
892.962	20024
893.085	20024
893.207	19993
893.33	20020
893.452	20024
893.575	20092
893.697	19982
893.819	20145
893.941	20267
894.064	20157
894.186	20005
894.308	19986
894.43	20122
894.552	20229
894.674	20138
894.796	19849
894.918	19982
895.04	19974
895.161	20020
895.283	20058
895.405	20062
895.526	20100
895.648	19986
895.769	19974
895.891	20046
896.012	20210
896.134	20119
896.255	20111
896.376	19947
896.498	20050
896.619	19989
896.74	20115
896.861	20088
896.982	20305
897.103	20568
897.224	20317
897.345	20343
897.466	20199
897.587	20374
897.708	20473
897.828	20377
897.949	20221
898.07	20069
898.19	20210
898.311	20328
898.431	20259
898.552	20374
898.672	20218
898.792	20259
898.913	20267
899.033	20176
899.153	20084
899.273	20092
899.393	19982
899.513	20005
899.633	20126
899.753	20046
899.873	20043
899.993	20103
900.113	20157
900.232	20077
900.352	20046
900.472	19860
900.591	19845
900.711	19826
900.83	19734
900.95	19902
901.069	19955
901.189	19681
901.308	19468
901.427	19369
901.546	19415
901.665	19384
901.784	19464
901.904	19274
902.023	19168
902.141	18973
902.26	18939
902.379	19000
902.498	18943
902.617	18787
902.735	18886
902.854	18806
902.973	18760
903.091	18612
903.21	18646
903.328	18639
903.446	18422
903.565	18437
903.683	18315
903.801	18327
903.919	18296
904.038	18292
904.156	18224
904.274	18243
904.392	18152
904.51	18098
904.627	18041
904.745	18213
904.863	18136
904.981	17958
905.098	17828
905.216	17779
905.334	17935
905.451	17866
905.569	17737
905.686	17863
905.803	17790
905.921	17638
906.038	17737
906.155	17657
906.272	17570
906.389	17589
906.506	17372
906.623	17379
906.74	17387
906.857	17337
906.974	17277
907.091	17395
907.208	17509
907.324	17467
907.441	17360
907.557	17292
907.674	17105
907.79	17132
907.907	17121
908.023	17098
908.139	17159
908.256	16968
908.372	16984
908.488	16965
908.604	16877
908.72	16854
908.836	16828
908.952	16721
909.068	16873
909.184	17045
909.3	16790
909.415	16801
909.531	16881
909.647	16592
909.762	16573
909.878	16478
909.993	16478
910.108	16474
910.224	16485
910.339	16394
910.454	16470
910.57	16379
910.685	16261
910.8	16478
910.915	16459
911.03	16424
911.145	16158
911.259	16124
911.374	16120
911.489	16040
911.604	16040
911.718	15899
911.833	15850
911.947	15778
912.062	15793
912.176	15857
912.291	15937
912.405	15903
912.519	16044
912.633	16044
912.748	15911
912.862	15861
912.976	15675
913.09	15595
913.204	15732
913.318	15603
913.431	15816
913.545	15751
913.659	15808
913.772	15629
913.886	15542
914	15405
914.113	15511
914.226	15572
914.34	15663
914.453	15408
914.566	15538
914.68	15428
914.793	15408
914.906	15203
915.019	15036
915.132	15028
915.245	15146
915.358	15085
915.47	15173
915.583	15028
915.696	15039
915.809	15264
915.921	15142
916.034	15070
916.146	15062
916.259	15070
916.371	15074
916.483	15039
916.595	15005
916.708	14956
916.82	14948
916.932	14906
917.044	14937
917.156	14902
917.268	14758
917.38	14864
917.491	14670
917.603	14758
917.715	14830
917.826	14823
917.938	14693
918.049	14610
918.161	14530
918.272	14845
918.384	14834
918.495	14697
918.606	14549
918.717	14404
918.828	14594
918.939	14568
919.05	14454
919.161	14511
919.272	14275
919.383	14358
919.494	14488
919.604	14663
919.715	14526
919.826	14423
919.936	14461
920.047	14499
920.157	14431
920.267	14731
920.378	14533
920.488	14438
920.598	14758
920.708	14826
920.818	14686
920.928	14579
921.038	14807
921.148	14708
921.258	14454
921.368	14412
921.477	14164
921.587	14195
921.697	14024
921.806	14195
921.916	14100
922.025	13909
922.134	13811
922.244	13814
922.353	13936
922.462	13723
922.571	13674
922.68	13476
922.789	13525
922.898	13510
923.007	13438
923.116	13552
923.224	13567
923.333	13525
923.442	13377
923.55	13285
923.659	13346
923.767	13362
923.876	13225
923.984	13373
924.092	13293
924.201	13270
924.309	13232
924.417	13270
924.525	13297
924.633	13179
924.741	14126
924.849	13023
924.956	13072
925.064	12993
925.172	12932
925.279	12943
925.387	13008
925.494	12916
925.602	13046
925.709	12958
925.816	12825
925.924	12833
926.031	12966
926.138	12913
926.245	12878
926.352	12806
926.459	12989
926.566	12951
926.673	12821
926.779	12669
926.886	12764
926.993	12528
927.099	12486
927.206	12532
927.312	12464
927.419	12551
927.525	12494
927.631	12521
927.737	12350
927.843	12338
927.95	12311
928.056	12251
928.162	12330
928.267	12483
928.373	13019
928.479	12334
928.585	12163
928.69	12296
928.796	12353
928.901	12175
929.007	12068
929.112	12144
929.218	12133
929.323	12049
929.428	11984
929.533	12315
929.638	11946
929.743	12057
929.848	11999
929.953	11992
930.058	11931
930.163	11767
930.267	11767
930.372	11878
930.477	11699
930.581	11893
930.685	11764
930.79	11665
930.894	11718
930.998	11611
931.103	11691
931.207	11467
931.311	11288
931.415	11254
931.519	11090
931.623	10999
