Data from test_V78500241_3489.txt Node
Date: Fri Mar 25 16:05:58 CST 2022
User: usil
Spectrometer: V785-0024
Trigger mode: 0
Integration Time (sec): 4.000000E-1
Scans to average: 1
Nonlinearity correction enabled: false
Boxcar width: 0
Storing dark spectrum: false
XAxis mode: Wavelengths
Number of Pixels in Spectrum: 1024
>>>>>Begin Spectral Data<<<<<
801.071	28980
801.214	28915
801.356	28691
801.499	28497
801.641	28481
801.783	28424
801.926	28512
802.068	28649
802.211	28485
802.353	28489
802.496	28181
802.638	28287
802.78	28268
802.923	28067
803.065	28135
803.208	28131
803.35	28215
803.492	28459
803.635	28382
803.777	28382
803.919	28223
804.061	28786
804.204	28554
804.346	28481
804.488	28371
804.63	28588
804.773	28363
804.915	28535
805.057	28702
805.199	28577
805.341	28462
805.483	28824
805.626	28721
805.768	28550
805.91	28630
806.052	28725
806.194	28569
806.336	28873
806.478	28725
806.62	28656
806.762	28801
806.904	28850
807.046	29242
807.188	29193
807.33	29128
807.472	29185
807.614	29033
807.756	29140
807.898	28923
808.04	28835
808.182	28930
808.324	29056
808.465	29109
808.607	29185
808.749	29322
808.891	29493
809.033	29512
809.174	29410
809.316	29345
809.458	29204
809.6	29200
809.741	29535
809.883	29798
810.025	29600
810.166	29687
810.308	29729
810.45	29676
810.591	29478
810.733	29288
810.875	29478
811.016	29417
811.158	29296
811.299	29478
811.441	29478
811.582	29528
811.724	29486
811.865	29459
812.007	29436
812.148	29334
812.29	29486
812.431	29608
812.573	29726
812.714	29973
812.855	29939
812.997	30053
813.138	30133
813.279	30155
813.421	29916
813.562	29805
813.703	29748
813.845	29672
813.986	29383
814.127	29178
814.268	29140
814.41	29174
814.551	29102
814.692	29124
814.833	29090
814.974	29128
815.115	29010
815.256	29071
815.397	28987
815.539	28946
815.68	28862
815.821	28774
815.962	29003
816.103	28885
816.244	28824
816.385	28725
816.526	28577
816.666	28478
816.807	28413
816.948	28538
817.089	28508
817.23	28344
817.371	28500
817.512	28440
817.653	28394
817.793	28306
817.934	28470
818.075	28424
818.216	28367
818.356	28337
818.497	28371
818.638	28242
818.778	28242
818.919	28238
819.06	28284
819.2	28352
819.341	28462
819.481	28428
819.622	28615
819.762	28961
819.903	28611
820.043	28672
820.184	28599
820.324	28459
820.465	28531
820.605	28546
820.746	28615
820.886	28352
821.026	28588
821.167	28512
821.307	28535
821.447	28462
821.588	28508
821.728	28291
821.868	28063
822.008	28006
822.149	28006
822.289	27960
822.429	27679
822.569	27526
822.709	27583
822.849	27603
822.99	27447
823.13	27344
823.27	27469
823.41	27298
823.55	27093
823.69	27214
823.83	27325
823.97	27100
824.11	27085
824.25	27135
824.389	26948
824.529	27138
824.669	27142
824.809	27135
824.949	27241
825.089	27226
825.228	27138
825.368	27005
825.508	26910
825.648	26940
825.787	26933
825.927	27066
826.067	26967
826.206	26940
826.346	27077
826.485	27039
826.625	26990
826.765	27127
826.904	27017
827.044	26845
827.183	26644
827.323	26522
827.462	26765
827.601	26708
827.741	26636
827.88	26689
828.02	26632
828.159	26625
828.298	26674
828.437	26849
828.577	26708
828.716	26754
828.855	26602
828.994	26377
829.134	26374
829.273	26480
829.412	26339
829.551	26286
829.69	26393
829.829	26499
829.968	26450
830.107	26446
830.246	26328
830.385	26362
830.524	26404
830.663	26077
830.802	26100
830.941	25906
831.08	26031
831.219	26088
831.357	26107
831.496	26183
831.635	26088
831.774	25959
831.913	25898
832.051	25704
832.19	25670
832.329	25811
832.467	25681
832.606	25616
832.744	25514
832.883	25693
833.022	25510
833.16	25563
833.299	25689
833.437	25666
833.576	25868
833.714	25601
833.852	25788
833.991	25830
834.129	25791
834.267	26031
834.406	25666
834.544	25772
834.682	25655
834.821	25609
834.959	25807
835.097	25620
835.235	25742
835.373	25609
835.511	25696
835.65	25537
835.788	25540
835.926	25502
836.064	25331
836.202	25350
836.34	25487
836.478	25601
836.615	25571
836.753	25628
836.891	25616
837.029	25643
837.167	25514
837.305	25518
837.443	25384
837.58	25232
837.718	25464
837.856	25487
837.993	25331
838.131	25190
838.269	25217
838.406	25270
838.544	25110
838.681	24996
838.819	25095
838.956	24901
839.094	24749
839.231	24901
839.369	24844
839.506	25297
839.643	25038
839.781	24825
839.918	24631
840.055	24722
840.193	24741
840.33	24684
840.467	24688
840.604	24722
840.742	24935
840.879	24642
841.016	24700
841.153	24669
841.29	24837
841.427	24627
841.564	24760
841.701	24700
841.838	24654
841.975	24665
842.112	24658
842.249	24585
842.385	24475
842.522	24623
842.659	24513
842.796	24407
842.933	24555
843.069	24433
843.206	24292
843.343	24635
843.479	24483
843.616	24437
843.752	24224
843.889	24262
844.025	24372
844.162	24376
844.298	24456
844.435	24213
844.571	24281
844.708	24285
844.844	24357
844.98	24467
845.117	24369
845.253	24079
845.389	24144
845.525	24258
845.661	24003
845.798	23958
845.934	24121
846.07	24057
846.206	24057
846.342	24121
846.478	23897
846.614	23805
846.75	23714
846.886	23611
847.022	23718
847.158	23786
847.294	23855
847.429	23642
847.565	23764
847.701	23878
847.837	23349
847.972	23486
848.108	23554
848.244	23562
848.379	23261
848.515	23444
848.65	23200
848.786	23235
848.921	23326
849.057	23360
849.192	23436
849.328	23269
849.463	23296
849.598	23395
849.734	23178
849.869	23258
850.004	23052
850.14	23155
850.275	23136
850.41	22949
850.545	23121
850.68	22866
850.815	22938
850.95	23117
851.085	23235
851.22	23311
851.355	23056
851.49	23018
851.625	23075
851.76	23037
851.895	22805
852.03	22949
852.165	23064
852.299	23105
852.434	23094
852.569	23029
852.703	23117
852.838	23136
852.973	23155
853.107	23128
853.242	23041
853.376	22999
853.511	22801
853.645	22801
853.78	22904
853.914	22938
854.048	22782
854.183	22831
854.317	22843
854.451	23052
854.585	22850
854.72	22793
854.854	22866
854.988	22850
855.122	22934
855.256	22736
855.39	22828
855.524	22976
855.658	22797
855.792	22984
855.926	22843
856.06	22961
856.194	22778
856.327	22854
856.461	22801
856.595	22702
856.729	22820
856.862	23064
856.996	22843
857.13	22934
857.263	22984
857.397	22889
857.53	22729
857.664	22869
857.797	22866
857.931	22946
858.064	22980
858.197	22991
858.331	22797
858.464	22820
858.597	22790
858.731	22782
858.864	22752
858.997	22839
859.13	22786
859.263	22862
859.396	23033
859.529	22839
859.662	22748
859.795	22752
859.928	22854
860.061	23071
860.194	23204
860.327	23014
860.46	22873
860.592	23071
860.725	23048
860.858	23022
860.99	22862
861.123	22896
861.256	22835
861.388	22953
861.521	23474
861.653	22759
861.786	22679
861.918	22774
862.05	22725
862.183	22679
862.315	22752
862.447	22763
862.58	22801
862.712	22698
862.844	22516
862.976	22641
863.108	22698
863.24	22987
863.372	22512
863.504	22634
863.636	22474
863.768	22561
863.9	22535
864.032	22443
864.164	22546
864.296	22535
864.428	22607
864.559	22634
864.691	22596
864.823	22596
864.954	22523
865.086	22569
865.217	22512
865.349	22234
865.48	22447
865.612	22413
865.743	22569
865.875	22470
866.006	22291
866.137	22402
866.269	22500
866.4	22413
866.531	22341
866.662	22299
866.793	22424
866.924	22462
867.055	22432
867.186	22481
867.317	22318
867.448	22200
867.579	22299
867.71	22253
867.841	22272
867.972	22306
868.103	22310
868.233	22428
868.364	22341
868.495	22516
868.625	22596
868.756	22649
868.886	22516
869.017	22755
869.147	22733
869.278	22725
869.408	22691
869.539	22538
869.669	22607
869.799	22721
869.929	22748
870.06	22790
870.19	22949
870.32	22847
870.45	22915
870.58	23071
870.71	23079
870.84	23143
870.97	23010
871.1	23094
871.23	23098
871.36	23212
871.489	23090
871.619	23212
871.749	23197
871.879	23162
872.008	23410
872.138	23265
872.267	23189
872.397	23155
872.526	23105
872.656	23067
872.785	23105
872.915	23212
873.044	23349
873.173	23128
873.303	23387
873.432	23395
873.561	23334
873.69	23197
873.819	23269
873.948	23288
874.077	23227
874.206	23178
874.335	23223
874.464	23292
874.593	23471
874.722	23486
874.851	23406
874.979	23406
875.108	23531
875.237	23398
875.365	23318
875.494	23337
875.623	23436
875.751	23417
875.88	23448
876.008	23531
876.136	23554
876.265	23802
876.393	23904
876.521	23885
876.65	24015
876.778	23847
876.906	23783
877.034	23756
877.162	23946
877.29	23840
877.418	23722
877.546	23878
877.674	23840
877.802	23840
877.93	23710
878.058	23581
878.185	23627
878.313	23794
878.441	23707
878.568	23691
878.696	23649
878.824	23855
878.951	23817
879.079	23973
879.206	24098
879.333	23950
879.461	23798
879.588	23920
879.715	23931
879.842	24152
879.97	23859
880.097	23581
880.224	23615
880.351	23630
880.478	23482
880.605	23577
880.732	23646
880.859	23824
880.986	23665
881.112	23573
881.239	23444
881.366	23185
881.493	23258
881.619	23140
881.746	23044
881.872	23124
881.999	23151
882.125	23132
882.252	23242
882.378	23136
882.505	23269
882.631	22976
882.757	22889
882.883	22923
883.01	22816
883.136	22892
883.262	22748
883.388	22656
883.514	22736
883.64	22752
883.766	22672
883.892	22561
884.018	22687
884.143	22835
884.269	22805
884.395	22550
884.52	22504
884.646	22451
884.772	22348
884.897	22329
885.023	22417
885.148	22557
885.274	22611
885.399	22527
885.524	22516
885.65	22402
885.775	22546
885.9	22405
886.025	22485
886.15	22462
886.275	22402
886.4	22344
886.525	22493
886.65	22306
886.775	22466
886.9	22527
887.025	22592
887.149	22451
887.274	22226
887.399	22318
887.523	22215
887.648	22200
887.773	22044
887.897	22246
888.021	22162
888.146	22147
888.27	22204
888.395	22291
888.519	22257
888.643	22177
888.767	22192
888.891	22177
889.015	21983
889.139	22048
889.263	22010
889.387	22226
889.511	22211
889.635	22150
889.759	21979
889.883	22017
890.006	21953
890.13	22048
890.254	21800
890.377	21994
890.501	21682
890.624	21690
890.748	21698
890.871	21625
890.995	21526
891.118	21507
891.241	21625
891.364	21572
891.488	21717
891.611	21519
891.734	21523
891.857	21572
891.98	21583
892.103	21580
892.226	21553
892.349	21507
892.471	21408
892.594	21462
892.717	21542
892.839	21386
892.962	21504
893.085	21408
893.207	21473
893.33	21389
893.452	21492
893.575	21389
893.697	21382
893.819	21614
893.941	21561
894.064	21469
894.186	21310
894.308	21469
894.43	21431
894.552	21561
894.674	21469
894.796	21332
894.918	21313
895.04	21313
895.161	21458
895.283	21477
895.405	21408
895.526	21389
895.648	21416
895.769	21367
895.891	21389
896.012	21481
896.134	21523
896.255	21507
896.376	21329
896.498	21393
896.619	21382
896.74	21401
896.861	21454
896.982	21641
897.103	21709
897.224	21622
897.345	21523
897.466	21568
897.587	21576
897.708	21717
897.828	21698
897.949	21401
898.07	21519
898.19	21580
898.311	21606
898.431	21534
898.552	21587
898.672	21709
898.792	21618
898.913	21625
899.033	21580
899.153	21313
899.273	21294
899.393	21294
899.513	21340
899.633	21370
899.753	21393
899.873	21188
899.993	21397
900.113	21268
900.232	21325
900.352	21077
900.472	21146
900.591	21032
900.711	21104
900.83	21150
900.95	21218
901.069	21214
901.189	20918
901.308	20758
901.427	20651
901.546	20629
901.665	20598
901.784	20579
901.904	20488
902.023	20396
902.141	20271
902.26	20206
902.379	20119
902.498	20145
902.617	20115
902.735	20065
902.854	20233
902.973	19986
903.091	19742
903.21	19750
903.328	19772
903.446	19571
903.565	19639
903.683	19624
903.801	19422
903.919	19575
904.038	19438
904.156	19316
904.274	19400
904.392	19232
904.51	19289
904.627	19434
904.745	19400
904.863	19339
904.981	19114
905.098	19069
905.216	18935
905.334	19057
905.451	19076
905.569	19084
905.686	18966
905.803	18905
905.921	18783
906.038	18920
906.155	18833
906.272	18631
906.389	18696
906.506	18601
906.623	18547
906.74	18528
906.857	18464
906.974	18399
907.091	18574
907.208	18635
907.324	18642
907.441	18422
907.557	18285
907.674	18159
907.79	18266
907.907	18243
908.023	18315
908.139	18258
908.256	18190
908.372	18019
908.488	18087
908.604	18038
908.72	17958
908.836	17878
908.952	17874
909.068	17961
909.184	18045
909.3	17836
909.415	17916
909.531	17980
909.647	17729
909.762	17634
909.878	17680
909.993	17653
910.108	17600
910.224	17425
910.339	17573
910.454	17520
910.57	17440
910.685	17303
910.8	17634
910.915	17554
911.03	17372
911.145	17315
911.259	17261
911.374	17242
911.489	17174
911.604	17041
911.718	16980
911.833	17041
911.947	16782
912.062	16835
912.176	17003
912.291	16953
912.405	16938
912.519	17113
912.633	17140
912.748	16923
912.862	16946
912.976	16748
913.09	16664
913.204	16721
913.318	16740
913.431	16850
913.545	16885
913.659	16824
913.772	16656
913.886	16535
914	16527
914.113	16607
914.226	16687
914.34	16637
914.453	16455
914.566	16660
914.68	16344
914.793	16500
914.906	16158
915.019	16192
915.132	16101
915.245	16139
915.358	16082
915.47	16139
915.583	16150
915.696	16150
915.809	16249
915.921	16299
916.034	16071
916.146	16090
916.259	15941
916.371	16013
916.483	16086
916.595	15953
916.708	15915
916.82	15922
916.932	15857
917.044	15941
917.156	15800
917.268	15682
917.38	15755
917.491	15675
917.603	15720
917.715	15831
917.826	15854
917.938	15686
918.049	15622
918.161	15698
918.272	15888
918.384	15713
918.495	15629
918.606	15477
918.717	15378
918.828	15454
918.939	15496
919.05	15393
919.161	15454
919.272	15275
919.383	15310
919.494	15511
919.604	15561
919.715	15481
919.826	15458
919.936	15424
920.047	15477
920.157	15473
920.267	15564
920.378	15393
920.488	15428
920.598	15485
920.708	15751
920.818	15542
920.928	15557
921.038	15713
921.148	15648
921.258	15389
921.368	15188
921.477	15272
921.587	15123
921.697	15028
921.806	15062
921.916	14933
922.025	14872
922.134	14834
922.244	14693
922.353	14830
922.462	14617
922.571	14625
922.68	14385
922.789	14362
922.898	14400
923.007	14351
923.116	14381
923.224	14332
923.333	14339
923.442	14210
923.55	14305
923.659	14145
923.767	14366
923.876	14210
923.984	14339
924.092	14134
924.201	14153
924.309	14092
924.417	14138
924.525	14062
924.633	14126
924.741	14830
924.849	13879
924.956	13947
925.064	13696
925.172	13689
925.279	13791
925.387	13814
925.494	13727
925.602	13784
925.709	13742
925.816	13651
925.924	13575
926.031	13803
926.138	13742
926.245	13731
926.352	13609
926.459	13715
926.566	13715
926.673	13594
926.779	13544
926.886	13472
926.993	13365
927.099	13384
927.206	13255
927.312	13244
927.419	13335
927.525	13255
927.631	13320
927.737	13209
927.843	13133
927.95	13110
928.056	13114
928.162	13103
928.267	13171
928.373	13677
928.479	13107
928.585	12848
928.69	13015
928.796	13061
928.901	12859
929.007	12795
929.112	13042
929.218	12973
929.323	12821
929.428	12757
929.533	12932
929.638	12703
929.743	12772
929.848	12738
929.953	12760
930.058	12669
930.163	12509
930.267	12429
930.372	12589
930.477	12388
930.581	12601
930.685	12563
930.79	12372
930.894	12361
930.998	12334
931.103	12532
931.207	12087
931.311	12041
931.415	11912
931.519	11760
931.623	11646
