Data from test_V78500241_2508.txt Node
Date: Fri Mar 25 15:59:10 CST 2022
User: usil
Spectrometer: V785-0024
Trigger mode: 0
Integration Time (sec): 4.000000E-1
Scans to average: 1
Nonlinearity correction enabled: false
Boxcar width: 0
Storing dark spectrum: false
XAxis mode: Wavelengths
Number of Pixels in Spectrum: 1024
>>>>>Begin Spectral Data<<<<<
801.071	28580
801.214	28519
801.356	28333
801.499	28428
801.641	28101
801.783	28074
801.926	28185
802.068	28109
802.211	28063
802.353	28040
802.496	27785
802.638	27789
802.78	27816
802.923	27789
803.065	27610
803.208	27709
803.35	27736
803.492	28067
803.635	27941
803.777	27854
803.919	28120
804.061	28390
804.204	28086
804.346	27949
804.488	28090
804.63	27998
804.773	27956
804.915	28112
805.057	28101
805.199	27960
805.341	28185
805.483	28139
805.626	28139
805.768	28070
805.91	28268
806.052	28230
806.194	28112
806.336	28459
806.478	28147
806.62	28128
806.762	28226
806.904	28542
807.046	28752
807.188	28580
807.33	28561
807.472	28634
807.614	28725
807.756	28687
807.898	28641
808.04	28405
808.182	28474
808.324	28462
808.465	28508
808.607	28752
808.749	28900
808.891	28927
809.033	29102
809.174	28946
809.316	28763
809.458	28984
809.6	28725
809.741	28850
809.883	29086
810.025	29151
810.166	29048
810.308	29117
810.45	29296
810.591	29124
810.733	29044
810.875	28976
811.016	28881
811.158	28733
811.299	28873
811.441	29033
811.582	29033
811.724	28888
811.865	28835
812.007	28847
812.148	28885
812.29	28927
812.431	29029
812.573	29083
812.714	29341
812.855	29326
812.997	29391
813.138	29657
813.279	29501
813.421	29573
813.562	29341
813.703	29220
813.845	29193
813.986	28854
814.127	28577
814.268	28512
814.41	28649
814.551	28622
814.692	28626
814.833	28588
814.974	28535
815.115	28470
815.256	28451
815.397	28481
815.539	28554
815.68	28398
815.821	28371
815.962	28382
816.103	28398
816.244	28200
816.385	28070
816.526	28116
816.666	27987
816.807	27934
816.948	27918
817.089	28150
817.23	27842
817.371	27880
817.512	27903
817.653	27865
817.793	27873
817.934	27846
818.075	27865
818.216	27857
818.356	27899
818.497	27899
818.638	27485
818.778	27648
818.919	27652
819.06	27797
819.2	27785
819.341	27972
819.481	27903
819.622	27964
819.762	28181
819.903	28238
820.043	28070
820.184	27945
820.324	28093
820.465	28185
820.605	28055
820.746	27987
820.886	27972
821.026	28093
821.167	27914
821.307	28101
821.447	27975
821.588	27918
821.728	27732
821.868	27599
822.008	27370
822.149	27287
822.289	27382
822.429	27146
822.569	27104
822.709	27043
822.849	26880
822.99	26940
823.13	26868
823.27	26887
823.41	26765
823.55	26674
823.69	26587
823.83	26667
823.97	26689
824.11	26465
824.25	26396
824.389	26545
824.529	26670
824.669	26629
824.809	26621
824.949	26701
825.089	26518
825.228	26583
825.368	26400
825.508	26526
825.648	26450
825.787	26377
825.927	26469
826.067	26446
826.206	26324
826.346	26396
826.485	26514
826.625	26377
826.765	26469
826.904	26530
827.044	26115
827.183	26176
827.323	26202
827.462	26092
827.601	26161
827.741	26149
827.88	26202
828.02	26005
828.159	26157
828.298	25982
828.437	26164
828.577	26096
828.716	26339
828.855	25966
828.994	25830
829.134	25864
829.273	25776
829.412	25738
829.551	25731
829.69	25826
829.829	25951
829.968	25833
830.107	25879
830.246	25814
830.385	25609
830.524	25696
830.663	25632
830.802	25487
830.941	25354
831.08	25324
831.219	25468
831.357	25339
831.496	25575
831.635	25358
831.774	25529
831.913	25369
832.051	25346
832.19	25152
832.329	25225
832.467	25034
832.606	25076
832.744	24954
832.883	25027
833.022	24981
833.16	25012
833.299	25095
833.437	25232
833.576	25137
833.714	25046
833.852	25308
833.991	25122
834.129	25137
834.267	25213
834.406	25164
834.544	25179
834.682	25228
834.821	25183
834.959	25206
835.097	25065
835.235	25145
835.373	25164
835.511	25061
835.65	24924
835.788	24954
835.926	24932
836.064	24696
836.202	24703
836.34	25069
836.478	25069
836.615	25000
836.753	24962
836.891	25046
837.029	24951
837.167	24894
837.305	24939
837.443	24840
837.58	24875
837.718	24703
837.856	24814
837.993	24741
838.131	24825
838.269	24734
838.406	24646
838.544	24715
838.681	24361
838.819	24311
838.956	24308
839.094	24353
839.231	24395
839.369	24486
839.506	24589
839.643	24509
839.781	24342
839.918	24247
840.055	24209
840.193	24224
840.33	24152
840.467	24308
840.604	24273
840.742	24365
840.879	24030
841.016	23988
841.153	23992
841.29	24209
841.427	24159
841.564	24209
841.701	23996
841.838	24076
841.975	24079
842.112	24102
842.249	23988
842.385	23897
842.522	24186
842.659	23977
842.796	23927
842.933	23961
843.069	23813
843.206	23939
843.343	24034
843.479	23866
843.616	23984
843.752	23680
843.889	23623
844.025	23882
844.162	23668
844.298	23684
844.435	23779
844.571	23691
844.708	23703
844.844	23813
844.98	23836
845.117	23783
845.253	23581
845.389	23520
845.525	23592
845.661	23490
845.798	23463
845.934	23497
846.07	23486
846.206	23482
846.342	23528
846.478	23353
846.614	23124
846.75	23121
846.886	23155
847.022	23288
847.158	23170
847.294	23318
847.429	23140
847.565	23029
847.701	23296
847.837	22873
847.972	22972
848.108	22938
848.244	22854
848.379	22866
848.515	22805
848.65	22641
848.786	22759
848.921	22755
849.057	22869
849.192	22854
849.328	22809
849.463	22744
849.598	22763
849.734	22592
849.869	22717
850.004	22557
850.14	22584
850.275	22500
850.41	22535
850.545	22497
850.68	22459
850.815	22554
850.95	22481
851.085	22626
851.22	22649
851.355	22561
851.49	22504
851.625	22531
851.76	22653
851.895	22386
852.03	22371
852.165	22485
852.299	22649
852.434	22607
852.569	22538
852.703	22569
852.838	22447
852.973	22679
853.107	22622
853.242	22436
853.376	22356
853.511	22200
853.645	22291
853.78	22519
853.914	22303
854.048	22268
854.183	22303
854.317	22314
854.451	22512
854.585	22348
854.72	22303
854.854	22344
854.988	22303
855.122	22268
855.256	22215
855.39	22318
855.524	22322
855.658	22299
855.792	22265
855.926	22291
856.06	22455
856.194	22432
856.327	22318
856.461	22204
856.595	22333
856.729	22295
856.862	22348
856.996	22371
857.13	22390
857.263	22413
857.397	22379
857.53	22314
857.664	22276
857.797	22402
857.931	22417
858.064	22363
858.197	22603
858.331	22268
858.464	22291
858.597	22261
858.731	22390
858.864	22249
858.997	22185
859.13	22424
859.263	22459
859.396	22405
859.529	22398
859.662	22318
859.795	22265
859.928	22306
860.061	22561
860.194	22481
860.327	22489
860.46	22314
860.592	22474
860.725	22474
860.858	22428
860.99	22352
861.123	22242
861.256	22295
861.388	22306
861.521	22984
861.653	22147
861.786	22128
861.918	22204
862.05	22147
862.183	22257
862.315	22211
862.447	22417
862.58	22280
862.712	22029
862.844	22074
862.976	22082
863.108	22162
863.24	22375
863.372	21964
863.504	21968
863.636	22032
863.768	22166
863.9	22070
864.032	22029
864.164	22040
864.296	22097
864.428	22128
864.559	22063
864.691	22090
864.823	22002
864.954	21907
865.086	21987
865.217	21968
865.349	21964
865.48	21998
865.612	21854
865.743	22055
865.875	21903
866.006	21876
866.137	21979
866.269	21956
866.4	21838
866.531	21911
866.662	21831
866.793	21888
866.924	21785
867.055	22006
867.186	21915
867.317	21857
867.448	21694
867.579	21789
867.71	21816
867.841	21698
867.972	21873
868.103	21907
868.233	21884
868.364	21819
868.495	22120
868.625	22078
868.756	22097
868.886	22006
869.017	22177
869.147	22219
869.278	22124
869.408	22166
869.539	22112
869.669	22128
869.799	22207
869.929	22314
870.06	22207
870.19	22394
870.32	22428
870.45	22322
870.58	22455
870.71	22599
870.84	22550
870.97	22447
871.1	22497
871.23	22729
871.36	22702
871.489	22729
871.619	22721
871.749	22683
871.879	22664
872.008	22816
872.138	22660
872.267	22660
872.397	22535
872.526	22440
872.656	22592
872.785	22466
872.915	22713
873.044	22774
873.173	22702
873.303	22809
873.432	22771
873.561	22740
873.69	22729
873.819	22733
873.948	22866
874.077	22630
874.206	22672
874.335	22649
874.464	22793
874.593	22949
874.722	22869
874.851	23014
874.979	22828
875.108	23006
875.237	22866
875.365	22812
875.494	22805
875.623	22968
875.751	22957
875.88	22881
876.008	23048
876.136	23189
876.265	23242
876.393	23421
876.521	23360
876.65	23436
876.778	23322
876.906	23254
877.034	23398
877.162	23345
877.29	23292
877.418	23235
877.546	23292
877.674	23216
877.802	23288
877.93	23223
878.058	23250
878.185	23166
878.313	23151
878.441	23174
878.568	23124
878.696	23197
878.824	23200
878.951	23433
879.079	23410
879.206	23581
879.333	23410
879.461	23239
879.588	23410
879.715	23486
879.842	23547
879.97	23444
880.097	23113
880.224	23083
880.351	23185
880.478	23113
880.605	23018
880.732	23124
880.859	23303
880.986	23094
881.112	23162
881.239	22984
881.366	22824
881.493	22812
881.619	22626
881.746	22725
881.872	22729
881.999	22569
882.125	22615
882.252	22565
882.378	22462
882.505	22755
882.631	22508
882.757	22333
882.883	22306
883.01	22299
883.136	22238
883.262	22306
883.388	22070
883.514	22276
883.64	22325
883.766	22147
883.892	22147
884.018	22078
884.143	22242
884.269	22333
884.395	22010
884.52	21827
884.646	21960
884.772	21876
884.897	21998
885.023	21880
885.148	22063
885.274	21987
885.399	22139
885.524	21918
885.65	22040
885.775	21797
885.9	21953
886.025	22051
886.15	21915
886.275	21949
886.4	21842
886.525	21979
886.65	21876
886.775	21827
886.9	21911
887.025	22314
887.149	21953
887.274	21926
887.399	21656
887.523	21762
887.648	21762
887.773	21675
887.897	21842
888.021	21728
888.146	21739
888.27	21652
888.395	21774
888.519	21705
888.643	21819
888.767	21873
888.891	21580
889.015	21519
889.139	21530
889.263	21492
889.387	21568
889.511	21644
889.635	21599
889.759	21523
889.883	21302
890.006	21500
890.13	21732
890.254	21447
890.377	21447
890.501	21287
890.624	21302
890.748	21260
890.871	21135
890.995	21138
891.118	21024
891.241	21036
891.364	21039
891.488	21378
891.611	21020
891.734	21157
891.857	21150
891.98	21032
892.103	21077
892.226	20967
892.349	20990
892.471	20861
892.594	20963
892.717	20982
892.839	21009
892.962	20952
893.085	21077
893.207	21032
893.33	20880
893.452	20925
893.575	21146
893.697	20960
893.819	21173
893.941	21203
894.064	21013
894.186	20891
894.308	20880
894.43	21051
894.552	20952
894.674	21070
894.796	20800
894.918	21039
895.04	20914
895.161	20967
895.283	21005
895.405	20861
895.526	20967
895.648	20956
895.769	20914
895.891	21001
896.012	21020
896.134	20910
896.255	20960
896.376	20910
896.498	20975
896.619	20925
896.74	20906
896.861	20918
896.982	21192
897.103	21389
897.224	21226
897.345	21116
897.466	21074
897.587	21104
897.708	21351
897.828	21249
897.949	21108
898.07	20944
898.19	21085
898.311	21355
898.431	21081
898.552	21096
898.672	21203
898.792	21195
898.913	21176
899.033	21058
899.153	21062
899.273	20948
899.393	20868
899.513	20868
899.633	20918
899.753	20887
899.873	20918
899.993	20857
900.113	20838
900.232	20823
900.352	20727
900.472	20705
900.591	20549
900.711	20663
900.83	20693
900.95	20777
901.069	20621
901.189	20609
901.308	20377
901.427	20267
901.546	20248
901.665	20172
901.784	20214
901.904	20035
902.023	20008
902.141	19944
902.26	19860
902.379	19909
902.498	19822
902.617	19803
902.735	19776
902.854	19639
902.973	19693
903.091	19460
903.21	19369
903.328	19396
903.446	19240
903.565	19320
903.683	19297
903.801	19145
903.919	19141
904.038	19145
904.156	18875
904.274	19095
904.392	19027
904.51	18996
904.627	18901
904.745	19122
904.863	18951
904.981	18783
905.098	18620
905.216	18612
905.334	18673
905.451	18604
905.569	18642
905.686	18684
905.803	18627
905.921	18452
906.038	18528
906.155	18467
906.272	18319
906.389	18365
906.506	18273
906.623	18114
906.74	18182
906.857	18003
906.974	17980
907.091	18300
907.208	18365
907.324	18174
907.441	18087
907.557	17874
907.674	17882
907.79	17775
907.907	17904
908.023	17920
908.139	17809
908.256	17863
908.372	17813
908.488	17767
908.604	17562
908.72	17570
908.836	17554
908.952	17657
909.068	17634
909.184	17589
909.3	17619
909.415	17551
909.531	17478
909.647	17410
909.762	17220
909.878	17204
909.993	17269
910.108	17288
910.224	17315
910.339	17265
910.454	17136
910.57	17014
910.685	17041
910.8	17235
910.915	17250
911.03	17045
911.145	16938
911.259	16862
911.374	16980
911.489	16816
911.604	16702
911.718	16577
911.833	16691
911.947	16504
912.062	16500
912.176	16577
912.291	16641
912.405	16599
912.519	16767
912.633	16790
912.748	16664
912.862	16493
912.976	16413
913.09	16257
913.204	16390
913.318	16382
913.431	16409
913.545	16398
913.659	16485
913.772	16436
913.886	16242
914	16230
914.113	16295
914.226	16333
914.34	16238
914.453	16188
914.566	16314
914.68	16105
914.793	16101
914.906	15865
915.019	15743
915.132	15755
915.245	15770
915.358	15823
915.47	15835
915.583	15747
915.696	15827
915.809	15876
915.921	15869
916.034	15724
916.146	15720
916.259	15622
916.371	15751
916.483	15736
916.595	15549
916.708	15580
916.82	15614
916.932	15606
917.044	15568
917.156	15553
917.268	15496
917.38	15443
917.491	15310
917.603	15367
917.715	15313
917.826	15545
917.938	15321
918.049	15256
918.161	15321
918.272	15534
918.384	15393
918.495	15389
918.606	15256
918.717	15222
918.828	15283
918.939	15165
919.05	15093
919.161	15165
919.272	14994
919.383	14971
919.494	15138
919.604	15363
919.715	15165
919.826	15001
919.936	15154
920.047	15154
920.157	15047
920.267	15252
920.378	15112
920.488	15039
920.598	15192
920.708	15458
920.818	15230
920.928	15359
921.038	15298
921.148	15447
921.258	15066
921.368	14937
921.477	14918
921.587	14815
921.697	14781
921.806	14838
921.916	14651
922.025	14492
922.134	14503
922.244	14434
922.353	14537
922.462	14366
922.571	14305
922.68	14043
922.789	14157
922.898	14187
923.007	14046
923.116	14183
923.224	14058
923.333	14012
923.442	13970
923.55	13928
923.659	14020
923.767	13978
923.876	13875
923.984	13944
924.092	13784
924.201	13871
924.309	13803
924.417	13837
924.525	13685
924.633	13723
924.741	14552
924.849	13632
924.956	13685
925.064	13563
925.172	13502
925.279	13586
925.387	13597
925.494	13582
925.602	13700
925.709	13613
925.816	13381
925.924	13403
926.031	13567
926.138	13438
926.245	13548
926.352	13346
926.459	13468
926.566	13415
926.673	13400
926.779	13236
926.886	13228
926.993	13084
927.099	13076
927.206	13004
927.312	12981
927.419	13099
927.525	13053
927.631	13015
927.737	12924
927.843	12852
927.95	12760
928.056	12772
928.162	12943
928.267	12905
928.373	13510
928.479	12924
928.585	12700
928.69	12848
928.796	12871
928.901	12738
929.007	12585
929.112	12726
929.218	12692
929.323	12627
929.428	12593
929.533	12639
929.638	12448
929.743	12395
929.848	12589
929.953	12494
930.058	12369
930.163	12186
930.267	12213
930.372	12330
930.477	12277
930.581	12350
930.685	12273
930.79	12091
930.894	12171
930.998	12060
931.103	12171
931.207	11904
931.311	11783
931.415	11661
931.519	11505
931.623	11459
