Data from test_V78500241_2932.txt Node
Date: Fri Mar 25 16:02:06 CST 2022
User: usil
Spectrometer: V785-0024
Trigger mode: 0
Integration Time (sec): 4.000000E-1
Scans to average: 1
Nonlinearity correction enabled: false
Boxcar width: 0
Storing dark spectrum: false
XAxis mode: Wavelengths
Number of Pixels in Spectrum: 1024
>>>>>Begin Spectral Data<<<<<
801.071	28778
801.214	28748
801.356	28436
801.499	28386
801.641	28299
801.783	28280
801.926	28333
802.068	28489
802.211	28261
802.353	28181
802.496	27994
802.638	28063
802.78	27960
802.923	27876
803.065	27876
803.208	27945
803.35	27979
803.492	28192
803.635	28226
803.777	28109
803.919	28287
804.061	28466
804.204	28284
804.346	28181
804.488	28143
804.63	28204
804.773	28158
804.915	28382
805.057	28432
805.199	28257
805.341	28405
805.483	28474
805.626	28398
805.768	28280
805.91	28455
806.052	28356
806.194	28169
806.336	28618
806.478	28371
806.62	28382
806.762	28489
806.904	28752
807.046	28953
807.188	28828
807.33	28843
807.472	29075
807.614	28824
807.756	28877
807.898	28618
808.04	28481
808.182	28656
808.324	28668
808.465	28755
808.607	29075
808.749	29056
808.891	29033
809.033	29216
809.174	29060
809.316	29185
809.458	29105
809.6	29025
809.741	29151
809.883	29181
810.025	29364
810.166	29337
810.308	29364
810.45	29337
810.591	29269
810.733	29208
810.875	29056
811.016	29056
811.158	28934
811.299	29303
811.441	29387
811.582	29246
811.724	29105
811.865	29060
812.007	28968
812.148	29094
812.29	29273
812.431	29341
812.573	29531
812.714	29615
812.855	29592
812.997	29649
813.138	29786
813.279	29874
813.421	29642
813.562	29482
813.703	29478
813.845	29383
813.986	29022
814.127	28972
814.268	28740
814.41	28900
814.551	28774
814.692	28854
814.833	28752
814.974	28831
815.115	28869
815.256	28603
815.397	28786
815.539	28649
815.68	28683
815.821	28485
815.962	28675
816.103	28428
816.244	28607
816.385	28455
816.526	28481
816.666	28211
816.807	28139
816.948	28238
817.089	28314
817.23	28162
817.371	28147
817.512	28070
817.653	28074
817.793	28074
817.934	28029
818.075	28139
818.216	28097
818.356	28147
818.497	28002
818.638	27679
818.778	27949
818.919	27998
819.06	28017
819.2	28162
819.341	28101
819.481	28150
819.622	28333
819.762	28542
819.903	28291
820.043	28295
820.184	28219
820.324	28211
820.465	28409
820.605	28211
820.746	28093
820.886	28017
821.026	28207
821.167	28147
821.307	28291
821.447	28082
821.588	28109
821.728	27899
821.868	27724
822.008	27648
822.149	27580
822.289	27603
822.429	27473
822.569	27310
822.709	27348
822.849	27199
822.99	27317
823.13	27085
823.27	27116
823.41	26933
823.55	26750
823.69	27028
823.83	26914
823.97	26971
824.11	26861
824.25	26632
824.389	26815
824.529	26857
824.669	26868
824.809	26975
824.949	26864
825.089	26956
825.228	26826
825.368	26746
825.508	26556
825.648	26609
825.787	26625
825.927	26712
826.067	26617
826.206	26663
826.346	26785
826.485	26750
826.625	26765
826.765	26815
826.904	26712
827.044	26492
827.183	26530
827.323	26400
827.462	26583
827.601	26446
827.741	26404
827.88	26469
828.02	26199
828.159	26366
828.298	26461
828.437	26522
828.577	26412
828.716	26530
828.855	26206
828.994	26046
829.134	26058
829.273	26229
829.412	26107
829.551	25955
829.69	26195
829.829	26119
829.968	26229
830.107	26134
830.246	26103
830.385	26157
830.524	25940
830.663	26024
830.802	25818
830.941	25685
831.08	25761
831.219	25822
831.357	25734
831.496	25860
831.635	25734
831.774	25662
831.913	25582
832.051	25479
832.19	25563
832.329	25483
832.467	25411
832.606	25251
832.744	25400
832.883	25400
833.022	25411
833.16	25373
833.299	25403
833.437	25426
833.576	25403
833.714	25407
833.852	25464
833.991	25430
834.129	25449
834.267	25381
834.406	25331
834.544	25544
834.682	25506
834.821	25544
834.959	25651
835.097	25377
835.235	25350
835.373	25495
835.511	25293
835.65	25206
835.788	25263
835.926	25137
836.064	25076
836.202	25156
836.34	25304
836.478	25354
836.615	25244
836.753	25285
836.891	25289
837.029	25274
837.167	25217
837.305	25171
837.443	25088
837.58	25160
837.718	25240
837.856	25293
837.993	24977
838.131	24939
838.269	24992
838.406	24947
838.544	24875
838.681	24840
838.819	24715
838.956	24475
839.094	24486
839.231	24673
839.369	24635
839.506	24966
839.643	24916
839.781	24578
839.918	24589
840.055	24544
840.193	24437
840.33	24391
840.467	24578
840.604	24456
840.742	24707
840.879	24304
841.016	24388
841.153	24262
841.29	24566
841.427	24467
841.564	24475
841.701	24441
841.838	24270
841.975	24315
842.112	24426
842.249	24334
842.385	24213
842.522	24311
842.659	24205
842.796	24232
842.933	24194
843.069	24125
843.206	24098
843.343	24251
843.479	24285
843.616	24258
843.752	23908
843.889	24060
844.025	24182
844.162	24053
844.298	23969
844.435	24018
844.571	23882
844.708	24007
844.844	24178
844.98	24057
845.117	24083
845.253	23946
845.389	23828
845.525	23832
845.661	23786
845.798	23748
845.934	23935
846.07	23672
846.206	23767
846.342	23779
846.478	23805
846.614	23440
846.75	23364
846.886	23482
847.022	23463
847.158	23478
847.294	23402
847.429	23417
847.565	23467
847.701	23642
847.837	23109
847.972	23143
848.108	23307
848.244	23284
848.379	23041
848.515	23056
848.65	23029
848.786	23098
848.921	23048
849.057	23162
849.192	23064
849.328	23090
849.463	22919
849.598	23052
849.734	22923
849.869	22858
850.004	22710
850.14	22831
850.275	22854
850.41	22805
850.545	22748
850.68	22675
850.815	22911
850.95	22637
851.085	22953
851.22	22900
851.355	22831
851.49	22809
851.625	22763
851.76	22748
851.895	22565
852.03	22774
852.165	22862
852.299	22793
852.434	22869
852.569	22721
852.703	22805
852.838	22828
852.973	22927
853.107	22763
853.242	22782
853.376	22580
853.511	22478
853.645	22550
853.78	22607
853.914	22607
854.048	22565
854.183	22717
854.317	22641
854.451	22755
854.585	22630
854.72	22675
854.854	22649
854.988	22542
855.122	22634
855.256	22519
855.39	22588
855.524	22759
855.658	22679
855.792	22626
855.926	22611
856.06	22675
856.194	22618
856.327	22668
856.461	22565
856.595	22584
856.729	22729
856.862	22713
856.996	22687
857.13	22759
857.263	22790
857.397	22687
857.53	22538
857.664	22603
857.797	22679
857.931	22603
858.064	22508
858.197	22664
858.331	22637
858.464	22478
858.597	22580
858.731	22489
858.864	22504
858.997	22580
859.13	22577
859.263	22687
859.396	22672
859.529	22744
859.662	22611
859.795	22493
859.928	22557
860.061	22672
860.194	22736
860.327	22805
860.46	22656
860.592	22706
860.725	22733
860.858	22713
860.99	22740
861.123	22565
861.256	22584
861.388	22694
861.521	23337
861.653	22500
861.786	22478
861.918	22436
862.05	22546
862.183	22550
862.315	22462
862.447	22622
862.58	22573
862.712	22337
862.844	22242
862.976	22447
863.108	22436
863.24	22828
863.372	22169
863.504	22402
863.636	22344
863.768	22493
863.9	22112
864.032	22276
864.164	22280
864.296	22421
864.428	22375
864.559	22360
864.691	22287
864.823	22143
864.954	22196
865.086	22261
865.217	22162
865.349	22131
865.48	22238
865.612	22139
865.743	22341
865.875	22154
866.006	22006
866.137	22207
866.269	22116
866.4	22207
866.531	22169
866.662	22124
866.793	22112
866.924	22055
867.055	22162
867.186	22139
867.317	22101
867.448	22109
867.579	22029
867.71	21953
867.841	22067
867.972	22120
868.103	22112
868.233	22162
868.364	22154
868.495	22128
868.625	22428
868.756	22409
868.886	22158
869.017	22280
869.147	22375
869.278	22462
869.408	22432
869.539	22333
869.669	22470
869.799	22352
869.929	22660
870.06	22424
870.19	22561
870.32	22694
870.45	22786
870.58	22679
870.71	22896
870.84	22812
870.97	22835
871.1	22828
871.23	22987
871.36	22885
871.489	22900
871.619	23014
871.749	22873
871.879	22968
872.008	23113
872.138	22987
872.267	22896
872.397	22934
872.526	22736
872.656	22774
872.785	22786
872.915	22976
873.044	23037
873.173	22854
873.303	22961
873.432	22976
873.561	23128
873.69	23006
873.819	23048
873.948	23018
874.077	22976
874.206	22881
874.335	22991
874.464	22980
874.593	23170
874.722	23025
874.851	23231
874.979	23128
875.108	23307
875.237	23280
875.365	23075
875.494	23132
875.623	23220
875.751	23136
875.88	23242
876.008	23246
876.136	23334
876.265	23547
876.393	23722
876.521	23566
876.65	23600
876.778	23505
876.906	23379
877.034	23512
877.162	23551
877.29	23539
877.418	23429
877.546	23505
877.674	23501
877.802	23463
877.93	23604
878.058	23573
878.185	23417
878.313	23516
878.441	23440
878.568	23471
878.696	23334
878.824	23535
878.951	23615
879.079	23676
879.206	23824
879.333	23722
879.461	23493
879.588	23657
879.715	23608
879.842	23901
879.97	23687
880.097	23292
880.224	23360
880.351	23318
880.478	23406
880.605	23212
880.732	23383
880.859	23573
880.986	23258
881.112	23334
881.239	23254
881.366	23090
881.493	22957
881.619	22957
881.746	22927
881.872	22965
881.999	22923
882.125	22873
882.252	22854
882.378	22900
882.505	23052
882.631	22816
882.757	22622
882.883	22733
883.01	22584
883.136	22523
883.262	22500
883.388	22462
883.514	22569
883.64	22634
883.766	22455
883.892	22447
884.018	22382
884.143	22603
884.269	22485
884.395	22268
884.52	22230
884.646	22261
884.772	22181
884.897	22139
885.023	22192
885.148	22287
885.274	22337
885.399	22272
885.524	22287
885.65	22169
885.775	22207
885.9	22078
886.025	22223
886.15	22261
886.275	22242
886.4	21968
886.525	22090
886.65	22166
886.775	22139
886.9	22310
887.025	22470
887.149	22162
887.274	22002
887.399	22040
887.523	21979
887.648	22040
887.773	21907
887.897	22090
888.021	21998
888.146	21869
888.27	22090
888.395	22048
888.519	21915
888.643	21998
888.767	21854
888.891	21869
889.015	21804
889.139	21926
889.263	21785
889.387	21880
889.511	22036
889.635	21907
889.759	21823
889.883	21762
890.006	21800
890.13	21888
890.254	21629
890.377	21641
890.501	21408
890.624	21504
890.748	21492
890.871	21424
890.995	21317
891.118	21321
891.241	21351
891.364	21424
891.488	21454
891.611	21336
891.734	21329
891.857	21344
891.98	21351
892.103	21454
892.226	21313
892.349	21218
892.471	21051
892.594	21310
892.717	21268
892.839	21127
892.962	21176
893.085	21222
893.207	21249
893.33	21245
893.452	21119
893.575	21188
893.697	21279
893.819	21279
893.941	21378
894.064	21287
894.186	21096
894.308	21252
894.43	21241
894.552	21370
894.674	21218
894.796	21176
894.918	21176
895.04	21104
895.161	21195
895.283	21192
895.405	21112
895.526	21226
895.648	21089
895.769	21268
895.891	21222
896.012	21317
896.134	21249
896.255	21150
896.376	21184
896.498	21275
896.619	21142
896.74	21070
896.861	21100
896.982	21466
897.103	21644
897.224	21382
897.345	21378
897.466	21237
897.587	21386
897.708	21443
897.828	21473
897.949	21294
898.07	21249
898.19	21302
898.311	21507
898.431	21310
898.552	21389
898.672	21298
898.792	21382
898.913	21332
899.033	21249
899.153	21112
899.273	21112
899.393	21024
899.513	21066
899.633	21070
899.753	21119
899.873	20963
899.993	21165
900.113	20975
900.232	21070
900.352	20899
900.472	20842
900.591	20864
900.711	20811
900.83	20815
900.95	20963
901.069	20948
901.189	20811
901.308	20492
901.427	20514
901.546	20549
901.665	20431
901.784	20503
901.904	20370
902.023	20229
902.141	20081
902.26	20001
902.379	20012
902.498	19887
902.617	19932
902.735	20035
902.854	19833
902.973	19826
903.091	19613
903.21	19525
903.328	19594
903.446	19590
903.565	19358
903.683	19377
903.801	19285
903.919	19354
904.038	19327
904.156	19282
904.274	19156
904.392	19247
904.51	19118
904.627	19133
904.745	19179
904.863	19266
904.981	18958
905.098	18810
905.216	18867
905.334	18795
905.451	18829
905.569	18700
905.686	18837
905.803	18730
905.921	18639
906.038	18806
906.155	18677
906.272	18525
906.389	18471
906.506	18403
906.623	18350
906.74	18418
906.857	18167
906.974	18289
907.091	18460
907.208	18445
907.324	18270
907.441	18190
907.557	18072
907.674	18171
907.79	17843
907.907	17920
908.023	18022
908.139	18087
908.256	18064
908.372	18034
908.488	17828
908.604	17684
908.72	17676
908.836	17771
908.952	17729
909.068	17836
909.184	17954
909.3	17649
909.415	17676
909.531	17737
909.647	17490
909.762	17433
909.878	17497
909.993	17364
910.108	17379
910.224	17391
910.339	17379
910.454	17349
910.57	17166
910.685	17216
910.8	17547
910.915	17387
911.03	17140
911.145	17064
911.259	17014
911.374	16991
911.489	16991
911.604	16892
911.718	16713
911.833	16809
911.947	16653
912.062	16641
912.176	16824
912.291	16740
912.405	16675
912.519	16904
912.633	16896
912.748	16778
912.862	16744
912.976	16687
913.09	16485
913.204	16538
913.318	16527
913.431	16702
913.545	16660
913.659	16596
913.772	16538
913.886	16424
914	16348
914.113	16405
914.226	16516
914.34	16512
914.453	16246
914.566	16417
914.68	16200
914.793	16223
914.906	16021
915.019	15960
915.132	15915
915.245	15922
915.358	15975
915.47	16063
915.583	15964
915.696	15857
915.809	16067
915.921	16025
916.034	15854
916.146	15827
916.259	15861
916.371	15895
916.483	15759
916.595	15804
916.708	15701
916.82	15800
916.932	15671
917.044	15629
917.156	15595
917.268	15599
917.38	15591
917.491	15538
917.603	15530
917.715	15587
917.826	15663
917.938	15485
918.049	15420
918.161	15488
918.272	15629
918.384	15690
918.495	15542
918.606	15332
918.717	15374
918.828	15405
918.939	15332
919.05	15226
919.161	15245
919.272	15161
919.383	15150
919.494	15214
919.604	15405
919.715	15298
919.826	15184
919.936	15252
920.047	15340
920.157	15355
920.267	15481
920.378	15176
920.488	15176
920.598	15416
920.708	15454
920.818	15412
920.928	15332
921.038	15591
921.148	15485
921.258	15161
921.368	15184
921.477	15047
921.587	15005
921.697	14853
921.806	14933
921.916	14838
922.025	14659
922.134	14617
922.244	14556
922.353	14625
922.462	14465
922.571	14480
922.68	14218
922.789	14153
922.898	14290
923.007	14202
923.116	14259
923.224	14259
923.333	14202
923.442	14153
923.55	14111
923.659	14145
923.767	14218
923.876	13989
923.984	14103
924.092	13902
924.201	14073
924.309	13917
924.417	13921
924.525	13856
924.633	13841
924.741	14773
924.849	13689
924.956	13795
925.064	13655
925.172	13597
925.279	13685
925.387	13693
925.494	13628
925.602	13712
925.709	13681
925.816	13460
925.924	13578
926.031	13632
926.138	13540
926.245	13605
926.352	13422
926.459	13571
926.566	13601
926.673	13449
926.779	13377
926.886	13259
926.993	13187
927.099	13149
927.206	13141
927.312	13099
927.419	13091
927.525	13095
927.631	13179
927.737	12954
927.843	12985
927.95	12859
928.056	12951
928.162	12894
928.267	13023
928.373	13529
928.479	13103
928.585	12795
928.69	12947
928.796	13019
928.901	12802
929.007	12601
929.112	12871
929.218	12711
929.323	12635
929.428	12734
929.533	12829
929.638	12639
929.743	12612
929.848	12646
929.953	12589
930.058	12547
930.163	12300
930.267	12380
930.372	12513
930.477	12323
930.581	12494
930.685	12429
930.79	12235
930.894	12209
930.998	12228
931.103	12330
931.207	11984
931.311	11889
931.415	11843
931.519	11615
931.623	11596
