Data from test_V78500241_2489.txt Node
Date: Fri Mar 25 15:59:02 CST 2022
User: usil
Spectrometer: V785-0024
Trigger mode: 0
Integration Time (sec): 4.000000E-1
Scans to average: 1
Nonlinearity correction enabled: false
Boxcar width: 0
Storing dark spectrum: false
XAxis mode: Wavelengths
Number of Pixels in Spectrum: 1024
>>>>>Begin Spectral Data<<<<<
801.071	28310
801.214	28230
801.356	27994
801.499	27953
801.641	27861
801.783	27972
801.926	27960
802.068	28010
802.211	27865
802.353	27778
802.496	27701
802.638	27564
802.78	27603
802.923	27557
803.065	27424
803.208	27462
803.35	27534
803.492	27785
803.635	27728
803.777	27637
803.919	27724
804.061	28120
804.204	27671
804.346	27686
804.488	27599
804.63	27736
804.773	27713
804.915	27876
805.057	27968
805.199	27679
805.341	27930
805.483	27964
805.626	27819
805.768	27937
805.91	27972
806.052	27934
806.194	27873
806.336	28044
806.478	28090
806.62	27960
806.762	28063
806.904	28246
807.046	28341
807.188	28234
807.33	28390
807.472	28379
807.614	28329
807.756	28265
807.898	28280
808.04	28109
808.182	28154
808.324	28272
808.465	28341
808.607	28398
808.749	28451
808.891	28698
809.033	28771
809.174	28519
809.316	28675
809.458	28588
809.6	28664
809.741	28691
809.883	28607
810.025	28915
810.166	28930
810.308	28763
810.45	28774
810.591	28816
810.733	28546
810.875	28478
811.016	28455
811.158	28497
811.299	28710
811.441	28698
811.582	28771
811.724	28691
811.865	28523
812.007	28516
812.148	28557
812.29	28790
812.431	28839
812.573	29018
812.714	29052
812.855	29037
812.997	29178
813.138	29360
813.279	29189
813.421	29197
813.562	29170
813.703	28976
813.845	28771
813.986	28573
814.127	28352
814.268	28215
814.41	28363
814.551	28287
814.692	28268
814.833	28177
814.974	28287
815.115	28398
815.256	28238
815.397	28109
815.539	28154
815.68	28070
815.821	28120
815.962	28158
816.103	28120
816.244	27979
816.385	27880
816.526	27903
816.666	27652
816.807	27549
816.948	27713
817.089	27743
817.23	27652
817.371	27667
817.512	27545
817.653	27595
817.793	27454
817.934	27542
818.075	27553
818.216	27515
818.356	27618
818.497	27427
818.638	27302
818.778	27351
818.919	27374
819.06	27447
819.2	27473
819.341	27564
819.481	27549
819.622	27739
819.762	27991
819.903	27816
820.043	27850
820.184	27747
820.324	27747
820.465	27827
820.605	27622
820.746	27812
820.886	27663
821.026	27629
821.167	27709
821.307	27800
821.447	27747
821.588	27492
821.728	27359
821.868	27313
822.008	27112
822.149	27108
822.289	27096
822.429	26701
822.569	26796
822.709	26754
822.849	26492
822.99	26495
823.13	26533
823.27	26522
823.41	26336
823.55	26282
823.69	26518
823.83	26465
823.97	26377
824.11	26366
824.25	26183
824.389	26320
824.529	26362
824.669	26214
824.809	26294
824.949	26218
825.089	26320
825.228	26404
825.368	26138
825.508	26039
825.648	26130
825.787	26119
825.927	26149
826.067	25955
826.206	26069
826.346	26050
826.485	26161
826.625	26039
826.765	26092
826.904	26031
827.044	25864
827.183	26069
827.323	25795
827.462	25890
827.601	25845
827.741	25849
827.88	25852
828.02	25696
828.159	25731
828.298	25879
828.437	25784
828.577	25696
828.716	26024
828.855	25776
828.994	25358
829.134	25430
829.273	25666
829.412	25510
829.551	25559
829.69	25590
829.829	25499
829.968	25632
830.107	25487
830.246	25582
830.385	25438
830.524	25457
830.663	25312
830.802	25213
830.941	25095
831.08	24992
831.219	25209
831.357	25069
831.496	25270
831.635	25065
831.774	24943
831.913	24901
832.051	24966
832.19	24878
832.329	24901
832.467	24700
832.606	24779
832.744	24623
832.883	24795
833.022	24840
833.16	24753
833.299	24795
833.437	24673
833.576	24798
833.714	24905
833.852	24798
833.991	24859
834.129	24939
834.267	24977
834.406	24992
834.544	24764
834.682	24814
834.821	24623
834.959	24951
835.097	24833
835.235	24837
835.373	24760
835.511	24798
835.65	24631
835.788	24623
835.926	24437
836.064	24467
836.202	24532
836.34	24582
836.478	24787
836.615	24597
836.753	24707
836.891	24738
837.029	24673
837.167	24642
837.305	24563
837.443	24342
837.58	24407
837.718	24570
837.856	24612
837.993	24494
838.131	24407
838.269	24353
838.406	24350
838.544	24357
838.681	24095
838.819	24125
838.956	24057
839.094	23996
839.231	24091
839.369	24159
839.506	24292
839.643	24171
839.781	23996
839.918	23855
840.055	23988
840.193	23878
840.33	23786
840.467	23851
840.604	23912
840.742	24102
840.879	23707
841.016	23843
841.153	23756
841.29	23946
841.427	23760
841.564	23855
841.701	23843
841.838	23786
841.975	23775
842.112	23760
842.249	23695
842.385	23573
842.522	23870
842.659	23627
842.796	23653
842.933	23699
843.069	23562
843.206	23543
843.343	23722
843.479	23642
843.616	23531
843.752	23444
843.889	23421
844.025	23551
844.162	23455
844.298	23471
844.435	23368
844.571	23341
844.708	23239
844.844	23577
844.98	23444
845.117	23512
845.253	23433
845.389	23197
845.525	23356
845.661	23288
845.798	23094
845.934	23044
846.07	23132
846.206	23143
846.342	23162
846.478	23147
846.614	22839
846.75	22828
846.886	22812
847.022	22858
847.158	22991
847.294	22938
847.429	22820
847.565	22786
847.701	23105
847.837	22573
847.972	22596
848.108	22569
848.244	22702
848.379	22561
848.515	22360
848.65	22588
848.786	22641
848.921	22485
849.057	22527
849.192	22500
849.328	22542
849.463	22470
849.598	22421
849.734	22261
849.869	22322
850.004	22109
850.14	22158
850.275	22177
850.41	22105
850.545	22173
850.68	22139
850.815	22215
850.95	22280
851.085	22352
851.22	22325
851.355	22166
851.49	22128
851.625	22139
851.76	22063
851.895	22040
852.03	22181
852.165	22223
852.299	22325
852.434	22246
852.569	22135
852.703	22078
852.838	22120
852.973	22341
853.107	22367
853.242	22150
853.376	22150
853.511	21827
853.645	21991
853.78	22158
853.914	22051
854.048	21960
854.183	21998
854.317	22082
854.451	22131
854.585	22109
854.72	22017
854.854	22074
854.988	22059
855.122	21983
855.256	21987
855.39	22131
855.524	22109
855.658	22070
855.792	22086
855.926	22055
856.06	22044
856.194	22002
856.327	22021
856.461	21907
856.595	22002
856.729	21972
856.862	22036
856.996	21983
857.13	22074
857.263	22162
857.397	22090
857.53	21949
857.664	22112
857.797	22051
857.931	22192
858.064	21991
858.197	22128
858.331	21930
858.464	21899
858.597	21903
858.731	22120
858.864	22070
858.997	22010
859.13	22017
859.263	21842
859.396	22116
859.529	22017
859.662	22021
859.795	22017
859.928	22097
860.061	22181
860.194	22265
860.327	22120
860.46	21968
860.592	22158
860.725	22223
860.858	22036
860.99	22109
861.123	22013
861.256	21972
861.388	22074
861.521	22831
861.653	21895
861.786	21778
861.918	21998
862.05	21747
862.183	21911
862.315	21937
862.447	21998
862.58	21907
862.712	21755
862.844	21732
862.976	21743
863.108	21835
863.24	21975
863.372	21701
863.504	21762
863.636	21880
863.768	21736
863.9	21781
864.032	21694
864.164	21743
864.296	21720
864.428	21869
864.559	21819
864.691	21705
864.823	21717
864.954	21724
865.086	21698
865.217	21538
865.349	21496
865.48	21637
865.612	21622
865.743	21846
865.875	21622
866.006	21587
866.137	21648
866.269	21538
866.4	21530
866.531	21542
866.662	21568
866.793	21481
866.924	21538
867.055	21572
867.186	21496
867.317	21477
867.448	21439
867.579	21553
867.71	21348
867.841	21496
867.972	21553
868.103	21587
868.233	21564
868.364	21488
868.495	21576
868.625	21797
868.756	21873
868.886	21724
869.017	21747
869.147	21812
869.278	21903
869.408	21698
869.539	21747
869.669	21926
869.799	21861
869.929	21850
870.06	21884
870.19	22139
870.32	22029
870.45	22006
870.58	22112
870.71	22371
870.84	22238
870.97	22090
871.1	22299
871.23	22398
871.36	22329
871.489	22287
871.619	22306
871.749	22360
871.879	22291
872.008	22504
872.138	22371
872.267	22306
872.397	22367
872.526	22234
872.656	22223
872.785	22158
872.915	22424
873.044	22580
873.173	22367
873.303	22561
873.432	22516
873.561	22645
873.69	22405
873.819	22459
873.948	22512
874.077	22470
874.206	22348
874.335	22405
874.464	22474
874.593	22672
874.722	22535
874.851	22630
874.979	22641
875.108	22592
875.237	22546
875.365	22348
875.494	22622
875.623	22694
875.751	22630
875.88	22683
876.008	22672
876.136	22896
876.265	22961
876.393	23018
876.521	23006
876.65	23109
876.778	22999
876.906	23052
877.034	22984
877.162	23155
877.29	22923
877.418	22999
877.546	22923
877.674	23003
877.802	22946
877.93	22972
878.058	22968
878.185	22942
878.313	22984
878.441	22896
878.568	22866
878.696	22877
878.824	22919
878.951	22995
879.079	23155
879.206	23265
879.333	23006
879.461	23071
879.588	23060
879.715	23079
879.842	23398
879.97	23025
880.097	22755
880.224	22786
880.351	22881
880.478	22900
880.605	22755
880.732	22725
880.859	23022
880.986	22774
881.112	22816
881.239	22664
881.366	22523
881.493	22363
881.619	22470
881.746	22405
881.872	22379
881.999	22489
882.125	22295
882.252	22211
882.378	22428
882.505	22421
882.631	22284
882.757	22029
882.883	22291
883.01	21991
883.136	21987
883.262	21884
883.388	21793
883.514	22059
883.64	22090
883.766	21994
883.892	21953
884.018	21972
884.143	21983
884.269	22181
884.395	21720
884.52	21656
884.646	21755
884.772	21686
884.897	21614
885.023	21709
885.148	21755
885.274	21854
885.399	21759
885.524	21774
885.65	21652
885.775	21686
885.9	21595
886.025	21717
886.15	21747
886.275	21587
886.4	21572
886.525	21656
886.65	21644
886.775	21572
886.9	21812
887.025	21915
887.149	21671
887.274	21568
887.399	21500
887.523	21416
887.648	21485
887.773	21310
887.897	21507
888.021	21507
888.146	21412
888.27	21477
888.395	21633
888.519	21412
888.643	21443
888.767	21374
888.891	21374
889.015	21192
889.139	21351
889.263	21192
889.387	21321
889.511	21526
889.635	21386
889.759	21275
889.883	21169
890.006	21180
890.13	21344
890.254	21211
890.377	21112
890.501	21043
890.624	20956
890.748	21062
890.871	20998
890.995	20792
891.118	20769
891.241	20826
891.364	20910
891.488	20925
891.611	20895
891.734	20800
891.857	20880
891.98	20769
892.103	20929
892.226	20731
892.349	20773
892.471	20514
892.594	20697
892.717	20765
892.839	20659
892.962	20686
893.085	20788
893.207	20632
893.33	20648
893.452	20587
893.575	20716
893.697	20716
893.819	20815
893.941	20861
894.064	20811
894.186	20632
894.308	20613
894.43	20724
894.552	20693
894.674	20811
894.796	20609
894.918	20807
895.04	20526
895.161	20705
895.283	20743
895.405	20556
895.526	20655
895.648	20674
895.769	20731
895.891	20731
896.012	20743
896.134	20781
896.255	20693
896.376	20594
896.498	20670
896.619	20708
896.74	20682
896.861	20705
896.982	21055
897.103	21260
897.224	20872
897.345	20838
897.466	20826
897.587	20910
897.708	21096
897.828	20982
897.949	20765
898.07	20697
898.19	20838
898.311	20963
898.431	20845
898.552	20902
898.672	20937
898.792	21017
898.913	20842
899.033	20819
899.153	20613
899.273	20636
899.393	20545
899.513	20697
899.633	20663
899.753	20549
899.873	20655
899.993	20682
900.113	20609
900.232	20629
900.352	20587
900.472	20518
900.591	20431
900.711	20518
900.83	20362
900.95	20457
901.069	20552
901.189	20301
901.308	20130
901.427	19852
901.546	20107
901.665	19967
901.784	20039
901.904	19788
902.023	19837
902.141	19487
902.26	19601
902.379	19597
902.498	19548
902.617	19544
902.735	19514
902.854	19502
902.973	19567
903.091	19148
903.21	19152
903.328	19122
903.446	19145
903.565	19008
903.683	18852
903.801	18939
903.919	18875
904.038	18867
904.156	18677
904.274	18753
904.392	18715
904.51	18574
904.627	18646
904.745	18783
904.863	18719
904.981	18578
905.098	18369
905.216	18315
905.334	18437
905.451	18369
905.569	18254
905.686	18426
905.803	18292
905.921	18148
906.038	18300
906.155	18304
906.272	18064
906.389	18121
906.506	17999
906.623	17916
906.74	17870
906.857	17752
906.974	17821
907.091	17942
907.208	18038
907.324	17908
907.441	17874
907.557	17722
907.674	17581
907.79	17592
907.907	17497
908.023	17589
908.139	17672
908.256	17558
908.372	17528
908.488	17474
908.604	17311
908.72	17345
908.836	17395
908.952	17315
909.068	17341
909.184	17391
909.3	17368
909.415	17334
909.531	17353
909.647	17067
909.762	16972
909.878	16999
909.993	17010
910.108	16976
910.224	16949
910.339	17025
910.454	16774
910.57	16850
910.685	16839
910.8	17045
910.915	16934
911.03	16782
911.145	16660
911.259	16577
911.374	16558
911.489	16504
911.604	16455
911.718	16417
911.833	16428
911.947	16314
912.062	16177
912.176	16306
912.291	16322
912.405	16261
912.519	16607
912.633	16512
912.748	16394
912.862	16333
912.976	16192
913.09	16032
913.204	16116
913.318	16177
913.431	16276
913.545	16204
913.659	16318
913.772	16090
913.886	15972
914	15945
914.113	16097
914.226	16044
914.34	16116
914.453	15926
914.566	15918
914.68	15876
914.793	15850
914.906	15599
915.019	15591
915.132	15496
915.245	15458
915.358	15686
915.47	15523
915.583	15637
915.696	15538
915.809	15728
915.921	15717
916.034	15564
916.146	15492
916.259	15439
916.371	15584
916.483	15530
916.595	15405
916.708	15397
916.82	15329
916.932	15306
917.044	15256
917.156	15275
917.268	15233
917.38	15256
917.491	15252
917.603	15230
917.715	15291
917.826	15230
917.938	15150
918.049	15070
918.161	15100
918.272	15237
918.384	15169
918.495	15081
918.606	15005
918.717	14944
918.828	14994
918.939	14910
919.05	14963
919.161	15005
919.272	14792
919.383	14769
919.494	14994
919.604	15211
919.715	14960
919.826	14887
919.936	14883
920.047	14975
920.157	14876
920.267	15112
920.378	14864
920.488	14845
920.598	14960
920.708	15203
920.818	15062
920.928	15024
921.038	15214
921.148	15070
921.258	14891
921.368	14788
921.477	14705
921.587	14667
921.697	14610
921.806	14545
921.916	14495
922.025	14393
922.134	14332
922.244	14195
922.353	14313
922.462	14252
922.571	14065
922.68	13963
922.789	13944
922.898	13947
923.007	13845
923.116	13993
923.224	13936
923.333	13875
923.442	13871
923.55	13776
923.659	13818
923.767	13807
923.876	13731
923.984	13822
924.092	13639
924.201	13578
924.309	13681
924.417	13772
924.525	13533
924.633	13685
924.741	14328
924.849	13365
924.956	13586
925.064	13411
925.172	13240
925.279	13324
925.387	13377
925.494	13331
925.602	13441
925.709	13278
925.816	13213
925.924	13263
926.031	13392
926.138	13259
926.245	13312
926.352	13122
926.459	13327
926.566	13346
926.673	13133
926.779	13027
926.886	12981
926.993	12939
927.099	12871
927.206	12798
927.312	12802
927.419	12935
927.525	12859
927.631	12894
927.737	12772
927.843	12700
927.95	12642
928.056	12673
928.162	12642
928.267	12703
928.373	13263
928.479	12825
928.585	12452
928.69	12612
928.796	12654
928.901	12506
929.007	12407
929.112	12498
929.218	12467
929.323	12369
929.428	12308
929.533	12551
929.638	12273
929.743	12365
929.848	12395
929.953	12277
930.058	12216
930.163	12076
930.267	12072
930.372	12171
930.477	12026
930.581	12224
930.685	12095
930.79	11920
930.894	11973
930.998	11977
931.103	11984
931.207	11710
931.311	11505
931.415	11539
931.519	11299
931.623	11334
