Data from test_V78500241_419.txt Node
Date: Fri Mar 25 15:44:42 CST 2022
User: usil
Spectrometer: V785-0024
Trigger mode: 0
Integration Time (sec): 4.000000E-1
Scans to average: 1
Nonlinearity correction enabled: false
Boxcar width: 0
Storing dark spectrum: false
XAxis mode: Wavelengths
Number of Pixels in Spectrum: 1024
>>>>>Begin Spectral Data<<<<<
801.071	29181
801.214	29128
801.356	28835
801.499	28961
801.641	28797
801.783	28831
801.926	28820
802.068	28858
802.211	28687
802.353	28603
802.496	28394
802.638	28531
802.78	28443
802.923	28341
803.065	28280
803.208	28299
803.35	28413
803.492	28489
803.635	28451
803.777	28497
803.919	28599
804.061	28809
804.204	28675
804.346	28546
804.488	28542
804.63	28615
804.773	28417
804.915	28538
805.057	28694
805.199	28664
805.341	28656
805.483	28771
805.626	28748
805.768	28702
805.91	28679
806.052	28710
806.194	28694
806.336	29064
806.478	28752
806.62	28862
806.762	28885
806.904	29060
807.046	29326
807.188	29166
807.33	29151
807.472	29337
807.614	29220
807.756	29197
807.898	29121
808.04	28957
808.182	28984
808.324	28976
808.465	29037
808.607	29109
808.749	29395
808.891	29463
809.033	29535
809.174	29395
809.316	29535
809.458	29258
809.6	29558
809.741	29421
809.883	29531
810.025	29577
810.166	29680
810.308	29798
810.45	29589
810.591	29623
810.733	29417
810.875	29216
811.016	29463
811.158	29288
811.299	29455
811.441	29672
811.582	29490
811.724	29429
811.865	29379
812.007	29273
812.148	29501
812.29	29387
812.431	29665
812.573	29752
812.714	29817
812.855	29946
812.997	29912
813.138	30163
813.279	30049
813.421	29946
813.562	29931
813.703	29813
813.845	29547
813.986	29368
814.127	29296
814.268	29170
814.41	29132
814.551	29094
814.692	29155
814.833	29018
814.974	29022
815.115	28999
815.256	28911
815.397	28949
815.539	28961
815.68	28850
815.821	28809
815.962	28995
816.103	28828
816.244	28656
816.385	28660
816.526	28588
816.666	28375
816.807	28386
816.948	28436
817.089	28599
817.23	28306
817.371	28242
817.512	28276
817.653	28211
817.793	28272
817.934	28382
818.075	28257
818.216	28196
818.356	28238
818.497	28223
818.638	28086
818.778	28078
818.919	27937
819.06	28215
819.2	28226
819.341	28154
819.481	28337
819.622	28428
819.762	28622
819.903	28634
820.043	28474
820.184	28455
820.324	28329
820.465	28523
820.605	28485
820.746	28421
820.886	28284
821.026	28219
821.167	28421
821.307	28310
821.447	28284
821.588	28166
821.728	28185
821.868	27972
822.008	27762
822.149	27686
822.289	27705
822.429	27557
822.569	27332
822.709	27473
822.849	27332
822.99	27203
823.13	27173
823.27	27256
823.41	26876
823.55	26921
823.69	27024
823.83	27096
823.97	26963
824.11	26880
824.25	26739
824.389	26902
824.529	26902
824.669	27005
824.809	26796
824.949	26849
825.089	26948
825.228	26937
825.368	26735
825.508	26731
825.648	26804
825.787	26720
825.927	26758
826.067	26636
826.206	26735
826.346	26674
826.485	26716
826.625	26826
826.765	26743
826.904	26701
827.044	26495
827.183	26530
827.323	26240
827.462	26526
827.601	26343
827.741	26183
827.88	26537
828.02	26358
828.159	26259
828.298	26294
828.437	26393
828.577	26370
828.716	26408
828.855	26195
828.994	26134
829.134	26046
829.273	26122
829.412	26122
829.551	26016
829.69	26119
829.829	25978
829.968	26218
830.107	26202
830.246	26027
830.385	26016
830.524	25959
830.663	25841
830.802	25742
830.941	25723
831.08	25723
831.219	25731
831.357	25643
831.496	25658
831.635	25563
831.774	25597
831.913	25392
832.051	25502
832.19	25419
832.329	25346
832.467	25278
832.606	25206
832.744	25206
832.883	25331
833.022	25259
833.16	25209
833.299	25270
833.437	25312
833.576	25209
833.714	25297
833.852	25358
833.991	25373
834.129	25426
834.267	25422
834.406	25274
834.544	25362
834.682	25411
834.821	25308
834.959	25525
835.097	25240
835.235	25388
835.373	25209
835.511	25187
835.65	25156
835.788	25148
835.926	25031
836.064	24962
836.202	24798
836.34	25126
836.478	25122
836.615	24985
836.753	25126
836.891	25259
837.029	25103
837.167	25129
837.305	24981
837.443	25042
837.58	24916
837.718	25084
837.856	25202
837.993	24768
838.131	25053
838.269	24806
838.406	24913
838.544	24719
838.681	24498
838.819	24570
838.956	24483
839.094	24350
839.231	24471
839.369	24616
839.506	24856
839.643	24650
839.781	24388
839.918	24346
840.055	24369
840.193	24323
840.33	24330
840.467	24353
840.604	24464
840.742	24677
840.879	24224
841.016	24235
841.153	24235
841.29	24281
841.427	24270
841.564	24353
841.701	24346
841.838	24197
841.975	24281
842.112	24155
842.249	24038
842.385	23942
842.522	24148
842.659	24159
842.796	23923
842.933	23977
843.069	23931
843.206	23942
843.343	23977
843.479	23992
843.616	23882
843.752	23824
843.889	23779
844.025	23813
844.162	23703
844.298	23866
844.435	23760
844.571	23615
844.708	23771
844.844	23824
844.98	23889
845.117	23714
845.253	23687
845.389	23429
845.525	23570
845.661	23573
845.798	23528
845.934	23619
846.07	23353
846.206	23501
846.342	23695
846.478	23406
846.614	23269
846.75	23178
846.886	23185
847.022	23246
847.158	23197
847.294	23143
847.429	23250
847.565	23128
847.701	23410
847.837	22968
847.972	22961
848.108	22999
848.244	22896
848.379	22778
848.515	22763
848.65	22664
848.786	22793
848.921	22828
849.057	22869
849.192	22889
849.328	22748
849.463	22812
849.598	22748
849.734	22569
849.869	22596
850.004	22542
850.14	22599
850.275	22466
850.41	22470
850.545	22466
850.68	22565
850.815	22535
850.95	22436
851.085	22702
851.22	22561
851.355	22565
851.49	22409
851.625	22519
851.76	22443
851.895	22417
852.03	22375
852.165	22443
852.299	22573
852.434	22527
852.569	22440
852.703	22459
852.838	22569
852.973	22497
853.107	22573
853.242	22516
853.376	22306
853.511	22192
853.645	22185
853.78	22356
853.914	22382
854.048	22348
854.183	22348
854.317	22215
854.451	22371
854.585	22455
854.72	22234
854.854	22493
854.988	22249
855.122	22238
855.256	22246
855.39	22223
855.524	22341
855.658	22265
855.792	22261
855.926	22268
856.06	22291
856.194	22360
856.327	22219
856.461	22280
856.595	22238
856.729	22295
856.862	22333
856.996	22363
857.13	22363
857.263	22356
857.397	22417
857.53	22261
857.664	22405
857.797	22390
857.931	22367
858.064	22215
858.197	22344
858.331	22207
858.464	22249
858.597	22131
858.731	22238
858.864	22234
858.997	22291
859.13	22276
859.263	22287
859.396	22405
859.529	22230
859.662	22242
859.795	22261
859.928	22219
860.061	22436
860.194	22375
860.327	22249
860.46	22257
860.592	22398
860.725	22447
860.858	22440
860.99	22211
861.123	22090
861.256	22204
861.388	22207
861.521	22816
861.653	22059
861.786	22067
861.918	22196
862.05	22139
862.183	22257
862.315	22158
862.447	22310
862.58	22135
862.712	22021
862.844	22006
862.976	22139
863.108	21918
863.24	22459
863.372	21960
863.504	21972
863.636	22025
863.768	21964
863.9	21945
864.032	21816
864.164	21827
864.296	21926
864.428	21975
864.559	21918
864.691	22093
864.823	21899
864.954	22010
865.086	21930
865.217	21778
865.349	21770
865.48	21869
865.612	21895
865.743	22029
865.875	21899
866.006	21755
866.137	21831
866.269	21850
866.4	21774
866.531	21751
866.662	21759
866.793	21911
866.924	21793
867.055	21686
867.186	21747
867.317	21766
867.448	21637
867.579	21671
867.71	21652
867.841	21686
867.972	21709
868.103	21770
868.233	21679
868.364	21724
868.495	21895
868.625	21975
868.756	22204
868.886	21892
869.017	21956
869.147	22025
869.278	22029
869.408	21991
869.539	21968
869.669	22173
869.799	22048
869.929	22025
870.06	22109
870.19	22352
870.32	22291
870.45	22318
870.58	22287
870.71	22481
870.84	22413
870.97	22424
871.1	22322
871.23	22546
871.36	22557
871.489	22485
871.619	22421
871.749	22573
871.879	22683
872.008	22603
872.138	22683
872.267	22607
872.397	22565
872.526	22322
872.656	22497
872.785	22485
872.915	22580
873.044	22706
873.173	22645
873.303	22649
873.432	22687
873.561	22580
873.69	22736
873.819	22516
873.948	22679
874.077	22630
874.206	22546
874.335	22672
874.464	22805
874.593	22904
874.722	22831
874.851	22892
874.979	22812
875.108	22923
875.237	22725
875.365	22771
875.494	22873
875.623	22812
875.751	23025
875.88	22904
876.008	22805
876.136	22923
876.265	23193
876.393	23280
876.521	23356
876.65	23223
876.778	23170
876.906	23235
877.034	23113
877.162	23155
877.29	23162
877.418	23151
877.546	23162
877.674	23197
877.802	23223
877.93	23132
878.058	23162
878.185	23132
878.313	23128
878.441	23197
878.568	23098
878.696	23155
878.824	23216
878.951	23227
879.079	23322
879.206	23444
879.333	23353
879.461	23159
879.588	23147
879.715	23334
879.842	23554
879.97	23277
880.097	23018
880.224	22999
880.351	23071
880.478	22949
880.605	22938
880.732	23003
880.859	23334
880.986	22942
881.112	23018
881.239	22831
881.366	22630
881.493	22759
881.619	22577
881.746	22664
881.872	22535
881.999	22622
882.125	22531
882.252	22565
882.378	22542
882.505	22778
882.631	22341
882.757	22306
882.883	22363
883.01	22333
883.136	22116
883.262	22215
883.388	22101
883.514	22234
883.64	22265
883.766	22158
883.892	21998
884.018	22112
884.143	22223
884.269	22303
884.395	22040
884.52	21915
884.646	22044
884.772	21743
884.897	21812
885.023	21941
885.148	22070
885.274	22067
885.399	21926
885.524	21956
885.65	21880
885.775	21842
885.9	21732
886.025	22002
886.15	22051
886.275	21846
886.4	21819
886.525	21915
886.65	21884
886.775	21717
886.9	21983
887.025	22116
887.149	21884
887.274	21694
887.399	21698
887.523	21618
887.648	21637
887.773	21587
887.897	21751
888.021	21705
888.146	21644
888.27	21793
888.395	21633
888.519	21713
888.643	21804
888.767	21686
888.891	21622
889.015	21405
889.139	21538
889.263	21507
889.387	21515
889.511	21618
889.635	21530
889.759	21397
889.883	21523
890.006	21401
890.13	21511
890.254	21317
890.377	21313
890.501	21188
890.624	21096
890.748	21260
890.871	21123
890.995	20994
891.118	20979
891.241	20929
891.364	21017
891.488	20952
891.611	20990
891.734	21081
891.857	20910
891.98	20960
892.103	21017
892.226	20937
892.349	20906
892.471	20868
892.594	20864
892.717	21085
892.839	20712
892.962	20792
893.085	20929
893.207	20914
893.33	20788
893.452	20804
893.575	20914
893.697	20838
893.819	21017
893.941	21100
894.064	21070
894.186	20739
894.308	20815
894.43	20887
894.552	21009
894.674	20899
894.796	20804
894.918	20929
895.04	20762
895.161	20872
895.283	20910
895.405	20876
895.526	20792
895.648	20842
895.769	21032
895.891	20921
896.012	20929
896.134	20918
896.255	20853
896.376	20994
896.498	20845
896.619	20956
896.74	20990
896.861	20834
896.982	21226
897.103	21355
897.224	21005
897.345	21119
897.466	21062
897.587	21146
897.708	21211
897.828	21089
897.949	21043
898.07	20918
898.19	21058
898.311	21233
898.431	21085
898.552	21077
898.672	21184
898.792	21077
898.913	21154
899.033	20857
899.153	20868
899.273	20762
899.393	20727
899.513	20746
899.633	20864
899.753	20815
899.873	20716
899.993	20883
900.113	20739
900.232	20765
900.352	20739
900.472	20678
900.591	20613
900.711	20792
900.83	20419
900.95	20621
901.069	20739
901.189	20484
901.308	20225
901.427	20126
901.546	20191
901.665	20119
901.784	20168
901.904	19955
902.023	19993
902.141	19803
902.26	19643
902.379	19643
902.498	19624
902.617	19658
902.735	19537
902.854	19567
902.973	19499
903.091	19259
903.21	19327
903.328	19358
903.446	19301
903.565	19057
903.683	19251
903.801	18939
903.919	18939
904.038	18962
904.156	18859
904.274	19008
904.392	18852
904.51	18833
904.627	18772
904.745	18935
904.863	18939
904.981	18665
905.098	18346
905.216	18601
905.334	18525
905.451	18513
905.569	18494
905.686	18517
905.803	18483
905.921	18384
906.038	18426
906.155	18262
906.272	18266
906.389	18243
906.506	17969
906.623	18121
906.74	18144
906.857	17923
906.974	18060
907.091	18174
907.208	18022
907.324	17977
907.441	17893
907.557	17764
907.674	17855
907.79	17684
907.907	17733
908.023	17707
908.139	17813
908.256	17703
908.372	17672
908.488	17630
908.604	17558
908.72	17436
908.836	17467
908.952	17436
909.068	17524
909.184	17497
909.3	17402
909.415	17349
909.531	17429
909.647	17258
909.762	17045
909.878	17113
909.993	17143
910.108	17090
910.224	17109
910.339	17056
910.454	17079
910.57	16927
910.685	16987
910.8	17079
910.915	17060
911.03	16908
911.145	16809
911.259	16702
911.374	16641
911.489	16596
911.604	16481
911.718	16474
911.833	16481
911.947	16440
912.062	16272
912.176	16481
912.291	16432
912.405	16466
912.519	16630
912.633	16577
912.748	16417
912.862	16508
912.976	16272
913.09	16090
913.204	16120
913.318	16246
913.431	16261
913.545	16352
913.659	16371
913.772	16147
913.886	16036
914	16059
914.113	16067
914.226	16086
914.34	16181
914.453	15994
914.566	16074
914.68	15949
914.793	15869
914.906	15766
915.019	15599
915.132	15496
915.245	15698
915.358	15686
915.47	15633
915.583	15614
915.696	15717
915.809	15717
915.921	15793
916.034	15462
916.146	15485
916.259	15488
916.371	15538
916.483	15599
916.595	15435
916.708	15439
916.82	15340
916.932	15469
917.044	15340
917.156	15393
917.268	15207
917.38	15321
917.491	15294
917.603	15336
917.715	15412
917.826	15298
917.938	15108
918.049	15195
918.161	15169
918.272	15462
918.384	15367
918.495	15108
918.606	15017
918.717	14960
918.828	15055
918.939	15039
919.05	14887
919.161	14963
919.272	14777
919.383	14800
919.494	15036
919.604	15146
919.715	14933
919.826	14838
919.936	14937
920.047	15058
920.157	15001
920.267	15138
920.378	15081
920.488	14902
920.598	15104
920.708	15192
920.818	15123
920.928	15077
921.038	15207
921.148	15161
921.258	14948
921.368	14823
921.477	14712
921.587	14682
921.697	14587
921.806	14587
921.916	14571
922.025	14389
922.134	14263
922.244	14229
922.353	14339
922.462	14210
922.571	14073
922.68	14046
922.789	13947
922.898	13917
923.007	13887
923.116	13967
923.224	13978
923.333	13879
923.442	13807
923.55	13757
923.659	13849
923.767	13845
923.876	13666
923.984	13780
924.092	13666
924.201	13651
924.309	13651
924.417	13616
924.525	13556
924.633	13597
924.741	14343
924.849	13419
924.956	13567
925.064	13438
925.172	13270
925.279	13346
925.387	13346
925.494	13354
925.602	13426
925.709	13407
925.816	13274
925.924	13225
926.031	13384
926.138	13369
926.245	13289
926.352	13118
926.459	13304
926.566	13312
926.673	13164
926.779	13008
926.886	13034
926.993	12886
927.099	12901
927.206	12890
927.312	12798
927.419	12932
927.525	12814
927.631	12913
927.737	12825
927.843	12703
927.95	12616
928.056	12703
928.162	12734
928.267	12650
928.373	13354
928.479	12726
928.585	12532
928.69	12627
928.796	12715
928.901	12551
929.007	12353
929.112	12582
929.218	12517
929.323	12403
929.428	12483
929.533	12620
929.638	12308
929.743	12281
929.848	12330
929.953	12346
930.058	12224
930.163	12072
930.267	12129
930.372	12262
930.477	12057
930.581	12273
930.685	12079
930.79	12019
930.894	11961
930.998	11996
931.103	12019
931.207	11726
931.311	11630
931.415	11497
931.519	11379
931.623	11326
