Data from test_V78500241_3275.txt Node
Date: Fri Mar 25 16:04:29 CST 2022
User: usil
Spectrometer: V785-0024
Trigger mode: 0
Integration Time (sec): 4.000000E-1
Scans to average: 1
Nonlinearity correction enabled: false
Boxcar width: 0
Storing dark spectrum: false
XAxis mode: Wavelengths
Number of Pixels in Spectrum: 1024
>>>>>Begin Spectral Data<<<<<
801.071	28493
801.214	28436
801.356	28177
801.499	28109
801.641	27907
801.783	27911
801.926	28112
802.068	28017
802.211	27979
802.353	27789
802.496	27728
802.638	27641
802.78	27717
802.923	27644
803.065	27561
803.208	27610
803.35	27648
803.492	27945
803.635	28010
803.777	27884
803.919	27987
804.061	28284
804.204	28002
804.346	27880
804.488	27835
804.63	27903
804.773	27865
804.915	28032
805.057	28082
805.199	28006
805.341	27934
805.483	28166
805.626	28006
805.768	27968
805.91	28135
806.052	28021
806.194	27998
806.336	28246
806.478	28048
806.62	28059
806.762	28135
806.904	28443
807.046	28516
807.188	28398
807.33	28580
807.472	28531
807.614	28546
807.756	28455
807.898	28432
808.04	28337
808.182	28234
808.324	28356
808.465	28428
808.607	28596
808.749	28668
808.891	28862
809.033	28858
809.174	28919
809.316	28786
809.458	28713
809.6	28721
809.741	28968
809.883	28930
810.025	28987
810.166	29090
810.308	29147
810.45	28957
810.591	28972
810.733	28755
810.875	28721
811.016	28767
811.158	28656
811.299	28858
811.441	28793
811.582	28972
811.724	28805
811.865	28733
812.007	28812
812.148	28809
812.29	28835
812.431	28923
812.573	28976
812.714	29178
812.855	29330
812.997	29387
813.138	29501
813.279	29406
813.421	29189
813.562	29159
813.703	29166
813.845	29083
813.986	28653
814.127	28577
814.268	28512
814.41	28500
814.551	28550
814.692	28474
814.833	28417
814.974	28356
815.115	28421
815.256	28375
815.397	28421
815.539	28272
815.68	28303
815.821	28276
815.962	28386
816.103	28352
816.244	28329
816.385	28143
816.526	28013
816.666	27926
816.807	27648
816.948	28021
817.089	27941
817.23	27857
817.371	27816
817.512	27732
817.653	27728
817.793	27816
817.934	27899
818.075	27751
818.216	27682
818.356	27804
818.497	27682
818.638	27488
818.778	27671
818.919	27591
819.06	27507
819.2	27751
819.341	27960
819.481	27838
819.622	27880
819.762	28082
819.903	28192
820.043	28074
820.184	27892
820.324	27899
820.465	28044
820.605	27941
820.746	27876
820.886	27838
821.026	27861
821.167	27983
821.307	27914
821.447	27873
821.588	27732
821.728	27667
821.868	27591
822.008	27359
822.149	27287
822.289	27370
822.429	26918
822.569	26929
822.709	26918
822.849	26762
822.99	26918
823.13	26731
823.27	26785
823.41	26617
823.55	26469
823.69	26727
823.83	26617
823.97	26545
824.11	26484
824.25	26434
824.389	26324
824.529	26480
824.669	26549
824.809	26537
824.949	26568
825.089	26385
825.228	26412
825.368	26183
825.508	26347
825.648	26286
825.787	26343
825.927	26629
826.067	26252
826.206	26233
826.346	26480
826.485	26339
826.625	26290
826.765	26347
826.904	26377
827.044	26096
827.183	26062
827.323	26115
827.462	26122
827.601	25909
827.741	26039
827.88	26031
828.02	25791
828.159	26043
828.298	26119
828.437	26065
828.577	25955
828.716	26111
828.855	25978
828.994	25715
829.134	25772
829.273	25765
829.412	25769
829.551	25818
829.69	25780
829.829	25814
829.968	25883
830.107	25822
830.246	25704
830.385	25715
830.524	25594
830.663	25605
830.802	25445
830.941	25449
831.08	25274
831.219	25308
831.357	25468
831.496	25597
831.635	25365
831.774	25312
831.913	25240
832.051	25175
832.19	25126
832.329	25126
832.467	25080
832.606	24810
832.744	24882
832.883	24939
833.022	24951
833.16	24928
833.299	25084
833.437	24973
833.576	25019
833.714	25069
833.852	25095
833.991	25099
834.129	25194
834.267	25099
834.406	25088
834.544	25000
834.682	25107
834.821	24913
834.959	25114
835.097	24928
835.235	25137
835.373	25008
835.511	25061
835.65	24913
835.788	24913
835.926	24829
836.064	24795
836.202	24722
836.34	25004
836.478	24966
836.615	24935
836.753	24859
836.891	25069
837.029	24886
837.167	24878
837.305	24932
837.443	24631
837.58	24715
837.718	24806
837.856	24741
837.993	24646
838.131	24859
838.269	24601
838.406	24760
838.544	24532
838.681	24433
838.819	24289
838.956	24262
839.094	24106
839.231	24247
839.369	24281
839.506	24570
839.643	24479
839.781	24228
839.918	24102
840.055	24087
840.193	24178
840.33	23988
840.467	24243
840.604	24220
840.742	24376
840.879	23828
841.016	24083
841.153	23916
841.29	24258
841.427	24232
841.564	24106
841.701	24098
841.838	24030
841.975	24083
842.112	23958
842.249	23817
842.385	23832
842.522	24136
842.659	23866
842.796	23828
842.933	23843
843.069	23866
843.206	23733
843.343	23908
843.479	23699
843.616	23813
843.752	23592
843.889	23687
844.025	23733
844.162	23646
844.298	23630
844.435	23627
844.571	23570
844.708	23790
844.844	23840
844.98	23779
845.117	23710
845.253	23558
845.389	23512
845.525	23562
845.661	23467
845.798	23296
845.934	23421
846.07	23376
846.206	23440
846.342	23452
846.478	23414
846.614	23166
846.75	23006
846.886	23029
847.022	23128
847.158	23075
847.294	23090
847.429	23124
847.565	23033
847.701	23421
847.837	22854
847.972	22835
848.108	23014
848.244	22953
848.379	22668
848.515	22656
848.65	22706
848.786	22710
848.921	22656
849.057	22778
849.192	22725
849.328	22850
849.463	22820
849.598	22561
849.734	22519
849.869	22546
850.004	22390
850.14	22584
850.275	22504
850.41	22367
850.545	22344
850.68	22352
850.815	22432
850.95	22493
851.085	22710
851.22	22554
851.355	22523
851.49	22474
851.625	22459
851.76	22542
851.895	22341
852.03	22348
852.165	22417
852.299	22554
852.434	22508
852.569	22417
852.703	22398
852.838	22618
852.973	22641
853.107	22557
853.242	22303
853.376	22242
853.511	22139
853.645	22207
853.78	22417
853.914	22291
854.048	22257
854.183	22261
854.317	22325
854.451	22478
854.585	22314
854.72	22299
854.854	22234
854.988	22223
855.122	22078
855.256	22150
855.39	22314
855.524	22348
855.658	22360
855.792	22272
855.926	22352
856.06	22386
856.194	22382
856.327	22314
856.461	22215
856.595	22204
856.729	22211
856.862	22394
856.996	22405
857.13	22329
857.263	22265
857.397	22413
857.53	22188
857.664	22360
857.797	22356
857.931	22318
858.064	22257
858.197	22421
858.331	22360
858.464	22169
858.597	22059
858.731	22238
858.864	22314
858.997	22150
859.13	22249
859.263	22200
859.396	22382
859.529	22322
859.662	22192
859.795	22242
859.928	22341
860.061	22386
860.194	22424
860.327	22348
860.46	22348
860.592	22398
860.725	22489
860.858	22417
860.99	22337
861.123	22261
861.256	22257
861.388	22322
861.521	23037
861.653	22150
861.786	22082
861.918	22093
862.05	22067
862.183	22120
862.315	22318
862.447	22375
862.58	22249
862.712	22109
862.844	21979
862.976	22025
863.108	22021
863.24	22390
863.372	21987
863.504	21964
863.636	22006
863.768	22044
863.9	21880
864.032	21892
864.164	21854
864.296	21987
864.428	22040
864.559	22059
864.691	22021
864.823	22029
864.954	21930
865.086	21907
865.217	21975
865.349	21850
865.48	21911
865.612	22010
865.743	21876
865.875	21934
866.006	21854
866.137	21854
866.269	21835
866.4	21816
866.531	21808
866.662	21675
866.793	21755
866.924	21667
867.055	21876
867.186	21819
867.317	21717
867.448	21701
867.579	21755
867.71	21698
867.841	21770
867.972	21739
868.103	21846
868.233	21842
868.364	21842
868.495	21842
868.625	21998
868.756	22070
868.886	21975
869.017	22135
869.147	22067
869.278	22253
869.408	21998
869.539	22070
869.669	22101
869.799	21895
869.929	22067
870.06	22181
870.19	22299
870.32	22276
870.45	22337
870.58	22424
870.71	22512
870.84	22466
870.97	22478
871.1	22531
871.23	22710
871.36	22588
871.489	22592
871.619	22660
871.749	22542
871.879	22698
872.008	22729
872.138	22702
872.267	22565
872.397	22611
872.526	22466
872.656	22546
872.785	22443
872.915	22630
873.044	22733
873.173	22641
873.303	22645
873.432	22702
873.561	22809
873.69	22774
873.819	22759
873.948	22736
874.077	22858
874.206	22675
874.335	22698
874.464	22679
874.593	22889
874.722	22843
874.851	22900
874.979	22923
875.108	22797
875.237	22767
875.365	22733
875.494	22896
875.623	22957
875.751	22809
875.88	22843
876.008	22911
876.136	23064
876.265	23326
876.393	23391
876.521	23345
876.65	23360
876.778	23288
876.906	23170
877.034	23197
877.162	23265
877.29	23166
877.418	23189
877.546	23140
877.674	23200
877.802	23113
877.93	23006
878.058	23147
878.185	23159
878.313	23280
878.441	23117
878.568	23064
878.696	23155
878.824	23246
878.951	23311
879.079	23444
879.206	23520
879.333	23444
879.461	23246
879.588	23360
879.715	23429
879.842	23524
879.97	23330
880.097	23048
880.224	22934
880.351	23136
880.478	23117
880.605	23136
880.732	22934
880.859	23212
880.986	23006
881.112	22976
881.239	22869
881.366	22660
881.493	22626
881.619	22660
881.746	22580
881.872	22615
881.999	22497
882.125	22546
882.252	22664
882.378	22668
882.505	22596
882.631	22478
882.757	22310
882.883	22356
883.01	22238
883.136	22211
883.262	22158
883.388	22074
883.514	22272
883.64	22348
883.766	22147
883.892	22135
884.018	22219
884.143	22234
884.269	22314
884.395	22086
884.52	21918
884.646	21873
884.772	21819
884.897	21766
885.023	21854
885.148	21975
885.274	22093
885.399	21968
885.524	21918
885.65	21972
885.775	21945
885.9	21865
886.025	22105
886.15	21892
886.275	21781
886.4	21736
886.525	21895
886.65	21743
886.775	21838
886.9	21979
887.025	22192
887.149	21823
887.274	21713
887.399	21641
887.523	21686
887.648	21625
887.773	21599
887.897	21751
888.021	21622
888.146	21564
888.27	21732
888.395	21793
888.519	21701
888.643	21713
888.767	21732
888.891	21583
889.015	21469
889.139	21526
889.263	21397
889.387	21660
889.511	21530
889.635	21580
889.759	21458
889.883	21382
890.006	21469
890.13	21652
890.254	21454
890.377	21469
890.501	21188
890.624	21154
890.748	21207
890.871	21169
890.995	21051
891.118	20925
891.241	21169
891.364	20918
891.488	21146
891.611	21051
891.734	20956
891.857	21009
891.98	20990
892.103	21176
892.226	21036
892.349	21047
892.471	20796
892.594	20864
892.717	20967
892.839	20902
892.962	20887
893.085	20948
893.207	20834
893.33	20849
893.452	20758
893.575	21005
893.697	20773
893.819	21093
893.941	21096
894.064	21074
894.186	20872
894.308	20781
894.43	20857
894.552	21085
894.674	21077
894.796	20830
894.918	20868
895.04	20823
895.161	20857
895.283	20899
895.405	20853
895.526	20914
895.648	20929
895.769	20933
895.891	20967
896.012	20982
896.134	20971
896.255	20952
896.376	20815
896.498	20876
896.619	20895
896.74	20902
896.861	20864
896.982	21062
897.103	21389
897.224	21203
897.345	21127
897.466	21058
897.587	21165
897.708	21214
897.828	21226
897.949	21039
898.07	20944
898.19	21081
898.311	21112
898.431	21001
898.552	21157
898.672	21222
898.792	21157
898.913	21070
899.033	21032
899.153	20720
899.273	20758
899.393	20849
899.513	20849
899.633	20910
899.753	20731
899.873	20800
899.993	20830
900.113	20644
900.232	20758
900.352	20792
900.472	20712
900.591	20571
900.711	20659
900.83	20473
900.95	20625
901.069	20758
901.189	20488
901.308	20362
901.427	20161
901.546	20096
901.665	20275
901.784	20210
901.904	20046
902.023	19864
902.141	19791
902.26	19814
902.379	19902
902.498	19674
902.617	19556
902.735	19696
902.854	19662
902.973	19590
903.091	19247
903.21	19346
903.328	19282
903.446	19324
903.565	19190
903.683	19156
903.801	18985
903.919	19122
904.038	19034
904.156	18909
904.274	18954
904.392	18795
904.51	18791
904.627	18863
904.745	18973
904.863	19008
904.981	18696
905.098	18559
905.216	18498
905.334	18418
905.451	18502
905.569	18525
905.686	18490
905.803	18585
905.921	18365
906.038	18437
906.155	18441
906.272	18178
906.389	18277
906.506	18178
906.623	18167
906.74	18038
906.857	17980
906.974	17988
907.091	18114
907.208	18209
907.324	18072
907.441	18015
907.557	17897
907.674	17779
907.79	17695
907.907	17764
908.023	17863
908.139	17840
908.256	17695
908.372	17756
908.488	17608
908.604	17566
908.72	17474
908.836	17562
908.952	17532
909.068	17608
909.184	17623
909.3	17528
909.415	17493
909.531	17528
909.647	17292
909.762	17109
909.878	17136
909.993	17265
910.108	17109
910.224	17105
910.339	17197
910.454	17033
910.57	17094
910.685	16938
910.8	17147
910.915	17086
911.03	17064
911.145	16927
911.259	16824
911.374	16740
911.489	16733
911.604	16710
911.718	16550
911.833	16493
911.947	16489
912.062	16428
912.176	16580
912.291	16618
912.405	16542
912.519	16698
912.633	16782
912.748	16550
912.862	16443
912.976	16318
913.09	16306
913.204	16310
913.318	16314
913.431	16413
913.545	16360
913.659	16538
913.772	16299
913.886	16162
914	16101
914.113	16272
914.226	16249
914.34	16204
914.453	15991
914.566	16143
914.68	16013
914.793	16002
914.906	15823
915.019	15690
915.132	15660
915.245	15724
915.358	15781
915.47	15724
915.583	15755
915.696	15629
915.809	15804
915.921	15823
916.034	15606
916.146	15648
916.259	15542
916.371	15701
916.483	15732
916.595	15564
916.708	15561
916.82	15450
916.932	15382
917.044	15481
917.156	15397
917.268	15336
917.38	15405
917.491	15313
917.603	15279
917.715	15340
917.826	15485
917.938	15226
918.049	15230
918.161	15317
918.272	15450
918.384	15412
918.495	15203
918.606	15112
918.717	15017
918.828	15135
918.939	15123
919.05	14941
919.161	15081
919.272	14815
919.383	14967
919.494	15020
919.604	15332
919.715	15119
919.826	14952
919.936	14982
920.047	15161
920.157	15013
920.267	15272
920.378	15123
920.488	15032
920.598	15138
920.708	15279
920.818	15154
920.928	15199
921.038	15332
921.148	15374
921.258	14899
921.368	14902
921.477	14826
921.587	14765
921.697	14663
921.806	14823
921.916	14583
922.025	14488
922.134	14400
922.244	14389
922.353	14446
922.462	14324
922.571	14233
922.68	14138
922.789	14081
922.898	14016
923.007	13959
923.116	14084
923.224	14069
923.333	14020
923.442	13887
923.55	13955
923.659	13917
923.767	13967
923.876	13841
923.984	13871
924.092	13791
924.201	13830
924.309	13788
924.417	13772
924.525	13685
924.633	13757
924.741	14537
924.849	13525
924.956	13620
925.064	13476
925.172	13430
925.279	13327
925.387	13438
925.494	13426
925.602	13552
925.709	13480
925.816	13377
925.924	13411
926.031	13559
926.138	13365
926.245	13331
926.352	13255
926.459	13419
926.566	13445
926.673	13304
926.779	13236
926.886	13251
926.993	13099
927.099	12901
927.206	12981
927.312	12989
927.419	13008
927.525	13012
927.631	13061
927.737	12954
927.843	12787
927.95	12753
928.056	12867
928.162	12890
928.267	12916
928.373	13464
928.479	12970
928.585	12692
928.69	12802
928.796	12821
928.901	12703
929.007	12525
929.112	12601
929.218	12578
929.323	12639
929.428	12536
929.533	12768
929.638	12544
929.743	12506
929.848	12597
929.953	12483
930.058	12353
930.163	12262
930.267	12224
930.372	12380
930.477	12270
930.581	12384
930.685	12327
930.79	12163
930.894	12095
930.998	12068
931.103	12281
931.207	11851
931.311	11809
931.415	11718
931.519	11493
931.623	11471
