Data from test_V78500241_2286.txt Node
Date: Fri Mar 25 15:57:38 CST 2022
User: usil
Spectrometer: V785-0024
Trigger mode: 0
Integration Time (sec): 4.000000E-1
Scans to average: 1
Nonlinearity correction enabled: false
Boxcar width: 0
Storing dark spectrum: false
XAxis mode: Wavelengths
Number of Pixels in Spectrum: 1024
>>>>>Begin Spectral Data<<<<<
801.071	28927
801.214	28744
801.356	28596
801.499	28504
801.641	28478
801.783	28519
801.926	28401
802.068	28451
802.211	28382
802.353	28363
802.496	28329
802.638	28086
802.78	28188
802.923	28067
803.065	28116
803.208	28078
803.35	28147
803.492	28268
803.635	28303
803.777	28246
803.919	28493
804.061	28599
804.204	28523
804.346	28363
804.488	28200
804.63	28455
804.773	28348
804.915	28371
805.057	28569
805.199	28337
805.341	28531
805.483	28626
805.626	28504
805.768	28424
805.91	28615
806.052	28664
806.194	28493
806.336	28790
806.478	28653
806.62	28535
806.762	28653
806.904	28752
807.046	29109
807.188	29064
807.33	28923
807.472	29105
807.614	29014
807.756	28961
807.898	28839
808.04	28877
808.182	28854
808.324	28904
808.465	28869
808.607	29261
808.749	29250
808.891	29429
809.033	29516
809.174	29288
809.316	29204
809.458	29200
809.6	29254
809.741	29436
809.883	29360
810.025	29573
810.166	29486
810.308	29615
810.45	29474
810.591	29531
810.733	29235
810.875	29356
811.016	29121
811.158	29181
811.299	29334
811.441	29356
811.582	29410
811.724	29414
811.865	29159
812.007	29246
812.148	29296
812.29	29280
812.431	29448
812.573	29615
812.714	29642
812.855	29691
812.997	29870
813.138	29954
813.279	29984
813.421	29946
813.562	29630
813.703	29634
813.845	29528
813.986	29143
814.127	29143
814.268	28968
814.41	28957
814.551	29067
814.692	29010
814.833	28858
814.974	28850
815.115	28900
815.256	28892
815.397	28850
815.539	28831
815.68	28805
815.821	28596
815.962	28759
816.103	28885
816.244	28736
816.385	28683
816.526	28447
816.666	28459
816.807	28451
816.948	28451
817.089	28436
817.23	28238
817.371	28363
817.512	28318
817.653	28276
817.793	28230
817.934	28242
818.075	28287
818.216	28367
818.356	28291
818.497	28112
818.638	28040
818.778	28025
818.919	28139
819.06	28177
819.2	28249
819.341	28295
819.481	28318
819.622	28428
819.762	28630
819.903	28588
820.043	28535
820.184	28573
820.324	28455
820.465	28481
820.605	28508
820.746	28497
820.886	28394
821.026	28432
821.167	28375
821.307	28557
821.447	28432
821.588	28147
821.728	28226
821.868	27945
822.008	27918
822.149	27838
822.289	27857
822.429	27466
822.569	27538
822.709	27412
822.849	27241
822.99	27355
823.13	27378
823.27	27306
823.41	27169
823.55	27024
823.69	27184
823.83	27161
823.97	27028
824.11	26975
824.25	26876
824.389	27066
824.529	27085
824.669	26990
824.809	27070
824.949	27017
825.089	26952
825.228	27085
825.368	26902
825.508	26868
825.648	26861
825.787	26887
825.927	26868
826.067	26899
826.206	26819
826.346	26956
826.485	26887
826.625	26842
826.765	26899
826.904	26929
827.044	26636
827.183	26621
827.323	26518
827.462	26670
827.601	26693
827.741	26575
827.88	26648
828.02	26518
828.159	26511
828.298	26575
828.437	26495
828.577	26575
828.716	26541
828.855	26476
828.994	26301
829.134	26282
829.273	26366
829.412	26122
829.551	26195
829.69	26225
829.829	26244
829.968	26263
830.107	26305
830.246	26309
830.385	26115
830.524	26286
830.663	25986
830.802	25993
830.941	25833
831.08	25879
831.219	25997
831.357	26008
831.496	26035
831.635	25852
831.774	25932
831.913	25780
832.051	25643
832.19	25662
832.329	25655
832.467	25525
832.606	25502
832.744	25350
832.883	25464
833.022	25407
833.16	25441
833.299	25537
833.437	25521
833.576	25578
833.714	25601
833.852	25655
833.991	25609
834.129	25677
834.267	25677
834.406	25674
834.544	25647
834.682	25540
834.821	25502
834.959	25753
835.097	25415
835.235	25635
835.373	25571
835.511	25438
835.65	25369
835.788	25479
835.926	25240
836.064	25217
836.202	25312
836.34	25540
836.478	25620
836.615	25285
836.753	25343
836.891	25559
837.029	25354
837.167	25282
837.305	25320
837.443	25259
837.58	25133
837.718	25327
837.856	25301
837.993	25297
838.131	25202
838.269	25198
838.406	25145
838.544	25012
838.681	24844
838.819	24764
838.956	24749
839.094	24681
839.231	24677
839.369	24886
839.506	25206
839.643	25065
839.781	24726
839.918	24654
840.055	24738
840.193	24669
840.33	24570
840.467	24658
840.604	24764
840.742	24837
840.879	24456
841.016	24555
841.153	24547
841.29	24779
841.427	24601
841.564	24696
841.701	24464
841.838	24540
841.975	24467
842.112	24517
842.249	24330
842.385	24330
842.522	24589
842.659	24319
842.796	24209
842.933	24460
843.069	24304
843.206	24334
843.343	24372
843.479	24304
843.616	24376
843.752	24098
843.889	24133
844.025	24372
844.162	24003
844.298	24209
844.435	23977
844.571	24155
844.708	24273
844.844	24167
844.98	24182
845.117	24224
845.253	23897
845.389	24064
845.525	23977
845.661	23954
845.798	23843
845.934	23988
846.07	23840
846.206	23836
846.342	23897
846.478	23859
846.614	23726
846.75	23501
846.886	23596
847.022	23596
847.158	23520
847.294	23501
847.429	23649
847.565	23646
847.701	23805
847.837	23337
847.972	23387
848.108	23372
848.244	23391
848.379	23140
848.515	23140
848.65	23117
848.786	23227
848.921	23280
849.057	23284
849.192	23277
849.328	23162
849.463	23090
849.598	23151
849.734	22881
849.869	23067
850.004	22942
850.14	22980
850.275	22991
850.41	22862
850.545	22843
850.68	23010
850.815	22881
850.95	22930
851.085	22980
851.22	23067
851.355	22927
851.49	22816
851.625	22949
851.76	22831
851.895	22881
852.03	22866
852.165	22900
852.299	22942
852.434	22923
852.569	22919
852.703	22999
852.838	22934
852.973	23022
853.107	23037
853.242	22824
853.376	22637
853.511	22565
853.645	22672
853.78	22847
853.914	22706
854.048	22748
854.183	22767
854.317	22660
854.451	22957
854.585	22816
854.72	22866
854.854	22755
854.988	22809
855.122	22729
855.256	22561
855.39	22637
855.524	22862
855.658	22733
855.792	22771
855.926	22637
856.06	22767
856.194	22752
856.327	22740
856.461	22656
856.595	22599
856.729	22698
856.862	22812
856.996	22675
857.13	22877
857.263	22774
857.397	22915
857.53	22557
857.664	22740
857.797	22702
857.931	22953
858.064	22717
858.197	22812
858.331	22816
858.464	22664
858.597	22550
858.731	22790
858.864	22668
858.997	22782
859.13	22748
859.263	22717
859.396	22778
859.529	22694
859.662	22668
859.795	22752
859.928	22771
860.061	22957
860.194	22991
860.327	22850
860.46	22793
860.592	22904
860.725	22820
860.858	22885
860.99	22744
861.123	22618
861.256	22550
861.388	22660
861.521	23421
861.653	22596
861.786	22493
861.918	22641
862.05	22565
862.183	22569
862.315	22729
862.447	22782
862.58	22653
862.712	22462
862.844	22394
862.976	22409
863.108	22519
863.24	22889
863.372	22382
863.504	22459
863.636	22363
863.768	22440
863.9	22398
864.032	22348
864.164	22371
864.296	22470
864.428	22588
864.559	22470
864.691	22367
864.823	22466
864.954	22371
865.086	22402
865.217	22303
865.349	22226
865.48	22284
865.612	22272
865.743	22363
865.875	22402
866.006	22405
866.137	22299
866.269	22276
866.4	22276
866.531	22375
866.662	22230
866.793	22238
866.924	22249
867.055	22234
867.186	22242
867.317	22166
867.448	22147
867.579	22276
867.71	22135
867.841	22112
867.972	22329
868.103	22268
868.233	22215
868.364	22215
868.495	22303
868.625	22421
868.756	22630
868.886	22348
869.017	22436
869.147	22588
869.278	22577
869.408	22436
869.539	22451
869.669	22508
869.799	22428
869.929	22565
870.06	22653
870.19	22748
870.32	22702
870.45	22694
870.58	22877
870.71	22995
870.84	22866
870.97	22873
871.1	22816
871.23	22980
871.36	23155
871.489	22911
871.619	23067
871.749	23094
871.879	22980
872.008	23269
872.138	23151
872.267	23037
872.397	22972
872.526	22881
872.656	22900
872.785	22866
872.915	23102
873.044	23174
873.173	23113
873.303	23079
873.432	23098
873.561	23189
873.69	23098
873.819	23174
873.948	23246
874.077	23075
874.206	23094
874.335	23071
874.464	23239
874.593	23288
874.722	23311
874.851	23376
874.979	23258
875.108	23311
875.237	23258
875.365	23090
875.494	23284
875.623	23334
875.751	23337
875.88	23307
876.008	23459
876.136	23452
876.265	23676
876.393	23703
876.521	23752
876.65	23855
876.778	23718
876.906	23684
877.034	23630
877.162	23524
877.29	23539
877.418	23471
877.546	23741
877.674	23691
877.802	23657
877.93	23490
878.058	23501
878.185	23497
878.313	23531
878.441	23512
878.568	23436
878.696	23463
878.824	23608
878.951	23703
879.079	23764
879.206	23718
879.333	23703
879.461	23630
879.588	23707
879.715	23878
879.842	23847
879.97	23703
880.097	23497
880.224	23410
880.351	23512
880.478	23444
880.605	23455
880.732	23421
880.859	23691
880.986	23353
881.112	23387
881.239	23353
881.366	23246
881.493	23124
881.619	22942
881.746	23124
881.872	22991
881.999	23060
882.125	22968
882.252	22968
882.378	22847
882.505	22892
882.631	22831
882.757	22774
882.883	22755
883.01	22744
883.136	22637
883.262	22516
883.388	22504
883.514	22752
883.64	22672
883.766	22577
883.892	22413
884.018	22462
884.143	22607
884.269	22812
884.395	22344
884.52	22348
884.646	22253
884.772	22303
884.897	22166
885.023	22325
885.148	22367
885.274	22402
885.399	22424
885.524	22341
885.65	22268
885.775	22356
885.9	22284
886.025	22451
886.15	22455
886.275	22363
886.4	22150
886.525	22200
886.65	22207
886.775	22295
886.9	22459
887.025	22542
887.149	22192
887.274	22192
887.399	22128
887.523	22143
887.648	22013
887.773	21918
887.897	22078
888.021	22116
888.146	22029
888.27	22112
888.395	22093
888.519	22124
888.643	22048
888.767	22128
888.891	21915
889.015	21960
889.139	21941
889.263	21812
889.387	21880
889.511	22067
889.635	21918
889.759	21865
889.883	21915
890.006	21941
890.13	21945
890.254	21759
890.377	21679
890.501	21530
890.624	21526
890.748	21526
890.871	21450
890.995	21397
891.118	21348
891.241	21488
891.364	21306
891.488	21363
891.611	21466
891.734	21367
891.857	21424
891.98	21431
892.103	21389
892.226	21435
892.349	21287
892.471	21245
892.594	21287
892.717	21291
892.839	21241
892.962	21207
893.085	21321
893.207	21363
893.33	21279
893.452	21203
893.575	21268
893.697	21199
893.819	21420
893.941	21462
894.064	21420
894.186	21359
894.308	21157
894.43	21443
894.552	21412
894.674	21416
894.796	21256
894.918	21226
895.04	21233
895.161	21279
895.283	21294
895.405	21127
895.526	21344
895.648	21203
895.769	21237
895.891	21184
896.012	21226
896.134	21325
896.255	21291
896.376	21272
896.498	21294
896.619	21264
896.74	21272
896.861	21359
896.982	21701
897.103	21701
897.224	21523
897.345	21408
897.466	21462
897.587	21389
897.708	21523
897.828	21500
897.949	21500
898.07	21264
898.19	21412
898.311	21435
898.431	21302
898.552	21576
898.672	21519
898.792	21500
898.913	21515
899.033	21321
899.153	21298
899.273	21188
899.393	21199
899.513	21218
899.633	21218
899.753	21222
899.873	21039
899.993	21184
900.113	21142
900.232	21100
900.352	21077
900.472	20990
900.591	20948
900.711	20895
900.83	20967
900.95	21028
901.069	21032
901.189	20800
901.308	20632
901.427	20419
901.546	20469
901.665	20408
901.784	20514
901.904	20412
902.023	20301
902.141	20191
902.26	20096
902.379	20039
902.498	20153
902.617	19864
902.735	20020
902.854	19959
902.973	19928
903.091	19795
903.21	19662
903.328	19750
903.446	19537
903.565	19468
903.683	19502
903.801	19240
903.919	19491
904.038	19293
904.156	19255
904.274	19312
904.392	19304
904.51	19148
904.627	19187
904.745	19171
904.863	19179
904.981	19072
905.098	18913
905.216	18856
905.334	18958
905.451	18928
905.569	18726
905.686	18913
905.803	18856
905.921	18730
906.038	18738
906.155	18684
906.272	18593
906.389	18616
906.506	18467
906.623	18410
906.74	18467
906.857	18186
906.974	18350
907.091	18460
907.208	18509
907.324	18475
907.441	18247
907.557	18228
907.674	18079
907.79	17950
907.907	18022
908.023	18117
908.139	18148
908.256	18133
908.372	18038
908.488	17950
908.604	17855
908.72	17790
908.836	17923
908.952	17741
909.068	17813
909.184	17927
909.3	17832
909.415	17767
909.531	17786
909.647	17471
909.762	17592
909.878	17497
909.993	17482
910.108	17486
910.224	17376
910.339	17471
910.454	17353
910.57	17296
910.685	17227
910.8	17459
910.915	17379
911.03	17239
911.145	17143
911.259	17143
911.374	17022
911.489	16980
911.604	17037
911.718	16839
911.833	16847
911.947	16797
912.062	16729
912.176	16896
912.291	16866
912.405	16873
912.519	17033
912.633	17052
912.748	16824
912.862	16847
912.976	16664
913.09	16596
913.204	16573
913.318	16656
913.431	16809
913.545	16664
913.659	16710
913.772	16497
913.886	16478
914	16356
914.113	16516
914.226	16428
914.34	16424
914.453	16257
914.566	16451
914.68	16280
914.793	16295
914.906	16025
915.019	15956
915.132	15899
915.245	16040
915.358	16128
915.47	15953
915.583	16032
915.696	15930
915.809	16101
915.921	16025
916.034	15911
916.146	15960
916.259	15888
916.371	16051
916.483	15968
916.595	15846
916.708	15762
916.82	15895
916.932	15819
917.044	15739
917.156	15682
917.268	15584
917.38	15629
917.491	15637
917.603	15682
917.715	15648
917.826	15633
917.938	15542
918.049	15458
918.161	15629
918.272	15732
918.384	15679
918.495	15526
918.606	15443
918.717	15275
918.828	15408
918.939	15374
919.05	15260
919.161	15226
919.272	15097
919.383	15245
919.494	15332
919.604	15629
919.715	15408
919.826	15287
919.936	15412
920.047	15420
920.157	15306
920.267	15580
920.378	15332
920.488	15275
920.598	15473
920.708	15557
920.818	15462
920.928	15332
921.038	15629
921.148	15450
921.258	15192
921.368	15176
921.477	14914
921.587	15017
921.697	14842
921.806	15043
921.916	14929
922.025	14788
922.134	14735
922.244	14667
922.353	14689
922.462	14526
922.571	14545
922.68	14446
922.789	14377
922.898	14263
923.007	14191
923.116	14301
923.224	14278
923.333	14305
923.442	14195
923.55	14142
923.659	14153
923.767	14191
923.876	14092
923.984	14126
924.092	13955
924.201	14020
924.309	14027
924.417	14012
924.525	13909
924.633	13936
924.741	14842
924.849	13746
924.956	13909
925.064	13677
925.172	13636
925.279	13700
925.387	13693
925.494	13708
925.602	13708
925.709	13712
925.816	13521
925.924	13559
926.031	13670
926.138	13620
926.245	13700
926.352	13537
926.459	13651
926.566	13605
926.673	13563
926.779	13468
926.886	13339
926.993	13327
927.099	13274
927.206	13171
927.312	13129
927.419	13247
927.525	13198
927.631	13236
927.737	13137
927.843	13000
927.95	12973
928.056	12993
928.162	13050
928.267	13076
928.373	13662
928.479	13046
928.585	13000
928.69	12875
928.796	12996
928.901	12890
929.007	12749
929.112	12859
929.218	12802
929.323	12791
929.428	12692
929.533	12932
929.638	12665
929.743	12696
929.848	12776
929.953	12639
930.058	12547
930.163	12369
930.267	12365
930.372	12525
930.477	12346
930.581	12608
930.685	12433
930.79	12300
930.894	12334
930.998	12251
931.103	12407
931.207	12011
931.311	11920
931.415	11843
931.519	11623
931.623	11627
