Data from test_V78500241_3198.txt Node
Date: Fri Mar 25 16:03:57 CST 2022
User: usil
Spectrometer: V785-0024
Trigger mode: 0
Integration Time (sec): 4.000000E-1
Scans to average: 1
Nonlinearity correction enabled: false
Boxcar width: 0
Storing dark spectrum: false
XAxis mode: Wavelengths
Number of Pixels in Spectrum: 1024
>>>>>Begin Spectral Data<<<<<
801.071	28649
801.214	28573
801.356	28421
801.499	28341
801.641	28295
801.783	28242
801.926	28318
802.068	28306
802.211	28116
802.353	28063
802.496	27956
802.638	27892
802.78	27991
802.923	27819
803.065	27736
803.208	27720
803.35	27949
803.492	28006
803.635	28116
803.777	28101
803.919	28192
804.061	28341
804.204	28162
804.346	27960
804.488	28162
804.63	28215
804.773	28067
804.915	28135
805.057	28097
805.199	28082
805.341	28261
805.483	28401
805.626	28337
805.768	28246
805.91	28268
806.052	28352
806.194	28242
806.336	28341
806.478	28287
806.62	28310
806.762	28310
806.904	28744
807.046	28717
807.188	28736
807.33	28858
807.472	28858
807.614	28736
807.756	28592
807.898	28592
808.04	28489
808.182	28531
808.324	28683
808.465	28729
808.607	28790
808.749	29044
808.891	29102
809.033	29159
809.174	29048
809.316	28919
809.458	28946
809.6	28900
809.741	29029
809.883	29048
810.025	29273
810.166	29391
810.308	29105
810.45	29113
810.591	29109
810.733	29067
810.875	28934
811.016	28972
811.158	28812
811.299	28991
811.441	29250
811.582	29147
811.724	29044
811.865	28980
812.007	29022
812.148	28972
812.29	28934
812.431	29197
812.573	29261
812.714	29600
812.855	29459
812.997	29646
813.138	29733
813.279	29676
813.421	29512
813.562	29387
813.703	29326
813.845	29269
813.986	28911
814.127	28740
814.268	28694
814.41	28618
814.551	28634
814.692	28930
814.833	28607
814.974	28698
815.115	28767
815.256	28519
815.397	28531
815.539	28504
815.68	28546
815.821	28417
815.962	28443
816.103	28531
816.244	28451
816.385	28341
816.526	28192
816.666	28086
816.807	27914
816.948	28021
817.089	28055
817.23	28055
817.371	28025
817.512	28055
817.653	28036
817.793	27953
817.934	28036
818.075	28036
818.216	27991
818.356	27846
818.497	27850
818.638	27682
818.778	27538
818.919	27728
819.06	27816
819.2	27922
819.341	27918
819.481	27987
819.622	28169
819.762	28398
819.903	28314
820.043	28204
820.184	28150
820.324	27914
820.465	28135
820.605	28093
820.746	28185
820.886	27968
821.026	28078
821.167	28059
821.307	28090
821.447	28025
821.588	27960
821.728	27926
821.868	27701
822.008	27534
822.149	27408
822.289	27523
822.429	27188
822.569	27211
822.709	27260
822.849	27032
822.99	27131
823.13	26929
823.27	26895
823.41	26735
823.55	26735
823.69	26887
823.83	26990
823.97	26895
824.11	26701
824.25	26670
824.389	26727
824.529	26708
824.669	26686
824.809	26750
824.949	26769
825.089	26701
825.228	26640
825.368	26590
825.508	26476
825.648	26457
825.787	26621
825.927	26617
826.067	26568
826.206	26556
826.346	26488
826.485	26720
826.625	26609
826.765	26701
826.904	26629
827.044	26313
827.183	26404
827.323	26358
827.462	26336
827.601	26153
827.741	26328
827.88	26282
828.02	26271
828.159	26145
828.298	26358
828.437	26248
828.577	26263
828.716	26221
828.855	26225
828.994	25928
829.134	26054
829.273	25944
829.412	25883
829.551	25864
829.69	25959
829.829	25944
829.968	26138
830.107	26035
830.246	25887
830.385	25906
830.524	25898
830.663	25909
830.802	25818
830.941	25662
831.08	25544
831.219	25666
831.357	25556
831.496	25708
831.635	25681
831.774	25556
831.913	25472
832.051	25476
832.19	25415
832.329	25434
832.467	25118
832.606	25152
832.744	25209
832.883	25221
833.022	25084
833.16	25244
833.299	25430
833.437	25324
833.576	25301
833.714	25168
833.852	25278
833.991	25308
834.129	25464
834.267	25472
834.406	25198
834.544	25449
834.682	25354
834.821	25236
834.959	25362
835.097	25304
835.235	25453
835.373	25255
835.511	25381
835.65	25168
835.788	25027
835.926	25080
836.064	24939
836.202	24795
836.34	25118
836.478	25293
836.615	25076
836.753	25050
836.891	25232
837.029	25069
837.167	24977
837.305	25031
837.443	24985
837.58	25069
837.718	25008
837.856	24920
837.993	24973
838.131	24939
838.269	24722
838.406	24871
838.544	24798
838.681	24582
838.819	24479
838.956	24452
839.094	24471
839.231	24536
839.369	24612
839.506	24753
839.643	24639
839.781	24452
839.918	24266
840.055	24346
840.193	24350
840.33	24369
840.467	24471
840.604	24319
840.742	24597
840.879	24224
841.016	24251
841.153	24216
841.29	24319
841.427	24380
841.564	24372
841.701	24213
841.838	24197
841.975	24201
842.112	24129
842.249	24125
842.385	24030
842.522	24273
842.659	24140
842.796	24087
842.933	24186
843.069	24018
843.206	23969
843.343	24095
843.479	24133
843.616	24072
843.752	23866
843.889	23935
844.025	23764
844.162	23866
844.298	23912
844.435	23870
844.571	23726
844.708	23893
844.844	23901
844.98	24045
845.117	23874
845.253	23752
845.389	23714
845.525	23566
845.661	23741
845.798	23642
845.934	23699
846.07	23539
846.206	23493
846.342	23783
846.478	23478
846.614	23391
846.75	23265
846.886	23315
847.022	23231
847.158	23395
847.294	23284
847.429	23463
847.565	23208
847.701	23630
847.837	23102
847.972	22999
848.108	23105
848.244	23136
848.379	22995
848.515	22938
848.65	22797
848.786	22942
848.921	22866
849.057	22965
849.192	22961
849.328	23022
849.463	22919
849.598	22831
849.734	22911
849.869	22774
850.004	22797
850.14	22634
850.275	22809
850.41	22493
850.545	22607
850.68	22645
850.815	22683
850.95	22596
851.085	22748
851.22	22812
851.355	22687
851.49	22554
851.625	22466
851.76	22672
851.895	22641
852.03	22554
852.165	22580
852.299	22653
852.434	22759
852.569	22660
852.703	22748
852.838	22793
852.973	22596
853.107	22771
853.242	22679
853.376	22531
853.511	22451
853.645	22538
853.78	22573
853.914	22462
854.048	22436
854.183	22489
854.317	22512
854.451	22869
854.585	22428
854.72	22443
854.854	22519
854.988	22443
855.122	22413
855.256	22443
855.39	22432
855.524	22485
855.658	22557
855.792	22443
855.926	22459
856.06	22504
856.194	22744
856.327	22432
856.461	22413
856.595	22382
856.729	22447
856.862	22554
856.996	22531
857.13	22523
857.263	22596
857.397	22512
857.53	22512
857.664	22596
857.797	22584
857.931	22656
858.064	22440
858.197	22554
858.331	22451
858.464	22557
858.597	22375
858.731	22421
858.864	22409
858.997	22485
859.13	22535
859.263	22557
859.396	22459
859.529	22497
859.662	22470
859.795	22352
859.928	22519
860.061	22592
860.194	22588
860.327	22626
860.46	22504
860.592	22611
860.725	22478
860.858	22615
860.99	22481
861.123	22356
861.256	22291
861.388	22394
861.521	23174
861.653	22341
861.786	22242
861.918	22409
862.05	22314
862.183	22386
862.315	22497
862.447	22478
862.58	22344
862.712	22204
862.844	22131
862.976	22318
863.108	22303
863.24	22656
863.372	22147
863.504	22226
863.636	22188
863.768	22280
863.9	22192
864.032	22090
864.164	22154
864.296	22295
864.428	22280
864.559	22310
864.691	22226
864.823	22226
864.954	22013
865.086	22192
865.217	22200
865.349	21991
865.48	22059
865.612	22143
865.743	22223
865.875	22101
866.006	22086
866.137	22078
866.269	21964
866.4	22158
866.531	21998
866.662	21899
866.793	22040
866.924	21975
867.055	22063
867.186	22021
867.317	21964
867.448	21915
867.579	21926
867.71	21956
867.841	21926
867.972	22002
868.103	22017
868.233	21934
868.364	21998
868.495	22143
868.625	22280
868.756	22215
868.886	22181
869.017	22268
869.147	22318
869.278	22325
869.408	22150
869.539	22135
869.669	22363
869.799	22295
869.929	22322
870.06	22443
870.19	22462
870.32	22508
870.45	22561
870.58	22584
870.71	22645
870.84	22733
870.97	22516
871.1	22649
871.23	22839
871.36	22793
871.489	22687
871.619	22786
871.749	22839
871.879	22858
872.008	22961
872.138	22755
872.267	22873
872.397	22687
872.526	22672
872.656	22588
872.785	22645
872.915	22824
873.044	22976
873.173	22946
873.303	22938
873.432	22858
873.561	22965
873.69	22866
873.819	22809
873.948	22881
874.077	22968
874.206	22854
874.335	22927
874.464	22980
874.593	23041
874.722	23098
874.851	23102
874.979	23159
875.108	23136
875.237	23083
875.365	23006
875.494	23079
875.623	23170
875.751	23113
875.88	23014
876.008	23166
876.136	23239
876.265	23471
876.393	23535
876.521	23547
876.65	23619
876.778	23490
876.906	23425
877.034	23398
877.162	23356
877.29	23372
877.418	23379
877.546	23410
877.674	23490
877.802	23277
877.93	23467
878.058	23223
878.185	23341
878.313	23459
878.441	23387
878.568	23242
878.696	23379
878.824	23402
878.951	23425
879.079	23596
879.206	23676
879.333	23604
879.461	23512
879.588	23611
879.715	23471
879.842	23501
879.97	23535
880.097	23155
880.224	23124
880.351	23284
880.478	23162
880.605	23277
880.732	23109
880.859	23528
880.986	23140
881.112	23216
881.239	23151
881.366	22908
881.493	22896
881.619	22831
881.746	22805
881.872	22816
881.999	22824
882.125	22675
882.252	22858
882.378	22729
882.505	22831
882.631	22599
882.757	22538
882.883	22519
883.01	22565
883.136	22421
883.262	22333
883.388	22284
883.514	22432
883.64	22615
883.766	22367
883.892	22177
884.018	22306
884.143	22394
884.269	22409
884.395	22223
884.52	22101
884.646	22059
884.772	22002
884.897	22078
885.023	22120
885.148	22188
885.274	22268
885.399	22337
885.524	22010
885.65	22021
885.775	22166
885.9	22147
886.025	22139
886.15	22143
886.275	21972
886.4	22032
886.525	21983
886.65	22010
886.775	22048
886.9	22120
887.025	22188
887.149	21899
887.274	21983
887.399	21895
887.523	21831
887.648	21663
887.773	21937
887.897	22002
888.021	21953
888.146	21766
888.27	22010
888.395	21804
888.519	21922
888.643	21918
888.767	21823
888.891	21808
889.015	21667
889.139	21698
889.263	21610
889.387	21827
889.511	21846
889.635	21663
889.759	21591
889.883	21648
890.006	21701
890.13	21816
890.254	21523
890.377	21618
890.501	21447
890.624	21298
890.748	21435
890.871	21272
890.995	21161
891.118	21108
891.241	21218
891.364	21252
891.488	21389
891.611	21241
891.734	21214
891.857	21317
891.98	21199
892.103	21195
892.226	21119
892.349	21226
892.471	20899
892.594	21131
892.717	21085
892.839	21093
892.962	21020
893.085	21157
893.207	21093
893.33	20925
893.452	20937
893.575	21188
893.697	20998
893.819	21260
893.941	21287
894.064	21275
894.186	21001
894.308	20960
894.43	21203
894.552	21245
894.674	21169
894.796	21020
894.918	21051
895.04	20952
895.161	21077
895.283	21081
895.405	21051
895.526	21005
895.648	21062
895.769	21123
895.891	21062
896.012	21070
896.134	21051
896.255	21131
896.376	21043
896.498	21028
896.619	21100
896.74	21089
896.861	21116
896.982	21313
897.103	21564
897.224	21386
897.345	21245
897.466	21237
897.587	21313
897.708	21443
897.828	21241
897.949	21176
898.07	21047
898.19	21313
898.311	21340
898.431	21135
898.552	21226
898.672	21214
898.792	21230
898.913	21321
899.033	21161
899.153	21039
899.273	20902
899.393	20998
899.513	21032
899.633	21009
899.753	20921
899.873	20960
899.993	21020
900.113	20864
900.232	21001
900.352	20979
900.472	20739
900.591	20720
900.711	20735
900.83	20651
900.95	20868
901.069	20918
901.189	20648
901.308	20450
901.427	20199
901.546	20317
901.665	20374
901.784	20294
901.904	20210
902.023	19993
902.141	19902
902.26	19944
902.379	19890
902.498	19826
902.617	19765
902.735	19917
902.854	19822
902.973	19708
903.091	19540
903.21	19559
903.328	19407
903.446	19422
903.565	19274
903.683	19255
903.801	19152
903.919	19187
904.038	19358
904.156	18966
904.274	19046
904.392	18954
904.51	19008
904.627	19061
904.745	19012
904.863	19122
904.981	18859
905.098	18722
905.216	18825
905.334	18741
905.451	18863
905.569	18593
905.686	18776
905.803	18745
905.921	18494
906.038	18513
906.155	18601
906.272	18365
906.389	18464
906.506	18224
906.623	18251
906.74	18194
906.857	18186
906.974	18224
907.091	18372
907.208	18270
907.324	18232
907.441	18167
907.557	17973
907.674	17996
907.79	17874
907.907	17950
908.023	17980
908.139	18060
908.256	17821
908.372	17931
908.488	17855
908.604	17752
908.72	17661
908.836	17684
908.952	17608
909.068	17665
909.184	17729
909.3	17661
909.415	17722
909.531	17668
909.647	17368
909.762	17376
909.878	17372
909.993	17345
910.108	17216
910.224	17349
910.339	17315
910.454	17246
910.57	17208
910.685	17113
910.8	17265
910.915	17269
911.03	17174
911.145	16991
911.259	16987
911.374	16938
911.489	16771
911.604	16812
911.718	16710
911.833	16763
911.947	16641
912.062	16542
912.176	16713
912.291	16721
912.405	16584
912.519	16900
912.633	16835
912.748	16702
912.862	16634
912.976	16470
913.09	16394
913.204	16485
913.318	16519
913.431	16523
913.545	16538
913.659	16672
913.772	16379
913.886	16257
914	16303
914.113	16375
914.226	16333
914.34	16280
914.453	16169
914.566	16257
914.68	16067
914.793	16082
914.906	15861
915.019	15819
915.132	15766
915.245	15842
915.358	15899
915.47	15880
915.583	15873
915.696	15747
915.809	15857
915.921	15953
916.034	15892
916.146	15705
916.259	15739
916.371	15766
916.483	15698
916.595	15755
916.708	15743
916.82	15728
916.932	15675
917.044	15724
917.156	15500
917.268	15519
917.38	15477
917.491	15340
917.603	15507
917.715	15504
917.826	15622
917.938	15397
918.049	15351
918.161	15447
918.272	15561
918.384	15466
918.495	15386
918.606	15325
918.717	15127
918.828	15268
918.939	15222
919.05	15165
919.161	15116
919.272	15066
919.383	15093
919.494	15249
919.604	15401
919.715	15237
919.826	15039
919.936	15226
920.047	15173
920.157	15214
920.267	15310
920.378	15230
920.488	15142
920.598	15325
920.708	15477
920.818	15252
920.928	15378
921.038	15458
921.148	15454
921.258	15161
921.368	15017
921.477	14845
921.587	14845
921.697	14777
921.806	14929
921.916	14629
922.025	14629
922.134	14518
922.244	14469
922.353	14575
922.462	14366
922.571	14396
922.68	14271
922.789	14183
922.898	14180
923.007	14119
923.116	14233
923.224	14103
923.333	14119
923.442	14084
923.55	14001
923.659	14027
923.767	14115
923.876	13906
923.984	13982
924.092	13791
924.201	13925
924.309	13845
924.417	13837
924.525	13776
924.633	13860
924.741	14613
924.849	13559
924.956	13795
925.064	13636
925.172	13518
925.279	13605
925.387	13548
925.494	13544
925.602	13719
925.709	13552
925.816	13400
925.924	13518
926.031	13559
926.138	13464
926.245	13483
926.352	13358
926.459	13472
926.566	13529
926.673	13453
926.779	13312
926.886	13301
926.993	13137
927.099	13133
927.206	13080
927.312	13012
927.419	13175
927.525	13160
927.631	13027
927.737	12970
927.843	12924
927.95	12741
928.056	12890
928.162	12962
928.267	12970
928.373	13453
928.479	12958
928.585	12623
928.69	12810
928.796	12886
928.901	12757
929.007	12677
929.112	12734
929.218	12669
929.323	12662
929.428	12642
929.533	12768
929.638	12506
929.743	12509
929.848	12578
929.953	12563
930.058	12513
930.163	12262
930.267	12327
930.372	12437
930.477	12235
930.581	12536
930.685	12304
930.79	12087
930.894	12114
930.998	12148
931.103	12330
931.207	11882
931.311	11874
931.415	11737
931.519	11596
931.623	11444
