Data from test_V78500241_2881.txt Node
Date: Fri Mar 25 16:01:45 CST 2022
User: usil
Spectrometer: V785-0024
Trigger mode: 0
Integration Time (sec): 4.000000E-1
Scans to average: 1
Nonlinearity correction enabled: false
Boxcar width: 0
Storing dark spectrum: false
XAxis mode: Wavelengths
Number of Pixels in Spectrum: 1024
>>>>>Begin Spectral Data<<<<<
801.071	28596
801.214	28474
801.356	28192
801.499	28287
801.641	28318
801.783	28143
801.926	28093
802.068	28059
802.211	28036
802.353	28010
802.496	27679
802.638	27793
802.78	27865
802.923	27785
803.065	27690
803.208	27705
803.35	27770
803.492	27983
803.635	28010
803.777	27854
803.919	28051
804.061	28421
804.204	28097
804.346	27895
804.488	27956
804.63	28017
804.773	28025
804.915	27964
805.057	28070
805.199	28013
805.341	28105
805.483	28143
805.626	28200
805.768	28093
805.91	28128
806.052	28109
806.194	28131
806.336	28497
806.478	28135
806.62	28223
806.762	28371
806.904	28451
807.046	28584
807.188	28649
807.33	28752
807.472	28698
807.614	28611
807.756	28531
807.898	28588
808.04	28603
808.182	28451
808.324	28519
808.465	28592
808.607	28725
808.749	28911
808.891	28888
809.033	29105
809.174	28919
809.316	28869
809.458	28809
809.6	28812
809.741	28972
809.883	29022
810.025	29155
810.166	29208
810.308	29109
810.45	29162
810.591	28965
810.733	28908
810.875	28991
811.016	28767
811.158	28774
811.299	28927
811.441	29033
811.582	28911
811.724	28957
811.865	28900
812.007	28911
812.148	28835
812.29	29010
812.431	29193
812.573	29166
812.714	29318
812.855	29330
812.997	29528
813.138	29566
813.279	29520
813.421	29375
813.562	29311
813.703	29147
813.845	29189
813.986	28923
814.127	28767
814.268	28618
814.41	28675
814.551	28550
814.692	28675
814.833	28535
814.974	28497
815.115	28653
815.256	28508
815.397	28493
815.539	28508
815.68	28466
815.821	28333
815.962	28462
816.103	28417
816.244	28261
816.385	28219
816.526	28226
816.666	27994
816.807	27850
816.948	28006
817.089	28177
817.23	27979
817.371	27888
817.512	27907
817.653	27918
817.793	27964
817.934	27789
818.075	27899
818.216	27930
818.356	27785
818.497	27739
818.638	27724
818.778	27667
818.919	27759
819.06	27762
819.2	27812
819.341	27876
819.481	27880
819.622	28036
819.762	28158
819.903	28124
820.043	28093
820.184	28036
820.324	28040
820.465	28078
820.605	28051
820.746	27945
820.886	27835
821.026	27953
821.167	27949
821.307	28082
821.447	27972
821.588	27949
821.728	27762
821.868	27610
822.008	27287
822.149	27469
822.289	27458
822.429	27154
822.569	27146
822.709	27074
822.849	26982
822.99	26906
823.13	26872
823.27	26796
823.41	26785
823.55	26613
823.69	26731
823.83	26823
823.97	26800
824.11	26602
824.25	26499
824.389	26541
824.529	26457
824.669	26518
824.809	26792
824.949	26609
825.089	26617
825.228	26644
825.368	26377
825.508	26374
825.648	26377
825.787	26434
825.927	26556
826.067	26442
826.206	26358
826.346	26617
826.485	26583
826.625	26453
826.765	26488
826.904	26469
827.044	26180
827.183	26271
827.323	25989
827.462	25989
827.601	26183
827.741	26027
827.88	26138
828.02	25955
828.159	26081
828.298	26172
828.437	26199
828.577	26008
828.716	26084
828.855	26020
828.994	25830
829.134	25814
829.273	25936
829.412	25852
829.551	25765
829.69	25887
829.829	25913
829.968	25887
830.107	25951
830.246	25852
830.385	25803
830.524	25795
830.663	25613
830.802	25506
830.941	25445
831.08	25487
831.219	25529
831.357	25525
831.496	25723
831.635	25578
831.774	25304
831.913	25198
832.051	25221
832.19	25141
832.329	25316
832.467	25031
832.606	25031
832.744	25027
832.883	25183
833.022	25160
833.16	25141
833.299	25107
833.437	25129
833.576	25065
833.714	25171
833.852	25263
833.991	25251
834.129	25240
834.267	25228
834.406	25099
834.544	25183
834.682	25099
834.821	25145
834.959	25422
835.097	25038
835.235	25156
835.373	25156
835.511	25278
835.65	25027
835.788	25012
835.926	24882
836.064	24806
836.202	24848
836.34	25023
836.478	25194
836.615	25000
836.753	24973
836.891	24981
837.029	25008
837.167	24939
837.305	24776
837.443	24817
837.58	24916
837.718	24939
837.856	24795
837.993	24798
838.131	24684
838.269	24650
838.406	24764
838.544	24601
838.681	24521
838.819	24372
838.956	24361
839.094	24277
839.231	24232
839.369	24448
839.506	24665
839.643	24330
839.781	24186
839.918	24114
840.055	24148
840.193	24266
840.33	24235
840.467	24205
840.604	24235
840.742	24418
840.879	24095
841.016	24190
841.153	23999
841.29	24213
841.427	24178
841.564	24171
841.701	24057
841.838	24140
841.975	24095
842.112	24015
842.249	24011
842.385	23870
842.522	24144
842.659	24041
842.796	24022
842.933	23912
843.069	23988
843.206	23901
843.343	23904
843.479	23954
843.616	23939
843.752	23767
843.889	23756
844.025	23889
844.162	23703
844.298	23745
844.435	23684
844.571	23589
844.708	23779
844.844	23988
844.98	23836
845.117	23912
845.253	23627
845.389	23596
845.525	23630
845.661	23596
845.798	23448
845.934	23501
846.07	23383
846.206	23509
846.342	23611
846.478	23455
846.614	23254
846.75	23159
846.886	23071
847.022	23140
847.158	23102
847.294	23242
847.429	23200
847.565	23124
847.701	23395
847.837	22953
847.972	22889
848.108	22987
848.244	22957
848.379	22850
848.515	22774
848.65	22645
848.786	22816
848.921	22634
849.057	22923
849.192	22782
849.328	22774
849.463	22828
849.598	22725
849.734	22641
849.869	22569
850.004	22481
850.14	22584
850.275	22485
850.41	22504
850.545	22508
850.68	22459
850.815	22538
850.95	22481
851.085	22687
851.22	22626
851.355	22535
851.49	22470
851.625	22440
851.76	22577
851.895	22398
852.03	22459
852.165	22569
852.299	22512
852.434	22523
852.569	22523
852.703	22485
852.838	22649
852.973	22527
853.107	22580
853.242	22356
853.376	22398
853.511	22303
853.645	22322
853.78	22303
853.914	22356
854.048	22265
854.183	22200
854.317	22405
854.451	22516
854.585	22478
854.72	22352
854.854	22337
854.988	22276
855.122	22390
855.256	22223
855.39	22299
855.524	22379
855.658	22436
855.792	22287
855.926	22417
856.06	22554
856.194	22382
856.327	22280
856.461	22272
856.595	22261
856.729	22303
856.862	22615
856.996	22440
857.13	22451
857.263	22455
857.397	22459
857.53	22329
857.664	22462
857.797	22375
857.931	22421
858.064	22363
858.197	22504
858.331	22284
858.464	22322
858.597	22204
858.731	22379
858.864	22287
858.997	22185
859.13	22325
859.263	22333
859.396	22436
859.529	22192
859.662	22234
859.795	22325
859.928	22398
860.061	22527
860.194	22440
860.327	22367
860.46	22417
860.592	22436
860.725	22436
860.858	22478
860.99	22314
861.123	22268
861.256	22284
861.388	22360
861.521	22820
861.653	22303
861.786	22090
861.918	22169
862.05	22356
862.183	22295
862.315	22367
862.447	22207
862.58	22261
862.712	22101
862.844	22048
862.976	22204
863.108	22097
863.24	22516
863.372	21899
863.504	22051
863.636	22112
863.768	21960
863.9	22040
864.032	22029
864.164	22025
864.296	22105
864.428	22128
864.559	22215
864.691	22120
864.823	22074
864.954	22021
865.086	21949
865.217	21922
865.349	21743
865.48	21903
865.612	21979
865.743	22032
865.875	21991
866.006	21869
866.137	21964
866.269	22032
866.4	21835
866.531	21797
866.662	21797
866.793	21865
866.924	21842
867.055	21907
867.186	21888
867.317	21781
867.448	21698
867.579	21637
867.71	21766
867.841	21907
867.972	21876
868.103	21850
868.233	21762
868.364	21876
868.495	21937
868.625	22040
868.756	22093
868.886	22093
869.017	22097
869.147	22120
869.278	22276
869.408	22196
869.539	22021
869.669	22211
869.799	22192
869.929	22322
870.06	22181
870.19	22409
870.32	22428
870.45	22519
870.58	22516
870.71	22557
870.84	22588
870.97	22546
871.1	22557
871.23	22755
871.36	22687
871.489	22489
871.619	22611
871.749	22641
871.879	22877
872.008	22850
872.138	22713
872.267	22687
872.397	22421
872.526	22386
872.656	22603
872.785	22607
872.915	22622
873.044	22702
873.173	22733
873.303	22812
873.432	22812
873.561	22908
873.69	22733
873.819	22710
873.948	22839
874.077	22805
874.206	22645
874.335	22630
874.464	22854
874.593	22999
874.722	22892
874.851	22930
874.979	22949
875.108	22946
875.237	22831
875.365	22824
875.494	22854
875.623	22862
875.751	22976
875.88	23044
876.008	23037
876.136	23056
876.265	23463
876.393	23528
876.521	23353
876.65	23376
876.778	23398
876.906	23280
877.034	23330
877.162	23482
877.29	23284
877.418	23303
877.546	23372
877.674	23334
877.802	23379
877.93	23269
878.058	23254
878.185	23109
878.313	23250
878.441	23193
878.568	22938
878.696	23216
878.824	23273
878.951	23341
879.079	23467
879.206	23471
879.333	23531
879.461	23376
879.588	23372
879.715	23337
879.842	23520
879.97	23345
880.097	23162
880.224	23083
880.351	23208
880.478	22987
880.605	22984
880.732	23029
880.859	23406
880.986	23166
881.112	23071
881.239	23006
881.366	22812
881.493	22843
881.619	22698
881.746	22554
881.872	22706
881.999	22729
882.125	22607
882.252	22763
882.378	22622
882.505	22767
882.631	22626
882.757	22261
882.883	22546
883.01	22417
883.136	22242
883.262	22204
883.388	22158
883.514	22386
883.64	22325
883.766	22249
883.892	22158
884.018	22230
884.143	22268
884.269	22394
884.395	21953
884.52	21915
884.646	22006
884.772	21922
884.897	21823
885.023	22021
885.148	22067
885.274	22242
885.399	22078
885.524	22025
885.65	22105
885.775	21930
885.9	21975
886.025	22070
886.15	21972
886.275	21979
886.4	21865
886.525	22063
886.65	21915
886.775	21884
886.9	22055
887.025	22101
887.149	21949
887.274	21717
887.399	21698
887.523	21728
887.648	21660
887.773	21530
887.897	21846
888.021	21854
888.146	21713
888.27	21880
888.395	21808
888.519	21816
888.643	21751
888.767	21675
888.891	21641
889.015	21603
889.139	21587
889.263	21428
889.387	21698
889.511	21743
889.635	21698
889.759	21587
889.883	21492
890.006	21576
890.13	21572
890.254	21454
890.377	21534
890.501	21252
890.624	21264
890.748	21298
890.871	21150
890.995	21043
891.118	21024
891.241	21135
891.364	21074
891.488	21108
891.611	21089
891.734	21100
891.857	21081
891.98	21127
892.103	21070
892.226	21154
892.349	21047
892.471	20929
892.594	21055
892.717	21013
892.839	20994
892.962	20956
893.085	20891
893.207	21062
893.33	20845
893.452	20819
893.575	21047
893.697	20902
893.819	21104
893.941	21169
894.064	21131
894.186	20899
894.308	20982
894.43	21157
894.552	21104
894.674	21077
894.796	20758
894.918	21066
895.04	20876
895.161	21020
895.283	20956
895.405	20880
895.526	20948
895.648	20967
895.769	21100
895.891	21051
896.012	20880
896.134	21013
896.255	20948
896.376	20933
896.498	20925
896.619	20864
896.74	20956
896.861	20979
896.982	21233
897.103	21370
897.224	21249
897.345	21150
897.466	21093
897.587	21150
897.708	21332
897.828	21283
897.949	21127
898.07	20967
898.19	21013
898.311	21291
898.431	21085
898.552	21169
898.672	21173
898.792	21214
898.913	21112
899.033	21070
899.153	21001
899.273	20880
899.393	20857
899.513	20883
899.633	20868
899.753	20925
899.873	20868
899.993	20830
900.113	20731
900.232	20941
900.352	20678
900.472	20701
900.591	20640
900.711	20632
900.83	20480
900.95	20602
901.069	20777
901.189	20541
901.308	20358
901.427	20161
901.546	20309
901.665	20275
901.784	20301
901.904	20191
902.023	19925
902.141	19776
902.26	19734
902.379	19913
902.498	19590
902.617	19693
902.735	19791
902.854	19685
902.973	19609
903.091	19445
903.21	19388
903.328	19426
903.446	19312
903.565	19251
903.683	19183
903.801	19107
903.919	19148
904.038	19137
904.156	19034
904.274	19057
904.392	18909
904.51	18856
904.627	18932
904.745	18947
904.863	18962
904.981	18703
905.098	18623
905.216	18555
905.334	18635
905.451	18673
905.569	18635
905.686	18574
905.803	18661
905.921	18281
906.038	18551
906.155	18426
906.272	18380
906.389	18308
906.506	18125
906.623	18007
906.74	18110
906.857	18174
906.974	18053
907.091	18197
907.208	18254
907.324	18209
907.441	18038
907.557	17851
907.674	17813
907.79	17687
907.907	17794
908.023	17855
908.139	17733
908.256	17802
908.372	17726
908.488	17687
908.604	17619
908.72	17661
908.836	17486
908.952	17596
909.068	17486
909.184	17661
909.3	17558
909.415	17592
909.531	17455
909.647	17311
909.762	17280
909.878	17223
909.993	17216
910.108	17364
910.224	17326
910.339	17246
910.454	17166
910.57	17045
910.685	17048
910.8	17277
910.915	17193
911.03	17071
911.145	16877
911.259	16862
911.374	16801
911.489	16831
911.604	16653
911.718	16626
911.833	16561
911.947	16580
912.062	16451
912.176	16592
912.291	16500
912.405	16481
912.519	16717
912.633	16771
912.748	16573
912.862	16561
912.976	16405
913.09	16314
913.204	16318
913.318	16474
913.431	16432
913.545	16459
913.659	16489
913.772	16295
913.886	16196
914	16249
914.113	16310
914.226	16303
914.34	16158
914.453	16071
914.566	16246
914.68	16116
914.793	16002
914.906	15876
915.019	15759
915.132	15698
915.245	15743
915.358	15770
915.47	15732
915.583	15827
915.696	15854
915.809	15850
915.921	15827
916.034	15629
916.146	15641
916.259	15606
916.371	15732
916.483	15720
916.595	15538
916.708	15648
916.82	15587
916.932	15500
917.044	15580
917.156	15614
917.268	15412
917.38	15374
917.491	15386
917.603	15424
917.715	15496
917.826	15530
917.938	15264
918.049	15275
918.161	15340
918.272	15534
918.384	15435
918.495	15264
918.606	15146
918.717	15077
918.828	15176
918.939	15066
919.05	15020
919.161	15161
919.272	14937
919.383	15058
919.494	15127
919.604	15226
919.715	15112
919.826	15020
919.936	15020
920.047	15199
920.157	15017
920.267	15291
920.378	15195
920.488	15013
920.598	15207
920.708	15344
920.818	15249
920.928	15367
921.038	15363
921.148	15340
921.258	15009
921.368	14944
921.477	14910
921.587	14796
921.697	14648
921.806	14750
921.916	14617
922.025	14476
922.134	14564
922.244	14427
922.353	14541
922.462	14385
922.571	14339
922.68	14214
922.789	14111
922.898	14100
923.007	13989
923.116	14138
923.224	14138
923.333	14176
923.442	14008
923.55	13894
923.659	13928
923.767	13955
923.876	13868
923.984	13811
924.092	13750
924.201	13856
924.309	13822
924.417	13860
924.525	13662
924.633	13708
924.741	14724
924.849	13594
924.956	13651
925.064	13502
925.172	13457
925.279	13537
925.387	13430
925.494	13449
925.602	13502
925.709	13537
925.816	13457
925.924	13491
926.031	13567
926.138	13411
926.245	13499
926.352	13259
926.459	13518
926.566	13460
926.673	13350
926.779	13228
926.886	13240
926.993	12954
927.099	13091
927.206	12973
927.312	12939
927.419	12970
927.525	12954
927.631	13019
927.737	12886
927.843	12913
927.95	12673
928.056	12749
928.162	12776
928.267	12779
928.373	13468
928.479	12901
928.585	12658
928.69	12715
928.796	12764
928.901	12608
929.007	12574
929.112	12665
929.218	12601
929.323	12658
929.428	12483
929.533	12707
929.638	12475
929.743	12506
929.848	12452
929.953	12380
930.058	12285
930.163	12262
930.267	12197
930.372	12350
930.477	12136
930.581	12475
930.685	12251
930.79	12133
930.894	12079
930.998	12129
931.103	12220
931.207	11832
931.311	11859
931.415	11691
931.519	11360
931.623	11482
