Data from test_V78500241_789.txt Node
Date: Fri Mar 25 15:47:16 CST 2022
User: usil
Spectrometer: V785-0024
Trigger mode: 0
Integration Time (sec): 4.000000E-1
Scans to average: 1
Nonlinearity correction enabled: false
Boxcar width: 0
Storing dark spectrum: false
XAxis mode: Wavelengths
Number of Pixels in Spectrum: 1024
>>>>>Begin Spectral Data<<<<<
801.071	27572
801.214	27454
801.356	27131
801.499	27138
801.641	26940
801.783	27055
801.926	27039
802.068	27028
802.211	26826
802.353	26849
802.496	26648
802.638	26598
802.78	26609
802.923	26549
803.065	26716
803.208	26636
803.35	26632
803.492	26670
803.635	26773
803.777	26686
803.919	26834
804.061	26979
804.204	26838
804.346	26727
804.488	26556
804.63	26678
804.773	26716
804.915	26868
805.057	26967
805.199	26735
805.341	26910
805.483	26960
805.626	26937
805.768	26785
805.91	26891
806.052	27005
806.194	26940
806.336	26990
806.478	26929
806.62	27005
806.762	26998
806.904	27184
807.046	27469
807.188	27249
807.33	27329
807.472	27492
807.614	27294
807.756	27260
807.898	27199
808.04	27161
808.182	27203
808.324	27184
808.465	27195
808.607	27374
808.749	27561
808.891	27580
809.033	27732
809.174	27660
809.316	27492
809.458	27599
809.6	27473
809.741	27557
809.883	27717
810.025	27873
810.166	27827
810.308	27709
810.45	27800
810.591	27599
810.733	27583
810.875	27549
811.016	27462
811.158	27477
811.299	27652
811.441	27686
811.582	27812
811.724	27542
811.865	27675
812.007	27675
812.148	27519
812.29	27595
812.431	27667
812.573	27911
812.714	27994
812.855	27972
812.997	28032
813.138	28154
813.279	28131
813.421	28074
813.562	27960
813.703	27797
813.845	27732
813.986	27580
814.127	27370
814.268	27119
814.41	27184
814.551	27135
814.692	27272
814.833	27298
814.974	27081
815.115	27180
815.256	27112
815.397	27112
815.539	26967
815.68	26914
815.821	26842
815.962	27108
816.103	26948
816.244	26948
816.385	26792
816.526	26693
816.666	26625
816.807	26423
816.948	26549
817.089	26640
817.23	26629
817.371	26552
817.512	26488
817.653	26511
817.793	26389
817.934	26518
818.075	26438
818.216	26339
818.356	26434
818.497	26332
818.638	26191
818.778	26259
818.919	26240
819.06	26282
819.2	26431
819.341	26336
819.481	26453
819.622	26594
819.762	26868
819.903	26792
820.043	26724
820.184	26609
820.324	26530
820.465	26769
820.605	26644
820.746	26549
820.886	26358
821.026	26507
821.167	26533
821.307	26708
821.447	26590
821.588	26434
821.728	26423
821.868	26122
822.008	25955
822.149	26020
822.289	26058
822.429	25746
822.569	25655
822.709	25544
822.849	25476
822.99	25438
823.13	25362
823.27	25445
823.41	25358
823.55	25202
823.69	25221
823.83	25335
823.97	25221
824.11	25110
824.25	25076
824.389	25171
824.529	25095
824.669	25156
824.809	25247
824.949	25099
825.089	25206
825.228	25236
825.368	24966
825.508	24958
825.648	25065
825.787	25038
825.927	25088
826.067	25004
826.206	24947
826.346	25091
826.485	25019
826.625	25012
826.765	25038
826.904	25080
827.044	24810
827.183	24665
827.323	24673
827.462	24871
827.601	24719
827.741	24696
827.88	24730
828.02	24597
828.159	24620
828.298	24806
828.437	24741
828.577	24661
828.716	24787
828.855	24604
828.994	24467
829.134	24445
829.273	24437
829.412	24247
829.551	24376
829.69	24372
829.829	24452
829.968	24342
830.107	24445
830.246	24334
830.385	24319
830.524	24224
830.663	24213
830.802	24102
830.941	23870
831.08	24076
831.219	24098
831.357	24174
831.496	24194
831.635	23988
831.774	23874
831.913	23901
832.051	23817
832.19	23824
832.329	23802
832.467	23786
832.606	23668
832.744	23589
832.883	23741
833.022	23752
833.16	23710
833.299	23653
833.437	23722
833.576	23794
833.714	23802
833.852	23824
833.991	23760
834.129	23824
834.267	23832
834.406	23703
834.544	23748
834.682	23783
834.821	23760
834.959	23965
835.097	23710
835.235	23752
835.373	23710
835.511	23798
835.65	23600
835.788	23592
835.926	23337
836.064	23395
836.202	23322
836.34	23531
836.478	23642
836.615	23634
836.753	23581
836.891	23649
837.029	23642
837.167	23425
837.305	23452
837.443	23505
837.58	23387
837.718	23516
837.856	23322
837.993	23242
838.131	23482
838.269	23330
838.406	23193
838.544	23200
838.681	23147
838.819	23029
838.956	22980
839.094	22877
839.231	22930
839.369	23014
839.506	23242
839.643	23113
839.781	22980
839.918	22713
840.055	22786
840.193	22801
840.33	22729
840.467	22774
840.604	22774
840.742	23022
840.879	22793
841.016	22771
841.153	22694
841.29	22805
841.427	22668
841.564	22866
841.701	22736
841.838	22691
841.975	22721
842.112	22660
842.249	22664
842.385	22538
842.522	22805
842.659	22645
842.796	22440
842.933	22508
843.069	22455
843.206	22569
843.343	22698
843.479	22592
843.616	22580
843.752	22276
843.889	22375
844.025	22489
844.162	22249
844.298	22481
844.435	22348
844.571	22272
844.708	22356
844.844	22398
844.98	22390
845.117	22421
845.253	22363
845.389	22306
845.525	22287
845.661	22013
845.798	22032
845.934	22128
846.07	22105
846.206	22051
846.342	22188
846.478	21964
846.614	21876
846.75	21717
846.886	21614
847.022	21781
847.158	21846
847.294	21751
847.429	21819
847.565	21762
847.701	21991
847.837	21732
847.972	21477
848.108	21485
848.244	21610
848.379	21450
848.515	21507
848.65	21462
848.786	21428
848.921	21431
849.057	21564
849.192	21424
849.328	21443
849.463	21393
849.598	21389
849.734	21344
849.869	21382
850.004	21218
850.14	21272
850.275	21306
850.41	21093
850.545	21184
850.68	21161
850.815	21214
850.95	21127
851.085	21264
851.22	21378
851.355	21169
851.49	21100
851.625	21062
851.76	21157
851.895	21108
852.03	21138
852.165	21260
852.299	21237
852.434	21230
852.569	21192
852.703	21169
852.838	21161
852.973	21260
853.107	21294
853.242	21135
853.376	20994
853.511	20815
853.645	20902
853.78	21036
853.914	20986
854.048	20899
854.183	20948
854.317	21013
854.451	21260
854.585	20895
854.72	20842
854.854	20952
854.988	20887
855.122	20944
855.256	20765
855.39	20979
855.524	21089
855.658	21013
855.792	20994
855.926	20925
856.06	21055
856.194	21096
856.327	21009
856.461	20914
856.595	20925
856.729	20933
856.862	21077
856.996	21028
857.13	21043
857.263	21062
857.397	21142
857.53	20967
857.664	21154
857.797	20982
857.931	21085
858.064	21047
858.197	21028
858.331	21036
858.464	20971
858.597	20769
858.731	20925
858.864	20891
858.997	20952
859.13	21100
859.263	20971
859.396	21032
859.529	20880
859.662	20876
859.795	20914
859.928	20971
860.061	21112
860.194	21226
860.327	20960
860.46	21039
860.592	21051
860.725	21043
860.858	21142
860.99	21047
861.123	20834
861.256	20876
861.388	21062
861.521	21686
861.653	20842
861.786	20792
861.918	20758
862.05	20891
862.183	20933
862.315	20823
862.447	20967
862.58	20902
862.712	20571
862.844	20583
862.976	20906
863.108	20743
863.24	21150
863.372	20655
863.504	20724
863.636	20754
863.768	20716
863.9	20705
864.032	20682
864.164	20594
864.296	20590
864.428	20788
864.559	20674
864.691	20697
864.823	20693
864.954	20655
865.086	20663
865.217	20629
865.349	20434
865.48	20609
865.612	20632
865.743	20765
865.875	20522
866.006	20674
866.137	20583
866.269	20575
866.4	20636
866.531	20575
866.662	20526
866.793	20568
866.924	20549
867.055	20526
867.186	20590
867.317	20545
867.448	20533
867.579	20492
867.71	20415
867.841	20423
867.972	20556
868.103	20499
868.233	20606
868.364	20583
868.495	20663
868.625	20796
868.756	20800
868.886	20705
869.017	20743
869.147	20754
869.278	21020
869.408	20804
869.539	20735
869.669	20746
869.799	20807
869.929	20994
870.06	20883
870.19	21108
870.32	21039
870.45	21127
870.58	21123
870.71	21192
870.84	21287
870.97	21157
871.1	21138
871.23	21348
871.36	21405
871.489	21325
871.619	21439
871.749	21317
871.879	21332
872.008	21511
872.138	21367
872.267	21367
872.397	21135
872.526	21173
872.656	21184
872.785	21119
872.915	21431
873.044	21458
873.173	21287
873.303	21428
873.432	21439
873.561	21435
873.69	21351
873.819	21405
873.948	21416
874.077	21405
874.206	21321
874.335	21370
874.464	21458
874.593	21557
874.722	21595
874.851	21629
874.979	21766
875.108	21720
875.237	21443
875.365	21492
875.494	21511
875.623	21679
875.751	21641
875.88	21599
876.008	21682
876.136	21789
876.265	22074
876.393	22128
876.521	22032
876.65	22139
876.778	21934
876.906	22029
877.034	21823
877.162	21937
877.29	21964
877.418	22048
877.546	21953
877.674	21846
877.802	21994
877.93	21915
878.058	21846
878.185	21854
878.313	21975
878.441	22029
878.568	21816
878.696	22002
878.824	22013
878.951	22067
879.079	22219
879.206	22185
879.333	22086
879.461	21937
879.588	22101
879.715	22166
879.842	22162
879.97	22097
880.097	21800
880.224	21770
880.351	21915
880.478	21759
880.605	21690
880.732	21816
880.859	22036
880.986	21835
881.112	21823
881.239	21595
881.366	21557
881.493	21469
881.619	21496
881.746	21397
881.872	21424
881.999	21348
882.125	21332
882.252	21408
882.378	21348
882.505	21519
882.631	21268
882.757	21081
882.883	21112
883.01	21154
883.136	21047
883.262	20990
883.388	21020
883.514	21104
883.64	21127
883.766	21028
883.892	20895
884.018	20914
884.143	21074
884.269	21135
884.395	20674
884.52	20556
884.646	20716
884.772	20731
884.897	20640
885.023	20731
885.148	20735
885.274	20720
885.399	20868
885.524	20670
885.65	20739
885.775	20800
885.9	20678
886.025	20708
886.15	20693
886.275	20705
886.4	20587
886.525	20689
886.65	20659
886.775	20571
886.9	20819
887.025	20967
887.149	20830
887.274	20495
887.399	20438
887.523	20583
887.648	20446
887.773	20377
887.897	20518
888.021	20564
888.146	20431
888.27	20461
888.395	20454
888.519	20602
888.643	20530
888.767	20461
888.891	20286
889.015	20313
889.139	20294
889.263	20202
889.387	20457
889.511	20579
889.635	20454
889.759	20370
889.883	20286
890.006	20294
890.13	20233
890.254	20286
890.377	20172
890.501	20024
890.624	19989
890.748	20081
890.871	19906
890.995	19875
891.118	19830
891.241	19860
891.364	19940
891.488	19982
891.611	19856
891.734	19845
891.857	19951
891.98	19852
892.103	20001
892.226	19913
892.349	19852
892.471	19750
892.594	19685
892.717	19837
892.839	19700
892.962	19772
893.085	19780
893.207	19757
893.33	19666
893.452	19700
893.575	19765
893.697	19753
893.819	19955
893.941	20001
894.064	20008
894.186	19807
894.308	19803
894.43	19780
894.552	19909
894.674	19780
894.796	19704
894.918	19738
895.04	19837
895.161	19849
895.283	19852
895.405	19795
895.526	19780
895.648	19811
895.769	19833
895.891	19788
896.012	19890
896.134	19845
896.255	19875
896.376	19723
896.498	19742
896.619	19982
896.74	19723
896.861	19822
896.982	20172
897.103	20286
897.224	20069
897.345	20024
897.466	19951
897.587	19974
897.708	20187
897.828	20092
897.949	19963
898.07	19887
898.19	19955
898.311	20039
898.431	19989
898.552	20039
898.672	20172
898.792	20107
898.913	20084
899.033	19936
899.153	19807
899.273	19693
899.393	19666
899.513	19833
899.633	19674
899.753	19799
899.873	19632
899.993	19742
900.113	19738
900.232	19658
900.352	19651
900.472	19510
900.591	19468
900.711	19559
900.83	19518
900.95	19655
901.069	19681
901.189	19487
901.308	19190
901.427	19107
901.546	19148
901.665	19206
901.784	19152
901.904	19042
902.023	18962
902.141	18738
902.26	18684
902.379	18829
902.498	18692
902.617	18585
902.735	18642
902.854	18646
902.973	18612
903.091	18342
903.21	18270
903.328	18391
903.446	18254
903.565	18098
903.683	18140
903.801	17946
903.919	18060
904.038	18152
904.156	17961
904.274	18076
904.392	17821
904.51	17847
904.627	18003
904.745	17992
904.863	18045
904.981	17699
905.098	17703
905.216	17733
905.334	17630
905.451	17661
905.569	17573
905.686	17627
905.803	17577
905.921	17349
906.038	17562
906.155	17414
906.272	17239
906.389	17220
906.506	17181
906.623	17185
906.74	17109
906.857	16934
906.974	16991
907.091	17250
907.208	17311
907.324	17231
907.441	16923
907.557	16862
907.674	16896
907.79	16873
907.907	16831
908.023	16915
908.139	16824
908.256	16835
908.372	16634
908.488	16664
908.604	16637
908.72	16512
908.836	16592
908.952	16440
909.068	16542
909.184	16615
909.3	16588
909.415	16607
909.531	16542
909.647	16265
909.762	16371
909.878	16253
909.993	16352
910.108	16265
910.224	16249
910.339	16139
910.454	16086
910.57	16143
910.685	16002
910.8	16306
910.915	16139
911.03	16074
911.145	15892
911.259	15964
911.374	15899
911.489	15804
911.604	15747
911.718	15603
911.833	15652
911.947	15614
912.062	15564
912.176	15686
912.291	15762
912.405	15671
912.519	15861
912.633	15793
912.748	15667
912.862	15667
912.976	15488
913.09	15306
913.204	15298
913.318	15492
913.431	15568
913.545	15515
913.659	15580
913.772	15428
913.886	15317
914	15264
914.113	15332
914.226	15389
914.34	15325
914.453	15100
914.566	15184
914.68	15123
914.793	15104
914.906	14956
915.019	14849
915.132	14746
915.245	14815
915.358	14765
915.47	14891
915.583	14800
915.696	14876
915.809	14982
915.921	14952
916.034	14853
916.146	14678
916.259	14785
916.371	14887
916.483	14804
916.595	14693
916.708	14670
916.82	14575
916.932	14625
917.044	14667
917.156	14644
917.268	14564
917.38	14571
917.491	14473
917.603	14469
917.715	14568
917.826	14606
917.938	14381
918.049	14400
918.161	14419
918.272	14552
918.384	14564
918.495	14450
918.606	14324
918.717	14199
918.828	14381
918.939	14328
919.05	14142
919.161	14218
919.272	14115
919.383	14126
919.494	14385
919.604	14499
919.715	14298
919.826	14149
919.936	14180
920.047	14267
920.157	14240
920.267	14476
920.378	14282
920.488	14138
920.598	14423
920.708	14484
920.818	14423
920.928	14434
921.038	14564
921.148	14480
921.258	14206
921.368	14100
921.477	13978
921.587	13955
921.697	13970
921.806	14005
921.916	13841
922.025	13769
922.134	13700
922.244	13609
922.353	13712
922.462	13502
922.571	13468
922.68	13289
922.789	13270
922.898	13343
923.007	13225
923.116	13324
923.224	13316
923.333	13183
923.442	13152
923.55	13141
923.659	13149
923.767	13217
923.876	13046
923.984	13263
924.092	12996
924.201	13072
924.309	13031
924.417	13084
924.525	13015
924.633	12928
924.741	13852
924.849	12795
924.956	13069
925.064	12768
925.172	12669
925.279	12707
925.387	12707
925.494	12722
925.602	12863
925.709	12814
925.816	12688
925.924	12722
926.031	12753
926.138	12734
926.245	12760
926.352	12589
926.459	12726
926.566	12791
926.673	12597
926.779	12464
926.886	12467
926.993	12311
927.099	12273
927.206	12277
927.312	12285
927.419	12376
927.525	12323
927.631	12296
927.737	12171
927.843	12144
927.95	12045
928.056	12194
928.162	12091
928.267	12144
928.373	12844
928.479	12224
928.585	11950
928.69	12041
928.796	12076
928.901	12019
929.007	11870
929.112	12045
929.218	11980
929.323	11863
929.428	11843
929.533	11977
929.638	11805
929.743	11855
929.848	11855
929.953	11802
930.058	11684
930.163	11493
930.267	11547
930.372	11676
930.477	11497
930.581	11756
930.685	11630
930.79	11471
930.894	11520
930.998	11455
931.103	11577
931.207	11189
931.311	11083
931.415	11113
931.519	10816
931.623	10919
