Data from test_V78500241_1920.txt Node
Date: Fri Mar 25 15:55:06 CST 2022
User: usil
Spectrometer: V785-0024
Trigger mode: 0
Integration Time (sec): 4.000000E-1
Scans to average: 1
Nonlinearity correction enabled: false
Boxcar width: 0
Storing dark spectrum: false
XAxis mode: Wavelengths
Number of Pixels in Spectrum: 1024
>>>>>Begin Spectral Data<<<<<
801.071	28656
801.214	28462
801.356	28436
801.499	28306
801.641	28188
801.783	28128
801.926	28249
802.068	28185
802.211	28147
802.353	28017
802.496	27907
802.638	27983
802.78	27690
802.923	27819
803.065	27797
803.208	27701
803.35	27880
803.492	27857
803.635	28120
803.777	28086
803.919	28135
804.061	28447
804.204	28139
804.346	28090
804.488	27998
804.63	28097
804.773	28128
804.915	28143
805.057	28181
805.199	28093
805.341	28139
805.483	28417
805.626	28249
805.768	28055
805.91	28200
806.052	28310
806.194	28204
806.336	28401
806.478	28329
806.62	28280
806.762	28310
806.904	28474
807.046	28805
807.188	28675
807.33	28771
807.472	28725
807.614	28546
807.756	28710
807.898	28736
808.04	28535
808.182	28569
808.324	28569
808.465	28538
808.607	28885
808.749	28869
808.891	29067
809.033	29242
809.174	28984
809.316	28965
809.458	28991
809.6	28797
809.741	29181
809.883	28927
810.025	29277
810.166	29307
810.308	29132
810.45	29239
810.591	28987
810.733	29037
810.875	28915
811.016	28828
811.158	28850
811.299	29113
811.441	29239
811.582	29170
811.724	29041
811.865	28984
812.007	28949
812.148	28938
812.29	29022
812.431	29098
812.573	29318
812.714	29360
812.855	29512
812.997	29573
813.138	29676
813.279	29581
813.421	29562
813.562	29528
813.703	29189
813.845	29166
813.986	28965
814.127	28896
814.268	28725
814.41	28683
814.551	28702
814.692	28771
814.833	28634
814.974	28717
815.115	28668
815.256	28588
815.397	28504
815.539	28641
815.68	28554
815.821	28360
815.962	28668
816.103	28546
816.244	28474
816.385	28166
816.526	28268
816.666	28143
816.807	27972
816.948	28135
817.089	28059
817.23	28112
817.371	28101
817.512	27956
817.653	27850
817.793	27907
817.934	28044
818.075	28055
818.216	27956
818.356	27991
818.497	27789
818.638	27804
818.778	27759
818.919	27762
819.06	27770
819.2	27747
819.341	27895
819.481	27987
819.622	28051
819.762	28211
819.903	28284
820.043	28166
820.184	28010
820.324	28078
820.465	28124
820.605	28002
820.746	28192
820.886	28070
821.026	28101
821.167	28021
821.307	28150
821.447	28051
821.588	27968
821.728	27755
821.868	27618
822.008	27545
822.149	27515
822.289	27504
822.429	27165
822.569	27108
822.709	27226
822.849	26937
822.99	26891
823.13	26960
823.27	26998
823.41	26956
823.55	26663
823.69	26788
823.83	26758
823.97	26754
824.11	26575
824.25	26613
824.389	26587
824.529	26663
824.669	26693
824.809	26773
824.949	26765
825.089	26731
825.228	26686
825.368	26473
825.508	26434
825.648	26480
825.787	26705
825.927	26518
826.067	26480
826.206	26503
826.346	26579
826.485	26613
826.625	26598
826.765	26602
826.904	26549
827.044	26157
827.183	26309
827.323	26290
827.462	26313
827.601	26256
827.741	26183
827.88	26301
828.02	26221
828.159	26259
828.298	26202
828.437	26301
828.577	26221
828.716	26278
828.855	26107
828.994	25925
829.134	25936
829.273	25902
829.412	25814
829.551	25890
829.69	25837
829.829	25944
829.968	25986
830.107	25894
830.246	25947
830.385	25940
830.524	25723
830.663	25837
830.802	25590
830.941	25525
831.08	25506
831.219	25658
831.357	25582
831.496	25799
831.635	25468
831.774	25544
831.913	25354
832.051	25400
832.19	25202
832.329	25209
832.467	25190
832.606	25053
832.744	25042
832.883	25225
833.022	25160
833.16	25206
833.299	25293
833.437	25293
833.576	25198
833.714	25217
833.852	25266
833.991	25335
834.129	25244
834.267	25468
834.406	25251
834.544	25278
834.682	25228
834.821	25164
834.959	25392
835.097	25137
835.235	25213
835.373	25236
835.511	25198
835.65	25042
835.788	25057
835.926	24958
836.064	24856
836.202	24878
836.34	25069
836.478	25160
836.615	25187
836.753	25156
836.891	25160
837.029	25084
837.167	24935
837.305	25080
837.443	24970
837.58	24882
837.718	24928
837.856	24886
837.993	24787
838.131	24776
838.269	24734
838.406	24817
838.544	24589
838.681	24578
838.819	24566
838.956	24471
839.094	24388
839.231	24384
839.369	24551
839.506	24783
839.643	24585
839.781	24346
839.918	24281
840.055	24357
840.193	24384
840.33	24315
840.467	24243
840.604	24346
840.742	24467
840.879	24049
841.016	24174
841.153	24163
841.29	24380
841.427	24079
841.564	24251
841.701	24330
841.838	24133
841.975	24117
842.112	24148
842.249	24030
842.385	23950
842.522	24205
842.659	24026
842.796	24018
842.933	24015
843.069	23984
843.206	23946
843.343	23984
843.479	24140
843.616	23984
843.752	23843
843.889	23908
844.025	23965
844.162	23813
844.298	23863
844.435	23828
844.571	23707
844.708	23813
844.844	24011
844.98	23821
845.117	23912
845.253	23802
845.389	23608
845.525	23615
845.661	23737
845.798	23604
845.934	23684
846.07	23455
846.206	23634
846.342	23520
846.478	23490
846.614	23265
846.75	23208
846.886	23010
847.022	23227
847.158	23250
847.294	23136
847.429	23189
847.565	23235
847.701	23383
847.837	22991
847.972	23022
848.108	23029
848.244	23037
848.379	22953
848.515	22744
848.65	22828
848.786	22873
848.921	22873
849.057	22900
849.192	22881
849.328	22835
849.463	22942
849.598	22801
849.734	22721
849.869	22645
850.004	22611
850.14	22637
850.275	22504
850.41	22535
850.545	22557
850.68	22626
850.815	22561
850.95	22596
851.085	22713
851.22	22744
851.355	22618
851.49	22500
851.625	22493
851.76	22504
851.895	22599
852.03	22485
852.165	22462
852.299	22634
852.434	22820
852.569	22729
852.703	22546
852.838	22672
852.973	22801
853.107	22713
853.242	22584
853.376	22341
853.511	22284
853.645	22310
853.78	22493
853.914	22554
854.048	22398
854.183	22405
854.317	22386
854.451	22584
854.585	22375
854.72	22386
854.854	22489
854.988	22360
855.122	22436
855.256	22367
855.39	22360
855.524	22493
855.658	22478
855.792	22341
855.926	22459
856.06	22550
856.194	22508
856.327	22459
856.461	22352
856.595	22333
856.729	22356
856.862	22557
856.996	22516
857.13	22459
857.263	22474
857.397	22535
857.53	22451
857.664	22561
857.797	22455
857.931	22504
858.064	22382
858.197	22497
858.331	22356
858.464	22386
858.597	22314
858.731	22390
858.864	22230
858.997	22363
859.13	22276
859.263	22303
859.396	22561
859.529	22352
859.662	22322
859.795	22344
859.928	22462
860.061	22561
860.194	22645
860.327	22550
860.46	22413
860.592	22500
860.725	22596
860.858	22489
860.99	22462
861.123	22443
861.256	22333
861.388	22443
861.521	23193
861.653	22257
861.786	22261
861.918	22291
862.05	22303
862.183	22257
862.315	22367
862.447	22367
862.58	22341
862.712	22223
862.844	22253
862.976	22188
863.108	22147
863.24	22649
863.372	22006
863.504	22109
863.636	22192
863.768	22143
863.9	22154
864.032	22063
864.164	22158
864.296	22226
864.428	22192
864.559	22204
864.691	22109
864.823	22124
864.954	22112
865.086	21960
865.217	21975
865.349	21793
865.48	21979
865.612	21968
865.743	22147
865.875	21968
866.006	22093
866.137	22101
866.269	21991
866.4	22078
866.531	21854
866.662	21941
866.793	21956
866.924	21979
867.055	21964
867.186	21827
867.317	22017
867.448	21918
867.579	21781
867.71	21823
867.841	21907
867.972	21930
868.103	22055
868.233	21979
868.364	21934
868.495	22010
868.625	22105
868.756	22276
868.886	22128
869.017	22029
869.147	22303
869.278	22234
869.408	22185
869.539	22082
869.669	22341
869.799	22242
869.929	22284
870.06	22188
870.19	22451
870.32	22356
870.45	22573
870.58	22478
870.71	22687
870.84	22683
870.97	22451
871.1	22523
871.23	22694
871.36	22710
871.489	22653
871.619	22672
871.749	22839
871.879	22664
872.008	22759
872.138	22831
872.267	22866
872.397	22653
872.526	22656
872.656	22653
872.785	22516
872.915	22710
873.044	22809
873.173	22824
873.303	22820
873.432	22824
873.561	22889
873.69	22862
873.819	22725
873.948	22942
874.077	22786
874.206	22790
874.335	22858
874.464	22854
874.593	22976
874.722	23006
874.851	23113
874.979	23006
875.108	22934
875.237	22862
875.365	22866
875.494	23003
875.623	23102
875.751	22908
875.88	22984
876.008	23178
876.136	23143
876.265	23429
876.393	23543
876.521	23543
876.65	23372
876.778	23448
876.906	23307
877.034	23250
877.162	23364
877.29	23337
877.418	23246
877.546	23364
877.674	23223
877.802	23353
877.93	23280
878.058	23349
878.185	23239
878.313	23421
878.441	23296
878.568	23128
878.696	23261
878.824	23349
878.951	23402
879.079	23554
879.206	23726
879.333	23524
879.461	23448
879.588	23482
879.715	23421
879.842	23623
879.97	23318
880.097	23307
880.224	23124
880.351	23261
880.478	23208
880.605	23067
880.732	23105
880.859	23379
880.986	23185
881.112	23052
881.239	23098
881.366	22812
881.493	22763
881.619	22759
881.746	22805
881.872	22790
881.999	22752
882.125	22596
882.252	22839
882.378	22759
882.505	22885
882.631	22531
882.757	22402
882.883	22481
883.01	22386
883.136	22417
883.262	22291
883.388	22204
883.514	22352
883.64	22363
883.766	22303
883.892	22169
884.018	22093
884.143	22284
884.269	22459
884.395	22207
884.52	22070
884.646	22109
884.772	21838
884.897	21953
885.023	22017
885.148	22032
885.274	22181
885.399	22067
885.524	22101
885.65	22105
885.775	22040
885.9	21956
886.025	22109
886.15	22158
886.275	21983
886.4	21956
886.525	21956
886.65	21945
886.775	22010
886.9	22120
887.025	22188
887.149	21903
887.274	21911
887.399	21850
887.523	21808
887.648	21827
887.773	21648
887.897	21838
888.021	21819
888.146	21717
888.27	21937
888.395	21880
888.519	21838
888.643	21797
888.767	21873
888.891	21701
889.015	21542
889.139	21553
889.263	21466
889.387	21705
889.511	21812
889.635	21854
889.759	21492
889.883	21603
890.006	21663
890.13	21580
890.254	21534
890.377	21481
890.501	21264
890.624	21256
890.748	21317
890.871	21222
890.995	21154
891.118	21036
891.241	21135
891.364	21138
891.488	21279
891.611	21135
891.734	21131
891.857	21218
891.98	21077
892.103	21176
892.226	21055
892.349	21070
892.471	20899
892.594	21043
892.717	21074
892.839	21070
892.962	21214
893.085	21036
893.207	21032
893.33	21009
893.452	20963
893.575	20975
893.697	20948
893.819	21226
893.941	21184
894.064	21142
894.186	21001
894.308	20906
894.43	21077
894.552	21093
894.674	21070
894.796	20963
894.918	21047
895.04	20906
895.161	21036
895.283	21066
895.405	21066
895.526	21093
895.648	20918
895.769	20963
895.891	21024
896.012	21081
896.134	21055
896.255	21013
896.376	20941
896.498	21036
896.619	20967
896.74	21070
896.861	21100
896.982	21264
897.103	21401
897.224	21264
897.345	21150
897.466	21119
897.587	21211
897.708	21374
897.828	21157
897.949	21199
898.07	21077
898.19	21039
898.311	21306
898.431	21226
898.552	21222
898.672	21180
898.792	21241
898.913	21317
899.033	21192
899.153	20971
899.273	20906
899.393	20925
899.513	20994
899.633	20830
899.753	21039
899.873	20861
899.993	20823
900.113	20815
900.232	20967
900.352	20971
900.472	20845
900.591	20629
900.711	20731
900.83	20663
900.95	20788
901.069	20815
901.189	20606
901.308	20377
901.427	20149
901.546	20355
901.665	20267
901.784	20229
901.904	20172
902.023	20088
902.141	19795
902.26	19814
902.379	19917
902.498	19849
902.617	19761
902.735	19715
902.854	19814
902.973	19681
903.091	19472
903.21	19487
903.328	19491
903.446	19316
903.565	19251
903.683	19228
903.801	19110
903.919	19129
904.038	19236
904.156	18958
904.274	19164
904.392	18913
904.51	18981
904.627	18985
904.745	19099
904.863	19141
904.981	18825
905.098	18593
905.216	18597
905.334	18696
905.451	18639
905.569	18677
905.686	18635
905.803	18506
905.921	18467
906.038	18448
906.155	18521
906.272	18391
906.389	18342
906.506	18171
906.623	18273
906.74	18102
906.857	18144
906.974	18140
907.091	18361
907.208	18235
907.324	18167
907.441	18057
907.557	17958
907.674	17901
907.79	17870
907.907	17783
908.023	18007
908.139	17942
908.256	17805
908.372	17710
908.488	17767
908.604	17661
908.72	17573
908.836	17596
908.952	17600
909.068	17532
909.184	17657
909.3	17653
909.415	17665
909.531	17512
909.647	17288
909.762	17349
909.878	17296
909.993	17345
910.108	17318
910.224	17265
910.339	17349
910.454	17208
910.57	17216
910.685	17048
910.8	17368
910.915	17216
911.03	17143
911.145	17014
911.259	16881
911.374	16782
911.489	16809
911.604	16854
911.718	16706
911.833	16634
911.947	16497
912.062	16413
912.176	16584
912.291	16653
912.405	16565
912.519	16866
912.633	16713
912.748	16672
912.862	16546
912.976	16447
913.09	16390
913.204	16379
913.318	16428
913.431	16561
913.545	16466
913.659	16531
913.772	16417
913.886	16215
914	16162
914.113	16291
914.226	16310
914.34	16246
914.453	16112
914.566	16196
914.68	16154
914.793	16131
914.906	15880
915.019	15880
915.132	15759
915.245	15812
915.358	15823
915.47	15812
915.583	15736
915.696	15800
915.809	15895
915.921	15991
916.034	15781
916.146	15701
916.259	15751
916.371	15717
916.483	15759
916.595	15618
916.708	15644
916.82	15656
916.932	15610
917.044	15572
917.156	15584
917.268	15408
917.38	15454
917.491	15393
917.603	15428
917.715	15382
917.826	15450
917.938	15363
918.049	15291
918.161	15367
918.272	15454
918.384	15564
918.495	15439
918.606	15245
918.717	15142
918.828	15188
918.939	15245
919.05	15081
919.161	15226
919.272	15017
919.383	14971
919.494	15218
919.604	15306
919.715	15207
919.826	15062
919.936	15097
920.047	15199
920.157	15112
920.267	15298
920.378	15142
920.488	15116
920.598	15272
920.708	15382
920.818	15211
920.928	15367
921.038	15374
921.148	15291
921.258	15097
921.368	14994
921.477	14815
921.587	14861
921.697	14670
921.806	14895
921.916	14708
922.025	14670
922.134	14526
922.244	14556
922.353	14499
922.462	14374
922.571	14351
922.68	14157
922.789	14134
922.898	14134
923.007	14043
923.116	14229
923.224	14191
923.333	14020
923.442	14008
923.55	13902
923.659	13906
923.767	13955
923.876	13875
923.984	13986
924.092	13906
924.201	13921
924.309	13894
924.417	13860
924.525	13837
924.633	13757
924.741	14754
924.849	13582
924.956	13689
925.064	13480
925.172	13403
925.279	13518
925.387	13499
925.494	13495
925.602	13651
925.709	13571
925.816	13480
925.924	13430
926.031	13533
926.138	13499
926.245	13445
926.352	13369
926.459	13529
926.566	13487
926.673	13293
926.779	13244
926.886	13190
926.993	13103
927.099	13110
927.206	13046
927.312	12954
927.419	13095
927.525	13027
927.631	13080
927.737	12852
927.843	12909
927.95	12757
928.056	12764
928.162	12909
928.267	12920
928.373	13476
928.479	12909
928.585	12589
928.69	12856
928.796	12776
928.901	12703
929.007	12601
929.112	12711
929.218	12684
929.323	12627
929.428	12563
929.533	12779
929.638	12559
929.743	12563
929.848	12582
929.953	12506
930.058	12448
930.163	12270
930.267	12270
930.372	12399
930.477	12270
930.581	12410
930.685	12418
930.79	12121
930.894	12178
930.998	12034
931.103	12194
931.207	11840
931.311	11790
931.415	11668
931.519	11482
931.623	11440
