Data from test_V78500241_2253.txt Node
Date: Fri Mar 25 15:57:24 CST 2022
User: usil
Spectrometer: V785-0024
Trigger mode: 0
Integration Time (sec): 4.000000E-1
Scans to average: 1
Nonlinearity correction enabled: false
Boxcar width: 0
Storing dark spectrum: false
XAxis mode: Wavelengths
Number of Pixels in Spectrum: 1024
>>>>>Begin Spectral Data<<<<<
801.071	29193
801.214	29185
801.356	29014
801.499	28843
801.641	28824
801.783	28729
801.926	28774
802.068	28733
802.211	28573
802.353	28596
802.496	28557
802.638	28516
802.78	28478
802.923	28348
803.065	28379
803.208	28390
803.35	28443
803.492	28660
803.635	28649
803.777	28580
803.919	28915
804.061	29006
804.204	28683
804.346	28710
804.488	28580
804.63	28694
804.773	28660
804.915	28850
805.057	28820
805.199	28694
805.341	28850
805.483	28885
805.626	28828
805.768	28938
805.91	28965
806.052	28972
806.194	28854
806.336	28957
806.478	28972
806.62	28801
806.762	29105
806.904	29189
807.046	29429
807.188	29353
807.33	29303
807.472	29474
807.614	29326
807.756	29406
807.898	29151
808.04	29254
808.182	29220
808.324	29098
808.465	29246
808.607	29288
808.749	29668
808.891	29589
809.033	29718
809.174	29722
809.316	29520
809.458	29573
809.6	29570
809.741	29592
809.883	29684
810.025	30182
810.166	29836
810.308	30041
810.45	29942
810.591	29805
810.733	29604
810.875	29562
811.016	29497
811.158	29524
811.299	29672
811.441	29729
811.582	29767
811.724	29687
811.865	29771
812.007	29566
812.148	29726
812.29	29729
812.431	29767
812.573	30026
812.714	30038
812.855	30235
812.997	30235
813.138	30292
813.279	30384
813.421	30220
813.562	30072
813.703	29920
813.845	29817
813.986	29573
814.127	29444
814.268	29231
814.41	29364
814.551	29220
814.692	29349
814.833	29273
814.974	29379
815.115	29516
815.256	29421
815.397	29185
815.539	29212
815.68	29189
815.821	29105
815.962	29208
816.103	29121
816.244	29102
816.385	28942
816.526	28980
816.666	28888
816.807	28538
816.948	28850
817.089	28862
817.23	28877
817.371	28588
817.512	28790
817.653	28672
817.793	28694
817.934	28774
818.075	28675
818.216	28683
818.356	28596
818.497	28478
818.638	28417
818.778	28462
818.919	28557
819.06	28523
819.2	28672
819.341	28694
819.481	28664
819.622	28934
819.762	29048
819.903	29025
820.043	28949
820.184	28706
820.324	28828
820.465	28953
820.605	28809
820.746	28733
820.886	28672
821.026	28835
821.167	28622
821.307	28828
821.447	28634
821.588	28531
821.728	28421
821.868	28318
822.008	28280
822.149	28185
822.289	28131
822.429	27892
822.569	27793
822.709	28029
822.849	27755
822.99	27739
823.13	27606
823.27	27648
823.41	27618
823.55	27477
823.69	27690
823.83	27488
823.97	27481
824.11	27291
824.25	27336
824.389	27268
824.529	27473
824.669	27332
824.809	27382
824.949	27370
825.089	27469
825.228	27325
825.368	27237
825.508	27157
825.648	27169
825.787	27199
825.927	27408
826.067	27230
826.206	27112
826.346	27370
826.485	27275
826.625	27199
826.765	27393
826.904	27363
827.044	26986
827.183	27020
827.323	27005
827.462	26960
827.601	26948
827.741	26883
827.88	26971
828.02	26796
828.159	26952
828.298	27013
828.437	27093
828.577	27036
828.716	26921
828.855	26910
828.994	26651
829.134	26579
829.273	26750
829.412	26731
829.551	26583
829.69	26609
829.829	26773
829.968	26792
830.107	26716
830.246	26552
830.385	26503
830.524	26609
830.663	26480
830.802	26320
830.941	26233
831.08	26191
831.219	26385
831.357	26313
831.496	26453
831.635	26290
831.774	26145
831.913	26206
832.051	26100
832.19	26054
832.329	26050
832.467	25940
832.606	25932
832.744	25932
832.883	25811
833.022	25906
833.16	25925
833.299	25826
833.437	25928
833.576	25997
833.714	26031
833.852	25978
833.991	25989
834.129	26092
834.267	26008
834.406	26016
834.544	25989
834.682	25936
834.821	25936
834.959	26221
835.097	26054
835.235	25868
835.373	25974
835.511	25917
835.65	25715
835.788	26020
835.926	25753
836.064	25449
836.202	25647
836.34	25761
836.478	25780
836.615	25715
836.753	25811
836.891	25928
837.029	25712
837.167	25715
837.305	25715
837.443	25666
837.58	25757
837.718	25635
837.856	25670
837.993	25628
838.131	25559
838.269	25445
838.406	25479
838.544	25388
838.681	25354
838.819	25225
838.956	25099
839.094	25164
839.231	25175
839.369	25141
839.506	25400
839.643	25308
839.781	25118
839.918	24996
840.055	25057
840.193	25004
840.33	24783
840.467	25053
840.604	25008
840.742	25297
840.879	24844
841.016	24821
841.153	24920
841.29	25050
841.427	24981
841.564	25034
841.701	24939
841.838	24958
841.975	24863
842.112	24783
842.249	24776
842.385	24673
842.522	24954
842.659	24779
842.796	24700
842.933	24677
843.069	24745
843.206	24768
843.343	24711
843.479	24627
843.616	24707
843.752	24452
843.889	24456
844.025	24597
844.162	24479
844.298	24528
844.435	24471
844.571	24410
844.708	24460
844.844	24654
844.98	24574
845.117	24532
845.253	24384
845.389	24258
845.525	24407
845.661	24292
845.798	24232
845.934	24167
846.07	24152
846.206	24194
846.342	24224
846.478	24186
846.614	23973
846.75	23832
846.886	23999
847.022	24102
847.158	23999
847.294	23988
847.429	24007
847.565	23954
847.701	24121
847.837	23570
847.972	23573
848.108	23752
848.244	23767
848.379	23570
848.515	23490
848.65	23459
848.786	23459
848.921	23471
849.057	23608
849.192	23581
849.328	23539
849.463	23551
849.598	23334
849.734	23467
849.869	23265
850.004	23292
850.14	23425
850.275	23265
850.41	23250
850.545	23166
850.68	23303
850.815	23364
850.95	23311
851.085	23372
851.22	23440
851.355	23364
851.49	23223
851.625	23178
851.76	23220
851.895	23147
852.03	23193
852.165	23410
852.299	23341
852.434	23383
852.569	23334
852.703	23311
852.838	23414
852.973	23421
853.107	23292
853.242	23311
853.376	23098
853.511	22991
853.645	22984
853.78	23254
853.914	23117
854.048	23067
854.183	23147
854.317	23155
854.451	23303
854.585	23075
854.72	23052
854.854	23265
854.988	23075
855.122	23117
855.256	22972
855.39	23018
855.524	23113
855.658	23090
855.792	23025
855.926	23124
856.06	23208
856.194	23216
856.327	23006
856.461	22892
856.595	23029
856.729	23159
856.862	23185
856.996	23170
857.13	23014
857.263	23162
857.397	23166
857.53	23029
857.664	23067
857.797	23197
857.931	23162
858.064	23166
858.197	23083
858.331	23056
858.464	23136
858.597	22877
858.731	23044
858.864	22949
858.997	23086
859.13	23071
859.263	23151
859.396	23162
859.529	23086
859.662	23079
859.795	23113
859.928	23037
860.061	23330
860.194	23204
860.327	23208
860.46	23189
860.592	23178
860.725	23174
860.858	23360
860.99	23117
861.123	23075
861.256	23098
861.388	23140
861.521	23809
861.653	22904
861.786	22900
861.918	22968
862.05	22881
862.183	22938
862.315	22987
862.447	23147
862.58	23090
862.712	22748
862.844	22740
862.976	22953
863.108	22843
863.24	23250
863.372	22771
863.504	22843
863.636	22862
863.768	22778
863.9	22847
864.032	22797
864.164	22713
864.296	22797
864.428	22873
864.559	22915
864.691	22797
864.823	22858
864.954	22812
865.086	22816
865.217	22755
865.349	22550
865.48	22607
865.612	22691
865.743	22820
865.875	22771
866.006	22630
866.137	22637
866.269	22706
866.4	22588
866.531	22538
866.662	22599
866.793	22611
866.924	22573
867.055	22626
867.186	22565
867.317	22573
867.448	22512
867.579	22500
867.71	22470
867.841	22554
867.972	22706
868.103	22603
868.233	22519
868.364	22580
868.495	22771
868.625	22790
868.756	22927
868.886	22790
869.017	22744
869.147	22904
869.278	22930
869.408	22862
869.539	22961
869.669	22885
869.799	22774
869.929	22946
870.06	22904
870.19	23105
870.32	23140
870.45	23174
870.58	23261
870.71	23288
870.84	23258
870.97	23345
871.1	23208
871.23	23379
871.36	23452
871.489	23444
871.619	23493
871.749	23410
871.879	23368
872.008	23547
872.138	23509
872.267	23395
872.397	23254
872.526	23204
872.656	23315
872.785	23364
872.915	23486
873.044	23627
873.173	23383
873.303	23661
873.432	23528
873.561	23543
873.69	23459
873.819	23440
873.948	23482
874.077	23501
874.206	23471
874.335	23497
874.464	23615
874.593	23604
874.722	23600
874.851	23547
874.979	23604
875.108	23661
875.237	23687
875.365	23562
875.494	23570
875.623	23680
875.751	23627
875.88	23623
876.008	23748
876.136	23794
876.265	23961
876.393	24144
876.521	24190
876.65	24072
876.778	24041
876.906	24007
877.034	23885
877.162	24098
877.29	23771
877.418	24117
877.546	24034
877.674	24072
877.802	23840
877.93	24072
878.058	23988
878.185	23786
878.313	23950
878.441	23920
878.568	23665
878.696	23958
878.824	24064
878.951	23950
879.079	24106
879.206	24273
879.333	24182
879.461	23973
879.588	24038
879.715	24144
879.842	24262
879.97	24079
880.097	23912
880.224	23756
880.351	23786
880.478	23813
880.605	23741
880.732	23714
880.859	23996
880.986	23805
881.112	23783
881.239	23615
881.366	23478
881.493	23421
881.619	23261
881.746	23345
881.872	23391
881.999	23410
882.125	23235
882.252	23322
882.378	23467
882.505	23376
882.631	23170
882.757	22991
882.883	23014
883.01	23014
883.136	23079
883.262	22972
883.388	22854
883.514	22976
883.64	22965
883.766	22858
883.892	22835
884.018	22885
884.143	22904
884.269	22995
884.395	22740
884.52	22557
884.646	22672
884.772	22447
884.897	22557
885.023	22736
885.148	22759
885.274	22713
885.399	22847
885.524	22618
885.65	22641
885.775	22694
885.9	22752
886.025	22721
886.15	22668
886.275	22588
886.4	22607
886.525	22630
886.65	22550
886.775	22577
886.9	22630
887.025	22793
887.149	22489
887.274	22386
887.399	22443
887.523	22325
887.648	22352
887.773	22363
887.897	22497
888.021	22367
888.146	22371
888.27	22478
888.395	22485
888.519	22386
888.643	22489
888.767	22318
888.891	22322
889.015	22128
889.139	22128
889.263	22272
889.387	22238
889.511	22341
889.635	22314
889.759	22120
889.883	22116
890.006	22124
890.13	22318
890.254	22143
890.377	22196
890.501	21846
890.624	21884
890.748	21918
890.871	21804
890.995	21842
891.118	21587
891.241	21827
891.364	21701
891.488	21930
891.611	21804
891.734	21671
891.857	21819
891.98	21713
892.103	21690
892.226	21713
892.349	21705
892.471	21439
892.594	21743
892.717	21686
892.839	21614
892.962	21538
893.085	21682
893.207	21633
893.33	21466
893.452	21504
893.575	21743
893.697	21538
893.819	21793
893.941	21865
894.064	21808
894.186	21538
894.308	21519
894.43	21724
894.552	21637
894.674	21682
894.796	21523
894.918	21580
895.04	21583
895.161	21591
895.283	21561
895.405	21599
895.526	21485
895.648	21557
895.769	21572
895.891	21534
896.012	21641
896.134	21622
896.255	21481
896.376	21545
896.498	21564
896.619	21576
896.74	21500
896.861	21625
896.982	21861
897.103	22025
897.224	21759
897.345	21835
897.466	21781
897.587	21770
897.708	21831
897.828	21854
897.949	21694
898.07	21633
898.19	21793
898.311	21873
898.431	21622
898.552	21819
898.672	21728
898.792	21808
898.913	21774
899.033	21633
899.153	21542
899.273	21397
899.393	21397
899.513	21408
899.633	21504
899.753	21473
899.873	21283
899.993	21504
900.113	21477
900.232	21507
900.352	21313
900.472	21272
900.591	21135
900.711	21180
900.83	21131
900.95	21332
901.069	21336
901.189	21112
901.308	20853
901.427	20868
901.546	20754
901.665	20800
901.784	20845
901.904	20659
902.023	20549
902.141	20366
902.26	20377
902.379	20362
902.498	20309
902.617	20233
902.735	20263
902.854	20233
902.973	20153
903.091	20134
903.21	20027
903.328	20062
903.446	19917
903.565	19727
903.683	19681
903.801	19594
903.919	19674
904.038	19708
904.156	19441
904.274	19628
904.392	19533
904.51	19571
904.627	19552
904.745	19575
904.863	19563
904.981	19160
905.098	19263
905.216	19236
905.334	19346
905.451	19053
905.569	19190
905.686	19209
905.803	19148
905.921	19008
906.038	19031
906.155	19008
906.272	18821
906.389	18856
906.506	18719
906.623	18642
906.74	18639
906.857	18608
906.974	18506
907.091	18620
907.208	18760
907.324	18787
907.441	18532
907.557	18445
907.674	18441
907.79	18292
907.907	18281
908.023	18323
908.139	18365
908.256	18292
908.372	18213
908.488	18311
908.604	18106
908.72	18133
908.836	18068
908.952	17996
909.068	18034
909.184	18289
909.3	18083
909.415	18125
909.531	18163
909.647	17863
909.762	17786
909.878	17726
909.993	17817
910.108	17764
910.224	17756
910.339	17802
910.454	17520
910.57	17653
910.685	17581
910.8	17729
910.915	17756
911.03	17596
911.145	17383
911.259	17417
911.374	17452
911.489	17250
911.604	17273
911.718	17147
911.833	17060
911.947	17086
912.062	17018
912.176	17086
912.291	17143
912.405	17132
912.519	17178
912.633	17227
912.748	17143
912.862	17094
912.976	16889
913.09	16835
913.204	16946
913.318	16949
913.431	16984
913.545	16961
913.659	16946
913.772	16847
913.886	16748
914	16656
914.113	16771
914.226	16831
914.34	16847
914.453	16535
914.566	16752
914.68	16462
914.793	16542
914.906	16348
915.019	16352
915.132	16268
915.245	16257
915.358	16276
915.47	16166
915.583	16261
915.696	16181
915.809	16337
915.921	16318
916.034	16230
916.146	16188
916.259	16166
916.371	16242
916.483	16158
916.595	15994
916.708	16029
916.82	16006
916.932	16013
917.044	16048
917.156	15968
917.268	15922
917.38	15911
917.491	15857
917.603	15819
917.715	15994
917.826	15987
917.938	15812
918.049	15724
918.161	15785
918.272	15994
918.384	15945
918.495	15743
918.606	15564
918.717	15648
918.828	15622
918.939	15614
919.05	15568
919.161	15542
919.272	15416
919.383	15477
919.494	15690
919.604	15682
919.715	15717
919.826	15481
919.936	15557
920.047	15538
920.157	15584
920.267	15759
920.378	15557
920.488	15553
920.598	15694
920.708	15888
920.818	15625
920.928	15686
921.038	15789
921.148	15789
921.258	15488
921.368	15382
921.477	15272
921.587	15268
921.697	15169
921.806	15306
921.916	15100
922.025	14937
922.134	14872
922.244	14826
922.353	14998
922.462	14762
922.571	14701
922.68	14499
922.789	14484
922.898	14511
923.007	14408
923.116	14655
923.224	14579
923.333	14457
923.442	14381
923.55	14336
923.659	14309
923.767	14301
923.876	14362
923.984	14381
924.092	14206
924.201	14317
924.309	14214
924.417	14237
924.525	14119
924.633	14218
924.741	14944
924.849	13982
924.956	14058
925.064	13944
925.172	13833
925.279	13902
925.387	13894
925.494	13849
925.602	14016
925.709	13906
925.816	13753
925.924	13879
926.031	13917
926.138	13772
926.245	13868
926.352	13765
926.459	13909
926.566	13955
926.673	13791
926.779	13651
926.886	13605
926.993	13449
927.099	13339
927.206	13362
927.312	13457
927.419	13403
927.525	13388
927.631	13396
927.737	13206
927.843	13308
927.95	13095
928.056	13202
928.162	13312
928.267	13259
928.373	13959
928.479	13308
928.585	13038
928.69	13110
928.796	13160
928.901	13137
929.007	12859
929.112	13107
929.218	13031
929.323	12985
929.428	12859
929.533	13084
929.638	12798
929.743	12833
929.848	12859
929.953	12951
930.058	12821
930.163	12540
930.267	12620
930.372	12662
930.477	12483
930.581	12749
930.685	12563
930.79	12452
930.894	12506
930.998	12452
931.103	12585
931.207	12232
931.311	12144
931.415	11980
931.519	11824
931.623	11767
