Data from test_V78500241_2698.txt Node
Date: Fri Mar 25 16:00:29 CST 2022
User: usil
Spectrometer: V785-0024
Trigger mode: 0
Integration Time (sec): 4.000000E-1
Scans to average: 1
Nonlinearity correction enabled: false
Boxcar width: 0
Storing dark spectrum: false
XAxis mode: Wavelengths
Number of Pixels in Spectrum: 1024
>>>>>Begin Spectral Data<<<<<
801.071	28687
801.214	28656
801.356	28428
801.499	28238
801.641	28166
801.783	28268
801.926	28382
802.068	28303
802.211	28276
802.353	28147
802.496	27926
802.638	28025
802.78	27732
802.923	27907
803.065	27751
803.208	27888
803.35	27895
803.492	28070
803.635	28188
803.777	28090
803.919	28158
804.061	28379
804.204	28135
804.346	28090
804.488	28059
804.63	27975
804.773	27953
804.915	28196
805.057	28249
805.199	28044
805.341	28322
805.483	28261
805.626	28230
805.768	28200
805.91	28284
806.052	28230
806.194	28299
806.336	28622
806.478	28375
806.62	28299
806.762	28443
806.904	28531
807.046	28946
807.188	28672
807.33	28774
807.472	28854
807.614	28721
807.756	28740
807.898	28630
808.04	28485
808.182	28664
808.324	28702
808.465	28649
808.607	28877
808.749	29022
808.891	29014
809.033	29121
809.174	28999
809.316	29064
809.458	29006
809.6	28809
809.741	29128
809.883	28995
810.025	29189
810.166	29284
810.308	29208
810.45	29189
810.591	29269
810.733	28938
810.875	28934
811.016	28767
811.158	28919
811.299	29189
811.441	29086
811.582	29075
811.724	29079
811.865	28946
812.007	28946
812.148	29037
812.29	28987
812.431	29124
812.573	29459
812.714	29509
812.855	29467
812.997	29497
813.138	29775
813.279	29623
813.421	29463
813.562	29539
813.703	29269
813.845	29239
813.986	29056
814.127	28698
814.268	28725
814.41	28736
814.551	28736
814.692	28710
814.833	28641
814.974	28706
815.115	28828
815.256	28527
815.397	28615
815.539	28485
815.68	28455
815.821	28565
815.962	28382
816.103	28398
816.244	28447
816.385	28322
816.526	28257
816.666	28010
816.807	27857
816.948	28074
817.089	28287
817.23	27979
817.371	27945
817.512	27937
817.653	28101
817.793	28017
817.934	28070
818.075	28036
818.216	28021
818.356	28051
818.497	27842
818.638	27823
818.778	27633
818.919	27785
819.06	27945
819.2	28070
819.341	27949
819.481	28006
819.622	28185
819.762	28432
819.903	28166
820.043	28204
820.184	28158
820.324	28082
820.465	28207
820.605	28082
820.746	28067
820.886	28078
821.026	28143
821.167	28181
821.307	28143
821.447	27960
821.588	28036
821.728	27804
821.868	27713
822.008	27591
822.149	27644
822.289	27561
822.429	27180
822.569	27268
822.709	27157
822.849	27013
822.99	27093
823.13	27005
823.27	26944
823.41	26765
823.55	26750
823.69	26781
823.83	26849
823.97	26682
824.11	26663
824.25	26545
824.389	26674
824.529	26743
824.669	26720
824.809	26686
824.949	26727
825.089	26762
825.228	26735
825.368	26537
825.508	26446
825.648	26571
825.787	26651
825.927	26686
826.067	26541
826.206	26590
826.346	26682
826.485	26659
826.625	26659
826.765	26739
826.904	26701
827.044	26313
827.183	26347
827.323	26438
827.462	26339
827.601	26237
827.741	26259
827.88	26278
828.02	26199
828.159	26298
828.298	26332
828.437	26244
828.577	26240
828.716	26374
828.855	26149
828.994	25959
829.134	25944
829.273	25978
829.412	25955
829.551	26016
829.69	26043
829.829	25963
829.968	25978
830.107	25921
830.246	26039
830.385	26024
830.524	25830
830.663	25849
830.802	25723
830.941	25514
831.08	25537
831.219	25700
831.357	25571
831.496	25860
831.635	25639
831.774	25377
831.913	25628
832.051	25282
832.19	25453
832.329	25449
832.467	25263
832.606	25209
832.744	25255
832.883	25244
833.022	25202
833.16	25369
833.299	25247
833.437	25289
833.576	25270
833.714	25324
833.852	25327
833.991	25403
834.129	25521
834.267	25377
834.406	25339
834.544	25335
834.682	25392
834.821	25171
834.959	25556
835.097	25110
835.235	25304
835.373	25247
835.511	25392
835.65	25160
835.788	25206
835.926	25118
836.064	24890
836.202	24905
836.34	25046
836.478	25156
836.615	25107
836.753	25088
836.891	25179
837.029	25053
837.167	25027
837.305	25038
837.443	25000
837.58	25027
837.718	25034
837.856	25008
837.993	24867
838.131	24932
838.269	24920
838.406	24806
838.544	24798
838.681	24601
838.819	24650
838.956	24445
839.094	24460
839.231	24547
839.369	24585
839.506	24833
839.643	24620
839.781	24547
839.918	24323
840.055	24361
840.193	24258
840.33	24262
840.467	24292
840.604	24437
840.742	24620
840.879	24232
841.016	24235
841.153	24262
841.29	24426
841.427	24296
841.564	24266
841.701	24403
841.838	24239
841.975	24224
842.112	24270
842.249	24057
842.385	24018
842.522	24330
842.659	24163
842.796	24064
842.933	23973
843.069	24068
843.206	23802
843.343	24098
843.479	23996
843.616	24011
843.752	23904
843.889	23958
844.025	23954
844.162	23992
844.298	23882
844.435	23908
844.571	23707
844.708	23977
844.844	24003
844.98	23923
845.117	24022
845.253	23733
845.389	23748
845.525	23809
845.661	23589
845.798	23680
845.934	23695
846.07	23573
846.206	23554
846.342	23608
846.478	23535
846.614	23296
846.75	23197
846.886	23311
847.022	23391
847.158	23288
847.294	23395
847.429	23368
847.565	23170
847.701	23490
847.837	23117
847.972	23037
848.108	23098
848.244	23140
848.379	22938
848.515	22896
848.65	22911
848.786	22869
848.921	23003
849.057	22949
849.192	23071
849.328	22854
849.463	22980
849.598	22774
849.734	22740
849.869	22793
850.004	22546
850.14	22668
850.275	22744
850.41	22584
850.545	22611
850.68	22656
850.815	22767
850.95	22698
851.085	22847
851.22	22752
851.355	22691
851.49	22622
851.625	22569
851.76	22733
851.895	22596
852.03	22672
852.165	22653
852.299	22645
852.434	22721
852.569	22694
852.703	22630
852.838	22637
852.973	22793
853.107	22675
853.242	22580
853.376	22497
853.511	22238
853.645	22504
853.78	22607
853.914	22489
854.048	22413
854.183	22375
854.317	22485
854.451	22615
854.585	22584
854.72	22382
854.854	22470
854.988	22306
855.122	22424
855.256	22386
855.39	22390
855.524	22618
855.658	22478
855.792	22592
855.926	22630
856.06	22599
856.194	22630
856.327	22402
856.461	22375
856.595	22341
856.729	22512
856.862	22538
856.996	22550
857.13	22584
857.263	22683
857.397	22508
857.53	22459
857.664	22489
857.797	22432
857.931	22569
858.064	22588
858.197	22630
858.331	22466
858.464	22470
858.597	22390
858.731	22500
858.864	22348
858.997	22497
859.13	22481
859.263	22535
859.396	22493
859.529	22382
859.662	22417
859.795	22344
859.928	22409
860.061	22618
860.194	22637
860.327	22645
860.46	22588
860.592	22645
860.725	22691
860.858	22580
860.99	22489
861.123	22428
861.256	22413
861.388	22466
861.521	23223
861.653	22325
861.786	22272
861.918	22386
862.05	22348
862.183	22363
862.315	22386
862.447	22500
862.58	22398
862.712	22230
862.844	22200
862.976	22398
863.108	22306
863.24	22694
863.372	22120
863.504	22177
863.636	22211
863.768	22226
863.9	22185
864.032	22074
864.164	22059
864.296	22097
864.428	22398
864.559	22124
864.691	22261
864.823	22158
864.954	22143
865.086	22051
865.217	22105
865.349	21934
865.48	22032
865.612	22032
865.743	22124
865.875	22017
866.006	22112
866.137	22112
866.269	21926
866.4	22105
866.531	21953
866.662	21937
866.793	22002
866.924	22032
867.055	21975
867.186	22032
867.317	21987
867.448	21945
867.579	21945
867.71	21899
867.841	21865
867.972	21934
868.103	21838
868.233	22086
868.364	21960
868.495	22109
868.625	22230
868.756	22261
868.886	22192
869.017	22303
869.147	22234
869.278	22310
869.408	22329
869.539	22261
869.669	22284
869.799	22257
869.929	22348
870.06	22356
870.19	22447
870.32	22443
870.45	22607
870.58	22702
870.71	22706
870.84	22740
870.97	22588
871.1	22596
871.23	22771
871.36	22873
871.489	22656
871.619	22869
871.749	22797
871.879	22862
872.008	22911
872.138	22828
872.267	22790
872.397	22713
872.526	22565
872.656	22698
872.785	22672
872.915	22911
873.044	22915
873.173	22911
873.303	22835
873.432	22961
873.561	22862
873.69	22862
873.819	22862
873.948	22828
874.077	22793
874.206	22854
874.335	22908
874.464	22854
874.593	23071
874.722	23060
874.851	23079
874.979	22987
875.108	23159
875.237	23010
875.365	22927
875.494	23170
875.623	23060
875.751	23037
875.88	23029
876.008	23170
876.136	23254
876.265	23417
876.393	23638
876.521	23505
876.65	23516
876.778	23528
876.906	23315
877.034	23311
877.162	23467
877.29	23368
877.418	23436
877.546	23356
877.674	23414
877.802	23383
877.93	23372
878.058	23296
878.185	23200
878.313	23250
878.441	23448
878.568	23292
878.696	23322
878.824	23330
878.951	23486
879.079	23551
879.206	23775
879.333	23554
879.461	23406
879.588	23452
879.715	23562
879.842	23627
879.97	23421
880.097	23212
880.224	23208
880.351	23318
880.478	23250
880.605	23200
880.732	23299
880.859	23516
880.986	23292
881.112	23216
881.239	23128
881.366	23071
881.493	22987
881.619	22816
881.746	22873
881.872	22816
881.999	22713
882.125	22774
882.252	22809
882.378	22687
882.505	22869
882.631	22645
882.757	22447
882.883	22603
883.01	22386
883.136	22356
883.262	22230
883.388	22147
883.514	22451
883.64	22421
883.766	22234
883.892	22177
884.018	22287
884.143	22402
884.269	22424
884.395	22036
884.52	22109
884.646	22162
884.772	22120
884.897	21956
885.023	22116
885.148	22276
885.274	22181
885.399	22265
885.524	22181
885.65	22055
885.775	22135
885.9	22002
886.025	22185
886.15	22109
886.275	21991
886.4	22078
886.525	22116
886.65	21937
886.775	21956
886.9	22097
887.025	22356
887.149	21998
887.274	21854
887.399	21846
887.523	21732
887.648	21842
887.773	21739
887.897	21827
888.021	21884
888.146	21842
888.27	21865
888.395	21907
888.519	21991
888.643	21789
888.767	21850
888.891	21781
889.015	21530
889.139	21701
889.263	21599
889.387	21663
889.511	21759
889.635	21728
889.759	21553
889.883	21637
890.006	21595
890.13	21701
890.254	21458
890.377	21561
890.501	21397
890.624	21325
890.748	21386
890.871	21245
890.995	21184
891.118	21184
891.241	21154
891.364	21108
891.488	21351
891.611	21245
891.734	21104
891.857	21256
891.98	21096
892.103	21195
892.226	21199
892.349	21085
892.471	21085
892.594	21222
892.717	21070
892.839	21104
892.962	21058
893.085	21024
893.207	20986
893.33	20967
893.452	21070
893.575	21104
893.697	21093
893.819	21268
893.941	21275
894.064	21161
894.186	21081
894.308	20956
894.43	21058
894.552	21211
894.674	21169
894.796	21020
894.918	21096
895.04	21024
895.161	21123
895.283	21199
895.405	21013
895.526	21001
895.648	20853
895.769	21036
895.891	21058
896.012	21058
896.134	21077
896.255	21020
896.376	21028
896.498	21032
896.619	21066
896.74	21108
896.861	21032
896.982	21363
897.103	21370
897.224	21237
897.345	21321
897.466	21211
897.587	21237
897.708	21287
897.828	21310
897.949	21233
898.07	21104
898.19	21157
898.311	21241
898.431	21275
898.552	21165
898.672	21298
898.792	21268
898.913	21351
899.033	21199
899.153	20990
899.273	20918
899.393	20960
899.513	21055
899.633	21032
899.753	21066
899.873	20921
899.993	21009
900.113	20849
900.232	20948
900.352	20819
900.472	20720
900.591	20746
900.711	20773
900.83	20811
900.95	20800
901.069	20830
901.189	20629
901.308	20400
901.427	20336
901.546	20355
901.665	20419
901.784	20385
901.904	20100
902.023	20145
902.141	19951
902.26	19883
902.379	19906
902.498	19845
902.617	19769
902.735	19940
902.854	19830
902.973	19765
903.091	19510
903.21	19468
903.328	19457
903.446	19499
903.565	19293
903.683	19304
903.801	19175
903.919	19255
904.038	19247
904.156	18996
904.274	19099
904.392	19046
904.51	19065
904.627	18954
904.745	19050
904.863	19114
904.981	18810
905.098	18726
905.216	18764
905.334	18768
905.451	18772
905.569	18620
905.686	18745
905.803	18692
905.921	18578
906.038	18692
906.155	18536
906.272	18429
906.389	18357
906.506	18292
906.623	18296
906.74	18201
906.857	18106
906.974	18216
907.091	18273
907.208	18315
907.324	18262
907.441	18133
907.557	17973
907.674	18083
907.79	17836
907.907	17836
908.023	17920
908.139	17954
908.256	17855
908.372	17828
908.488	17882
908.604	17596
908.72	17604
908.836	17619
908.952	17592
909.068	17547
909.184	17802
909.3	17554
909.415	17737
909.531	17581
909.647	17345
909.762	17379
909.878	17356
909.993	17311
910.108	17254
910.224	17269
910.339	17227
910.454	17231
910.57	17113
910.685	17041
910.8	17250
910.915	17208
911.03	17105
911.145	16972
911.259	16946
911.374	16930
911.489	16889
911.604	16713
911.718	16637
911.833	16733
911.947	16531
912.062	16424
912.176	16710
912.291	16599
912.405	16596
912.519	16866
912.633	16812
912.748	16664
912.862	16558
912.976	16470
913.09	16322
913.204	16436
913.318	16428
913.431	16630
913.545	16519
913.659	16569
913.772	16382
913.886	16226
914	16295
914.113	16322
914.226	16405
914.34	16337
914.453	16101
914.566	16360
914.68	16090
914.793	16090
914.906	15888
915.019	15892
915.132	15804
915.245	15831
915.358	15918
915.47	15838
915.583	15808
915.696	15755
915.809	15823
915.921	15922
916.034	15831
916.146	15682
916.259	15743
916.371	15789
916.483	15759
916.595	15641
916.708	15633
916.82	15694
916.932	15652
917.044	15622
917.156	15580
917.268	15492
917.38	15466
917.491	15549
917.603	15462
917.715	15523
917.826	15641
917.938	15466
918.049	15431
918.161	15408
918.272	15538
918.384	15496
918.495	15363
918.606	15214
918.717	15135
918.828	15233
918.939	15165
919.05	15169
919.161	15203
919.272	14925
919.383	15001
919.494	15325
919.604	15458
919.715	15161
919.826	15043
919.936	15203
920.047	15214
920.157	15176
920.267	15393
920.378	15222
920.488	15188
920.598	15313
920.708	15466
920.818	15260
920.928	15264
921.038	15462
921.148	15386
921.258	15135
921.368	14941
921.477	14952
921.587	14838
921.697	14773
921.806	14868
921.916	14724
922.025	14556
922.134	14488
922.244	14442
922.353	14533
922.462	14415
922.571	14343
922.68	14130
922.789	14164
922.898	14256
923.007	14077
923.116	14107
923.224	14195
923.333	14142
923.442	13982
923.55	13974
923.659	13970
923.767	14027
923.876	13970
923.984	13967
924.092	13837
924.201	13849
924.309	13898
924.417	13860
924.525	13849
924.633	13811
924.741	14773
924.849	13647
924.956	13712
925.064	13636
925.172	13480
925.279	13518
925.387	13563
925.494	13575
925.602	13670
925.709	13582
925.816	13480
925.924	13540
926.031	13594
926.138	13468
926.245	13499
926.352	13430
926.459	13441
926.566	13514
926.673	13339
926.779	13308
926.886	13278
926.993	13133
927.099	13114
927.206	12970
927.312	13012
927.419	13103
927.525	13072
927.631	13057
927.737	12973
927.843	12989
927.95	12795
928.056	12833
928.162	12867
928.267	12916
928.373	13438
928.479	12909
928.585	12654
928.69	12840
928.796	12863
928.901	12711
929.007	12669
929.112	12711
929.218	12582
929.323	12536
929.428	12612
929.533	12776
929.638	12517
929.743	12578
929.848	12574
929.953	12646
930.058	12483
930.163	12281
930.267	12254
930.372	12414
930.477	12258
930.581	12448
930.685	12273
930.79	12171
930.894	12201
930.998	12083
931.103	12247
931.207	11912
931.311	11836
931.415	11634
931.519	11627
931.623	11501
