Data from test_V78500241_3484.txt Node
Date: Fri Mar 25 16:05:56 CST 2022
User: usil
Spectrometer: V785-0024
Trigger mode: 0
Integration Time (sec): 4.000000E-1
Scans to average: 1
Nonlinearity correction enabled: false
Boxcar width: 0
Storing dark spectrum: false
XAxis mode: Wavelengths
Number of Pixels in Spectrum: 1024
>>>>>Begin Spectral Data<<<<<
801.071	29044
801.214	29029
801.356	28820
801.499	28675
801.641	28497
801.783	28645
801.926	28668
802.068	28641
802.211	28519
802.353	28634
802.496	28371
802.638	28375
802.78	28337
802.923	28360
803.065	28211
803.208	28272
803.35	28371
803.492	28474
803.635	28531
803.777	28474
803.919	28569
804.061	28927
804.204	28527
804.346	28459
804.488	28421
804.63	28565
804.773	28622
804.915	28736
805.057	28820
805.199	28691
805.341	28637
805.483	28774
805.626	28698
805.768	28660
805.91	28660
806.052	28911
806.194	28687
806.336	28946
806.478	28771
806.62	28698
806.762	28923
806.904	29155
807.046	29311
807.188	29181
807.33	29250
807.472	29345
807.614	29265
807.756	29174
807.898	29083
808.04	29105
808.182	28968
808.324	29056
808.465	29105
808.607	29292
808.749	29539
808.891	29638
809.033	29570
809.174	29516
809.316	29421
809.458	29547
809.6	29421
809.741	29539
809.883	29551
810.025	29783
810.166	29707
810.308	29775
810.45	29729
810.591	29608
810.733	29543
810.875	29474
811.016	29452
811.158	29368
811.299	29649
811.441	29733
811.582	29767
811.724	29585
811.865	29501
812.007	29554
812.148	29608
812.29	29596
812.431	29691
812.573	29779
812.714	29927
812.855	29969
812.997	30060
813.138	30186
813.279	30140
813.421	30057
813.562	29904
813.703	29836
813.845	29722
813.986	29547
814.127	29341
814.268	29162
814.41	29143
814.551	29239
814.692	29246
814.833	29086
814.974	29235
815.115	29151
815.256	28930
815.397	28995
815.539	29143
815.68	29041
815.821	28972
815.962	29124
816.103	28793
816.244	28972
816.385	28812
816.526	28744
816.666	28573
816.807	28607
816.948	28550
817.089	28637
817.23	28561
817.371	28504
817.512	28592
817.653	28428
817.793	28523
817.934	28523
818.075	28409
818.216	28653
818.356	28546
818.497	28451
818.638	28211
818.778	28211
818.919	28363
819.06	28367
819.2	28386
819.341	28649
819.481	28516
819.622	28748
819.762	28831
819.903	28873
820.043	28713
820.184	28698
820.324	28660
820.465	28752
820.605	28615
820.746	28611
820.886	28577
821.026	28489
821.167	28561
821.307	28656
821.447	28493
821.588	28546
821.728	28413
821.868	28105
822.008	28093
822.149	27953
822.289	28097
822.429	27854
822.569	27873
822.709	27739
822.849	27625
822.99	27572
823.13	27580
823.27	27564
823.41	27427
823.55	27275
823.69	27344
823.83	27355
823.97	27317
824.11	27108
824.25	27230
824.389	27074
824.529	27173
824.669	27123
824.809	27165
824.949	27325
825.089	27226
825.228	27245
825.368	27047
825.508	26918
825.648	27055
825.787	27013
825.927	27161
826.067	26979
826.206	27047
826.346	27070
826.485	27089
826.625	27096
826.765	27207
826.904	27100
827.044	26834
827.183	26960
827.323	26731
827.462	26754
827.601	26842
827.741	26777
827.88	26838
828.02	26739
828.159	26815
828.298	26629
828.437	26823
828.577	26773
828.716	26823
828.855	26724
828.994	26609
829.134	26438
829.273	26476
829.412	26370
829.551	26473
829.69	26530
829.829	26594
829.968	26575
830.107	26457
830.246	26438
830.385	26476
830.524	26423
830.663	26355
830.802	26298
830.941	26195
831.08	25982
831.219	26054
831.357	26195
831.496	26480
831.635	26050
831.774	25989
831.913	25944
832.051	25845
832.19	25677
832.329	25917
832.467	25715
832.606	25670
832.744	25670
832.883	25681
833.022	25594
833.16	25811
833.299	25925
833.437	25841
833.576	25674
833.714	25750
833.852	25750
833.991	25826
834.129	25879
834.267	25906
834.406	25852
834.544	25944
834.682	25799
834.821	25795
834.959	26005
835.097	25750
835.235	25833
835.373	25807
835.511	25769
835.65	25715
835.788	25632
835.926	25620
836.064	25521
836.202	25422
836.34	25582
836.478	25814
836.615	25620
836.753	25708
836.891	25491
837.029	25594
837.167	25685
837.305	25601
837.443	25460
837.58	25384
837.718	25624
837.856	25487
837.993	25411
838.131	25441
838.269	25430
838.406	25441
838.544	25388
838.681	25046
838.819	25069
838.956	24806
839.094	24954
839.231	24840
839.369	25065
839.506	25327
839.643	25312
839.781	24913
839.918	24856
840.055	24970
840.193	24810
840.33	24791
840.467	24890
840.604	24871
840.742	25076
840.879	24745
841.016	24715
841.153	24650
841.29	24886
841.427	24681
841.564	24894
841.701	24734
841.838	24764
841.975	24749
842.112	24852
842.249	24669
842.385	24570
842.522	24768
842.659	24578
842.796	24563
842.933	24536
843.069	24475
843.206	24540
843.343	24589
843.479	24517
843.616	24616
843.752	24388
843.889	24350
844.025	24464
844.162	24410
844.298	24429
844.435	24376
844.571	24380
844.708	24372
844.844	24544
844.98	24467
845.117	24330
845.253	24220
845.389	24083
845.525	24216
845.661	24209
845.798	24178
845.934	24159
846.07	23992
846.206	24159
846.342	24235
846.478	24060
846.614	23863
846.75	23741
846.886	23718
847.022	23843
847.158	23756
847.294	23893
847.429	23813
847.565	23756
847.701	24011
847.837	23581
847.972	23577
848.108	23638
848.244	23684
848.379	23467
848.515	23391
848.65	23417
848.786	23322
848.921	23429
849.057	23482
849.192	23395
849.328	23471
849.463	23395
849.598	23337
849.734	23315
849.869	23277
850.004	23086
850.14	23299
850.275	23193
850.41	23113
850.545	23121
850.68	23124
850.815	23174
850.95	23292
851.085	23436
851.22	23265
851.355	23098
851.49	23044
851.625	23094
851.76	23185
851.895	23155
852.03	23105
852.165	23166
852.299	23090
852.434	23231
852.569	23216
852.703	23090
852.838	23204
852.973	23204
853.107	23174
853.242	23113
853.376	22976
853.511	22854
853.645	22946
853.78	23105
853.914	22942
854.048	22934
854.183	22904
854.317	23033
854.451	23220
854.585	23033
854.72	23010
854.854	23071
854.988	22877
855.122	22999
855.256	22824
855.39	22991
855.524	23052
855.658	23014
855.792	23071
855.926	23029
856.06	23064
856.194	22938
856.327	23033
856.461	22972
856.595	23083
856.729	22961
856.862	23064
856.996	22984
857.13	22869
857.263	23067
857.397	23025
857.53	22915
857.664	23044
857.797	23018
857.931	23006
858.064	23124
858.197	23102
858.331	22946
858.464	22862
858.597	22858
858.731	22949
858.864	22896
858.997	22972
859.13	23060
859.263	22976
859.396	23006
859.529	22828
859.662	22942
859.795	22915
859.928	22999
860.061	23094
860.194	23181
860.327	23037
860.46	23086
860.592	23052
860.725	23094
860.858	23094
860.99	23037
861.123	22862
861.256	22892
861.388	22991
861.521	23687
861.653	22942
861.786	22580
861.918	22755
862.05	22843
862.183	22930
862.315	22968
862.447	22995
862.58	22831
862.712	22740
862.844	22622
862.976	22786
863.108	22740
863.24	23071
863.372	22603
863.504	22691
863.636	22637
863.768	22786
863.9	22649
864.032	22584
864.164	22683
864.296	22706
864.428	22710
864.559	22710
864.691	22694
864.823	22683
864.954	22634
865.086	22759
865.217	22569
865.349	22459
865.48	22603
865.612	22596
865.743	22752
865.875	22527
866.006	22584
866.137	22626
866.269	22481
866.4	22421
866.531	22440
866.662	22352
866.793	22519
866.924	22341
867.055	22573
867.186	22516
867.317	22497
867.448	22409
867.579	22402
867.71	22295
867.841	22394
867.972	22348
868.103	22550
868.233	22504
868.364	22508
868.495	22656
868.625	22797
868.756	22801
868.886	22675
869.017	22687
869.147	22809
869.278	22706
869.408	22691
869.539	22771
869.669	22763
869.799	22706
869.929	22831
870.06	22889
870.19	22892
870.32	22904
870.45	23079
870.58	23185
870.71	23223
870.84	23200
870.97	23189
871.1	23102
871.23	23353
871.36	23265
871.489	23345
871.619	23288
871.749	23303
871.879	23402
872.008	23315
872.138	23231
872.267	23296
872.397	23174
872.526	23140
872.656	23102
872.785	23193
872.915	23337
873.044	23448
873.173	23299
873.303	23315
873.432	23277
873.561	23558
873.69	23265
873.819	23250
873.948	23322
874.077	23269
874.206	23212
874.335	23360
874.464	23387
874.593	23649
874.722	23455
874.851	23596
874.979	23551
875.108	23524
875.237	23535
875.365	23429
875.494	23414
875.623	23566
875.751	23490
875.88	23493
876.008	23611
876.136	23691
876.265	23984
876.393	24205
876.521	24064
876.65	23927
876.778	23958
876.906	23893
877.034	23931
877.162	23855
877.29	23874
877.418	23912
877.546	24015
877.674	23866
877.802	23923
877.93	23874
878.058	23783
878.185	23786
878.313	23885
878.441	23828
878.568	23668
878.696	23668
878.824	23950
878.951	23977
879.079	23958
879.206	24125
879.333	23977
879.461	23889
879.588	23923
879.715	24038
879.842	24186
879.97	24038
880.097	23726
880.224	23824
880.351	23767
880.478	23775
880.605	23695
880.732	23767
880.859	23901
880.986	23737
881.112	23680
881.239	23585
881.366	23425
881.493	23345
881.619	23246
881.746	23227
881.872	23143
881.999	23280
882.125	23273
882.252	23181
882.378	23345
882.505	23250
882.631	23067
882.757	22961
882.883	22976
883.01	22942
883.136	22820
883.262	22706
883.388	22774
883.514	22824
883.64	22911
883.766	22850
883.892	22599
884.018	22809
884.143	22702
884.269	22965
884.395	22580
884.52	22550
884.646	22592
884.772	22573
884.897	22573
885.023	22588
885.148	22607
885.274	22687
885.399	22713
885.524	22550
885.65	22527
885.775	22615
885.9	22493
886.025	22660
886.15	22535
886.275	22440
886.4	22500
886.525	22451
886.65	22417
886.775	22470
886.9	22656
887.025	22717
887.149	22379
887.274	22299
887.399	22185
887.523	22337
887.648	22185
887.773	22200
887.897	22318
888.021	22287
888.146	22143
888.27	22382
888.395	22234
888.519	22394
888.643	22280
888.767	22394
888.891	22310
889.015	22105
889.139	22055
889.263	22025
889.387	22177
889.511	22223
889.635	22276
889.759	22101
889.883	22074
890.006	22059
890.13	22013
890.254	21968
890.377	22025
890.501	21911
890.624	21816
890.748	21857
890.871	21671
890.995	21648
891.118	21530
891.241	21641
891.364	21686
891.488	21854
891.611	21732
891.734	21583
891.857	21705
891.98	21739
892.103	21682
892.226	21542
892.349	21553
892.471	21401
892.594	21591
892.717	21568
892.839	21576
892.962	21507
893.085	21507
893.207	21420
893.33	21302
893.452	21420
893.575	21412
893.697	21633
893.819	21682
893.941	21576
894.064	21583
894.186	21477
894.308	21321
894.43	21637
894.552	21682
894.674	21450
894.796	21378
894.918	21519
895.04	21473
895.161	21500
895.283	21580
895.405	21466
895.526	21469
895.648	21454
895.769	21363
895.891	21530
896.012	21458
896.134	21530
896.255	21428
896.376	21477
896.498	21435
896.619	21481
896.74	21431
896.861	21523
896.982	21759
897.103	21926
897.224	21739
897.345	21587
897.466	21671
897.587	21713
897.708	21652
897.828	21701
897.949	21549
898.07	21378
898.19	21572
898.311	21667
898.431	21564
898.552	21614
898.672	21736
898.792	21701
898.913	21701
899.033	21424
899.153	21378
899.273	21310
899.393	21443
899.513	21332
899.633	21450
899.753	21325
899.873	21233
899.993	21401
900.113	21386
900.232	21298
900.352	21287
900.472	21310
900.591	21165
900.711	21161
900.83	21039
900.95	21256
901.069	21321
901.189	20944
901.308	20811
901.427	20712
901.546	20655
901.665	20632
901.784	20769
901.904	20564
902.023	20419
902.141	20404
902.26	20214
902.379	20206
902.498	20248
902.617	20103
902.735	20221
902.854	20244
902.973	20122
903.091	19928
903.21	19871
903.328	19890
903.446	19887
903.565	19731
903.683	19567
903.801	19506
903.919	19628
904.038	19529
904.156	19453
904.274	19411
904.392	19324
904.51	19407
904.627	19415
904.745	19510
904.863	19453
904.981	19255
905.098	19065
905.216	19053
905.334	19042
905.451	19152
905.569	19027
905.686	19133
905.803	19050
905.921	18749
906.038	18848
906.155	18966
906.272	18635
906.389	18692
906.506	18639
906.623	18681
906.74	18688
906.857	18532
906.974	18608
907.091	18604
907.208	18757
907.324	18479
907.441	18494
907.557	18369
907.674	18338
907.79	18304
907.907	18178
908.023	18330
908.139	18357
908.256	18273
908.372	18228
908.488	18262
908.604	18034
908.72	18026
908.836	18121
908.952	17984
909.068	18041
909.184	18125
909.3	17939
909.415	17984
909.531	17988
909.647	17790
909.762	17722
909.878	17657
909.993	17847
910.108	17687
910.224	17577
910.339	17684
910.454	17661
910.57	17414
910.685	17284
910.8	17802
910.915	17619
911.03	17433
911.145	17204
911.259	17303
911.374	17269
911.489	17231
911.604	17216
911.718	16976
911.833	17010
911.947	16991
912.062	16843
912.176	16953
912.291	17117
912.405	17014
912.519	17197
912.633	17174
912.748	17048
912.862	16923
912.976	16725
913.09	16755
913.204	16755
913.318	16843
913.431	16869
913.545	16843
913.659	16927
913.772	16778
913.886	16607
914	16637
914.113	16698
914.226	16767
914.34	16656
914.453	16459
914.566	16675
914.68	16428
914.793	16466
914.906	16223
915.019	16150
915.132	16082
915.245	16158
915.358	16154
915.47	16211
915.583	16173
915.696	16242
915.809	16291
915.921	16284
916.034	16074
916.146	16147
916.259	16021
916.371	16059
916.483	16032
916.595	16093
916.708	15911
916.82	16021
916.932	15884
917.044	15922
917.156	15884
917.268	15785
917.38	15762
917.491	15857
917.603	15732
917.715	15915
917.826	15903
917.938	15717
918.049	15648
918.161	15724
918.272	15876
918.384	15770
918.495	15641
918.606	15534
918.717	15450
918.828	15641
918.939	15568
919.05	15416
919.161	15610
919.272	15214
919.383	15416
919.494	15580
919.604	15717
919.715	15466
919.826	15382
919.936	15431
920.047	15439
920.157	15507
920.267	15633
920.378	15466
920.488	15450
920.598	15728
920.708	15797
920.818	15564
920.928	15690
921.038	15663
921.148	15701
921.258	15428
921.368	15355
921.477	15241
921.587	15165
921.697	15127
921.806	15245
921.916	14967
922.025	14804
922.134	14800
922.244	14834
922.353	14849
922.462	14781
922.571	14651
922.68	14434
922.789	14438
922.898	14492
923.007	14282
923.116	14442
923.224	14488
923.333	14362
923.442	14271
923.55	14267
923.659	14225
923.767	14290
923.876	14259
923.984	14366
924.092	14145
924.201	14168
924.309	14233
924.417	14153
924.525	14103
924.633	14035
924.741	14743
924.849	13849
924.956	14077
925.064	13864
925.172	13780
925.279	13769
925.387	13799
925.494	13803
925.602	14008
925.709	13833
925.816	13757
925.924	13712
926.031	13879
926.138	13708
926.245	13776
926.352	13651
926.459	13769
926.566	13780
926.673	13685
926.779	13616
926.886	13552
926.993	13369
927.099	13388
927.206	13282
927.312	13289
927.419	13358
927.525	13301
927.631	13400
927.737	13187
927.843	13209
927.95	13038
928.056	13145
928.162	13228
928.267	13149
928.373	13776
928.479	13244
928.585	13015
928.69	13156
928.796	13118
928.901	12973
929.007	12882
929.112	13046
929.218	12981
929.323	12878
929.428	12939
929.533	13027
929.638	12859
929.743	12806
929.848	12795
929.953	12745
930.058	12642
930.163	12483
930.267	12582
930.372	12688
930.477	12452
930.581	12677
930.685	12528
930.79	12353
930.894	12429
930.998	12292
931.103	12441
931.207	12098
931.311	12064
931.415	12007
931.519	11790
931.623	11756
