Data from test_V78500241_3748.txt Node
Date: Fri Mar 25 16:07:45 CST 2022
User: usil
Spectrometer: V785-0024
Trigger mode: 0
Integration Time (sec): 4.000000E-1
Scans to average: 1
Nonlinearity correction enabled: false
Boxcar width: 0
Storing dark spectrum: false
XAxis mode: Wavelengths
Number of Pixels in Spectrum: 1024
>>>>>Begin Spectral Data<<<<<
801.071	28181
801.214	28139
801.356	27941
801.499	27964
801.641	27819
801.783	27816
801.926	27797
802.068	27720
802.211	27557
802.353	27610
802.496	27412
802.638	27519
802.78	27363
802.923	27313
803.065	27363
803.208	27473
803.35	27534
803.492	27648
803.635	27694
803.777	27447
803.919	27656
804.061	27937
804.204	27705
804.346	27610
804.488	27401
804.63	27675
804.773	27622
804.915	27743
805.057	27732
805.199	27633
805.341	27728
805.483	27857
805.626	27888
805.768	27652
805.91	27675
806.052	27968
806.194	27724
806.336	28063
806.478	27827
806.62	27808
806.762	27914
806.904	28116
807.046	28401
807.188	28154
807.33	28329
807.472	28375
807.614	28059
807.756	28223
807.898	28112
808.04	28135
808.182	27937
808.324	28021
808.465	28257
808.607	28428
808.749	28478
808.891	28485
809.033	28626
809.174	28535
809.316	28360
809.458	28508
809.6	28371
809.741	28573
809.883	28615
810.025	28736
810.166	28809
810.308	28694
810.45	28683
810.591	28847
810.733	28478
810.875	28344
811.016	28447
811.158	28344
811.299	28557
811.441	28565
811.582	28649
811.724	28436
811.865	28440
812.007	28455
812.148	28489
812.29	28470
812.431	28660
812.573	28786
812.714	28934
812.855	29109
812.997	29140
813.138	29303
813.279	29162
813.421	28976
813.562	28820
813.703	28767
813.845	28527
813.986	28493
814.127	28363
814.268	28158
814.41	28200
814.551	28169
814.692	28280
814.833	27987
814.974	28177
815.115	28238
815.256	27949
815.397	28101
815.539	28036
815.68	27968
815.821	27934
815.962	28112
816.103	28059
816.244	27785
816.385	27720
816.526	27720
816.666	27511
816.807	27485
816.948	27507
817.089	27587
817.23	27542
817.371	27412
817.512	27447
817.653	27473
817.793	27401
817.934	27496
818.075	27382
818.216	27526
818.356	27283
818.497	27431
818.638	27329
818.778	27359
818.919	27154
819.06	27302
819.2	27367
819.341	27553
819.481	27511
819.622	27568
819.762	27797
819.903	27720
820.043	27774
820.184	27580
820.324	27542
820.465	27633
820.605	27580
820.746	27622
820.886	27618
821.026	27576
821.167	27622
821.307	27667
821.447	27458
821.588	27473
821.728	27165
821.868	27176
822.008	27058
822.149	26952
822.289	26944
822.429	26735
822.569	26686
822.709	26693
822.849	26522
822.99	26503
823.13	26389
823.27	26370
823.41	26294
823.55	26001
823.69	26191
823.83	26278
823.97	26088
824.11	26088
824.25	25925
824.389	26005
824.529	26263
824.669	26092
824.809	26267
824.949	26111
825.089	26206
825.228	26126
825.368	25932
825.508	25947
825.648	25906
825.787	25963
825.927	25989
826.067	25849
826.206	25921
826.346	26012
826.485	26031
826.625	25986
826.765	26145
826.904	26016
827.044	25803
827.183	25807
827.323	25613
827.462	25681
827.601	25708
827.741	25693
827.88	25780
828.02	25597
828.159	25635
828.298	25708
828.437	25693
828.577	25597
828.716	25662
828.855	25506
828.994	25483
829.134	25369
829.273	25419
829.412	25346
829.551	25392
829.69	25335
829.829	25422
829.968	25472
830.107	25339
830.246	25396
830.385	25221
830.524	25335
830.663	25225
830.802	25057
830.941	25034
831.08	24894
831.219	25027
831.357	25088
831.496	25141
831.635	24992
831.774	24833
831.913	24935
832.051	24825
832.19	24772
832.329	24745
832.467	24616
832.606	24646
832.744	24620
832.883	24658
833.022	24559
833.16	24646
833.299	24673
833.437	24745
833.576	24707
833.714	24681
833.852	24783
833.991	24817
834.129	24806
834.267	24730
834.406	24684
834.544	24852
834.682	24757
834.821	24673
834.959	24791
835.097	24692
835.235	24886
835.373	24673
835.511	24719
835.65	24521
835.788	24460
835.926	24452
836.064	24369
836.202	24391
836.34	24582
836.478	24547
836.615	24566
836.753	24582
836.891	24623
837.029	24623
837.167	24445
837.305	24376
837.443	24410
837.58	24361
837.718	24445
837.856	24357
837.993	24369
838.131	24426
838.269	24194
838.406	24239
838.544	24152
838.681	24064
838.819	24167
838.956	23969
839.094	23726
839.231	23908
839.369	24114
839.506	24152
839.643	24133
839.781	23923
839.918	23828
840.055	23828
840.193	23859
840.33	23821
840.467	23790
840.604	23581
840.742	24034
840.879	23756
841.016	23695
841.153	23600
841.29	23836
841.427	23840
841.564	23817
841.701	23729
841.838	23623
841.975	23661
842.112	23646
842.249	23509
842.385	23482
842.522	23737
842.659	23512
842.796	23558
842.933	23531
843.069	23581
843.206	23463
843.343	23531
843.479	23395
843.616	23558
843.752	23341
843.889	23440
844.025	23455
844.162	23277
844.298	23497
844.435	23330
844.571	23231
844.708	23315
844.844	23440
844.98	23433
845.117	23395
845.253	23151
845.389	23067
845.525	23193
845.661	23102
845.798	22911
845.934	23128
846.07	22984
846.206	23083
846.342	23083
846.478	23048
846.614	22790
846.75	22755
846.886	22702
847.022	22911
847.158	22896
847.294	22710
847.429	22793
847.565	22736
847.701	23041
847.837	22481
847.972	22485
848.108	22645
848.244	22622
848.379	22386
848.515	22249
848.65	22363
848.786	22432
848.921	22348
849.057	22405
849.192	22417
849.328	22443
849.463	22295
849.598	22147
849.734	22196
849.869	22223
850.004	22070
850.14	22177
850.275	22029
850.41	22036
850.545	21903
850.68	22070
850.815	22150
850.95	22101
851.085	22291
851.22	22249
851.355	22246
851.49	22067
851.625	22029
851.76	22139
851.895	22169
852.03	21915
852.165	22150
852.299	22135
852.434	22162
852.569	22173
852.703	22055
852.838	22181
852.973	22287
853.107	22188
853.242	21956
853.376	21998
853.511	21854
853.645	21793
853.78	22147
853.914	22059
854.048	21987
854.183	21915
854.317	21918
854.451	22051
854.585	21850
854.72	21975
854.854	21994
854.988	21937
855.122	21987
855.256	21789
855.39	21880
855.524	21937
855.658	21911
855.792	21884
855.926	22002
856.06	21873
856.194	21895
856.327	21869
856.461	21842
856.595	21865
856.729	21880
856.862	22040
856.996	22029
857.13	21972
857.263	21994
857.397	22097
857.53	22002
857.664	21994
857.797	21979
857.931	22063
858.064	22025
858.197	21987
858.331	21876
858.464	21831
858.597	21755
858.731	21945
858.864	21953
858.997	21869
859.13	21979
859.263	21846
859.396	21956
859.529	21979
859.662	22036
859.795	21953
859.928	21884
860.061	22181
860.194	22173
860.327	21987
860.46	22002
860.592	22044
860.725	22105
860.858	22086
860.99	22063
861.123	21899
861.256	22013
861.388	22017
861.521	22630
861.653	21705
861.786	21766
861.918	21865
862.05	21778
862.183	21892
862.315	21899
862.447	21987
862.58	21793
862.712	21686
862.844	21713
862.976	21701
863.108	21759
863.24	22196
863.372	21618
863.504	21705
863.636	21675
863.768	21637
863.9	21713
864.032	21599
864.164	21606
864.296	21717
864.428	21709
864.559	21705
864.691	21686
864.823	21663
864.954	21663
865.086	21656
865.217	21580
865.349	21458
865.48	21622
865.612	21583
865.743	21755
865.875	21572
866.006	21519
866.137	21622
866.269	21538
866.4	21648
866.531	21431
866.662	21386
866.793	21405
866.924	21526
867.055	21443
867.186	21416
867.317	21466
867.448	21416
867.579	21325
867.71	21317
867.841	21454
867.972	21580
868.103	21534
868.233	21481
868.364	21363
868.495	21564
868.625	21690
868.756	21842
868.886	21743
869.017	21686
869.147	21770
869.278	21899
869.408	21686
869.539	21728
869.669	21732
869.799	21728
869.929	21717
870.06	21739
870.19	22044
870.32	21945
870.45	22078
870.58	22082
870.71	22246
870.84	22226
870.97	22021
871.1	22036
871.23	22314
871.36	22375
871.489	22074
871.619	22318
871.749	22306
871.879	22310
872.008	22459
872.138	22379
872.267	22306
872.397	22226
872.526	22002
872.656	22287
872.785	22215
872.915	22306
873.044	22432
873.173	22166
873.303	22314
873.432	22363
873.561	22417
873.69	22459
873.819	22276
873.948	22375
874.077	22360
874.206	22234
874.335	22367
874.464	22386
874.593	22577
874.722	22523
874.851	22565
874.979	22733
875.108	22660
875.237	22523
875.365	22470
875.494	22573
875.623	22577
875.751	22474
875.88	22630
876.008	22672
876.136	22687
876.265	22968
876.393	22946
876.521	23029
876.65	23003
876.778	22923
876.906	22831
877.034	22904
877.162	22930
877.29	22812
877.418	22847
877.546	22946
877.674	22923
877.802	22942
877.93	22923
878.058	22835
878.185	22858
878.313	22881
878.441	22949
878.568	22683
878.696	22854
878.824	23071
878.951	22942
879.079	23155
879.206	23079
879.333	23128
879.461	22911
879.588	22980
879.715	23155
879.842	23231
879.97	23094
880.097	22774
880.224	22763
880.351	22744
880.478	22763
880.605	22630
880.732	22740
880.859	22858
880.986	22793
881.112	22698
881.239	22710
881.366	22584
881.493	22424
881.619	22314
881.746	22185
881.872	22257
881.999	22398
882.125	22131
882.252	22284
882.378	22329
882.505	22276
882.631	22101
882.757	21934
882.883	21964
883.01	21991
883.136	21876
883.262	21838
883.388	21728
883.514	22112
883.64	21949
883.766	21884
883.892	21770
884.018	21797
884.143	21934
884.269	21953
884.395	21690
884.52	21618
884.646	21625
884.772	21583
884.897	21523
885.023	21637
885.148	21755
885.274	21766
885.399	21774
885.524	21679
885.65	21599
885.775	21739
885.9	21625
886.025	21743
886.15	21808
886.275	21488
886.4	21462
886.525	21507
886.65	21553
886.775	21485
886.9	21656
887.025	21652
887.149	21618
887.274	21412
887.399	21412
887.523	21458
887.648	21363
887.773	21298
887.897	21545
888.021	21313
888.146	21298
888.27	21511
888.395	21431
888.519	21431
888.643	21523
888.767	21447
888.891	21420
889.015	21150
889.139	21294
889.263	21123
889.387	21256
889.511	21351
889.635	21317
889.759	21100
889.883	21116
890.006	21199
890.13	21325
890.254	21157
890.377	21138
890.501	21020
890.624	20834
890.748	20952
890.871	20773
890.995	20785
891.118	20724
891.241	20845
891.364	20804
891.488	20796
891.611	20746
891.734	20632
891.857	20872
891.98	20864
892.103	20819
892.226	20712
892.349	20651
892.471	20473
892.594	20651
892.717	20697
892.839	20606
892.962	20625
893.085	20625
893.207	20663
893.33	20450
893.452	20552
893.575	20644
893.697	20541
893.819	20872
893.941	20826
894.064	20689
894.186	20583
894.308	20465
894.43	20777
894.552	20807
894.674	20689
894.796	20602
894.918	20579
895.04	20663
895.161	20708
895.283	20689
895.405	20552
895.526	20659
895.648	20556
895.769	20606
895.891	20629
896.012	20640
896.134	20686
896.255	20655
896.376	20518
896.498	20533
896.619	20648
896.74	20625
896.861	20686
896.982	20929
897.103	21131
897.224	20883
897.345	20883
897.466	20811
897.587	20823
897.708	20952
897.828	20815
897.949	20823
898.07	20682
898.19	20849
898.311	20785
898.431	20758
898.552	20735
898.672	20788
898.792	20857
898.913	20785
899.033	20708
899.153	20674
899.273	20533
899.393	20678
899.513	20655
899.633	20598
899.753	20526
899.873	20469
899.993	20617
900.113	20473
900.232	20427
900.352	20404
900.472	20358
900.591	20343
900.711	20431
900.83	20404
900.95	20358
901.069	20537
901.189	20298
901.308	20012
901.427	19967
901.546	19906
901.665	19982
901.784	19982
901.904	19807
902.023	19643
902.141	19518
902.26	19445
902.379	19540
902.498	19518
902.617	19331
902.735	19453
902.854	19422
902.973	19232
903.091	19129
903.21	19053
903.328	19091
903.446	19038
903.565	18859
903.683	18954
903.801	18726
903.919	18901
904.038	18875
904.156	18597
904.274	18779
904.392	18711
904.51	18608
904.627	18692
904.745	18665
904.863	18646
904.981	18559
905.098	18372
905.216	18254
905.334	18365
905.451	18228
905.569	18277
905.686	18350
905.803	18117
905.921	18079
906.038	18197
906.155	18133
906.272	18087
906.389	18045
906.506	17874
906.623	17901
906.74	17847
906.857	17638
906.974	17718
907.091	17988
907.208	17999
907.324	17794
907.441	17714
907.557	17562
907.674	17524
907.79	17478
907.907	17490
908.023	17592
908.139	17512
908.256	17562
908.372	17440
908.488	17429
908.604	17376
908.72	17185
908.836	17299
908.952	17273
909.068	17231
909.184	17433
909.3	17273
909.415	17307
909.531	17307
909.647	17098
909.762	17052
909.878	16942
909.993	16881
910.108	16999
910.224	17006
910.339	16953
910.454	16828
910.57	16877
910.685	16683
910.8	16923
910.915	16908
911.03	16793
911.145	16622
911.259	16531
911.374	16470
911.489	16531
911.604	16421
911.718	16314
911.833	16272
911.947	16196
912.062	16147
912.176	16314
912.291	16280
912.405	16371
912.519	16413
912.633	16508
912.748	16379
912.862	16371
912.976	16139
913.09	16071
913.204	16063
913.318	16196
913.431	16246
913.545	16200
913.659	16287
913.772	16120
913.886	15972
914	15998
914.113	16040
914.226	16097
914.34	15949
914.453	15941
914.566	15937
914.68	15838
914.793	15781
914.906	15507
915.019	15614
915.132	15477
915.245	15481
915.358	15412
915.47	15603
915.583	15447
915.696	15424
915.809	15656
915.921	15599
916.034	15454
916.146	15378
916.259	15412
916.371	15477
916.483	15500
916.595	15332
916.708	15431
916.82	15344
916.932	15287
917.044	15329
917.156	15310
917.268	15157
917.38	15165
917.491	15218
917.603	15180
917.715	15233
917.826	15268
917.938	15108
918.049	14979
918.161	15058
918.272	15222
918.384	15222
918.495	15070
918.606	14941
918.717	14929
918.828	15013
918.939	14994
919.05	14872
919.161	14845
919.272	14663
919.383	14746
919.494	14986
919.604	15116
919.715	14842
919.826	14899
919.936	14902
920.047	14948
920.157	14792
920.267	14994
920.378	14883
920.488	14792
920.598	15074
920.708	15116
920.818	14899
920.928	14910
921.038	15173
921.148	15066
921.258	14899
921.368	14667
921.477	14602
921.587	14541
921.697	14560
921.806	14602
921.916	14564
922.025	14240
922.134	14263
922.244	14153
922.353	14221
922.462	14043
922.571	14050
922.68	13887
922.789	13830
922.898	13864
923.007	13841
923.116	13784
923.224	13830
923.333	13845
923.442	13818
923.55	13780
923.659	13833
923.767	13818
923.876	13624
923.984	13776
924.092	13556
924.201	13628
924.309	13632
924.417	13658
924.525	13559
924.633	13552
924.741	14533
924.849	13247
924.956	13453
925.064	13346
925.172	13190
925.279	13308
925.387	13308
925.494	13255
925.602	13354
925.709	13365
925.816	13183
925.924	13228
926.031	13354
926.138	13168
926.245	13293
926.352	12993
926.459	13209
926.566	13247
926.673	13122
926.779	13034
926.886	12928
926.993	12814
927.099	12878
927.206	12776
927.312	12821
927.419	12871
927.525	12867
927.631	12856
927.737	12787
927.843	12684
927.95	12547
928.056	12703
928.162	12635
928.267	12700
928.373	13339
928.479	12734
928.585	12486
928.69	12555
928.796	12597
928.901	12475
929.007	12319
929.112	12513
929.218	12437
929.323	12369
929.428	12369
929.533	12456
929.638	12270
929.743	12304
929.848	12319
929.953	12247
930.058	12175
930.163	11942
930.267	12053
930.372	12205
930.477	12007
930.581	12308
930.685	12140
930.79	11935
930.894	11824
930.998	11843
931.103	11988
931.207	11646
931.311	11649
931.415	11478
931.519	11345
931.623	11261
