Data from test_V78500241_1264.txt Node
Date: Fri Mar 25 15:50:33 CST 2022
User: usil
Spectrometer: V785-0024
Trigger mode: 0
Integration Time (sec): 4.000000E-1
Scans to average: 1
Nonlinearity correction enabled: false
Boxcar width: 0
Storing dark spectrum: false
XAxis mode: Wavelengths
Number of Pixels in Spectrum: 1024
>>>>>Begin Spectral Data<<<<<
801.071	29014
801.214	28873
801.356	28626
801.499	28596
801.641	28474
801.783	28379
801.926	28531
802.068	28493
802.211	28413
802.353	28401
802.496	28211
802.638	28238
802.78	28188
802.923	28109
803.065	28048
803.208	28090
803.35	28177
803.492	28451
803.635	28371
803.777	28417
803.919	28306
804.061	28710
804.204	28398
804.346	28459
804.488	28413
804.63	28424
804.773	28352
804.915	28478
805.057	28519
805.199	28344
805.341	28398
805.483	28584
805.626	28497
805.768	28428
805.91	28607
806.052	28653
806.194	28455
806.336	28820
806.478	28717
806.62	28683
806.762	28713
806.904	28793
807.046	29105
807.188	29010
807.33	29006
807.472	29086
807.614	28984
807.756	29155
807.898	28980
808.04	28911
808.182	28972
808.324	28995
808.465	28949
808.607	29098
808.749	29292
808.891	29307
809.033	29520
809.174	29334
809.316	29269
809.458	29197
809.6	29273
809.741	29383
809.883	29611
810.025	29665
810.166	29505
810.308	29581
810.45	29539
810.591	29558
810.733	29402
810.875	29288
811.016	29258
811.158	29143
811.299	29395
811.441	29395
811.582	29490
811.724	29459
811.865	29341
812.007	29326
812.148	29391
812.29	29410
812.431	29436
812.573	29741
812.714	29786
812.855	29859
812.997	29874
813.138	29999
813.279	30102
813.421	29847
813.562	29760
813.703	29600
813.845	29463
813.986	29406
814.127	29124
814.268	29052
814.41	29216
814.551	29140
814.692	29109
814.833	29044
814.974	29075
815.115	29185
815.256	28984
815.397	29018
815.539	28965
815.68	29003
815.821	28748
815.962	28923
816.103	28774
816.244	28782
816.385	28828
816.526	28573
816.666	28550
816.807	28356
816.948	28424
817.089	28428
817.23	28401
817.371	28341
817.512	28367
817.653	28344
817.793	28375
817.934	28310
818.075	28265
818.216	28428
818.356	28375
818.497	28287
818.638	28048
818.778	28181
818.919	27987
819.06	28306
819.2	28325
819.341	28371
819.481	28367
819.622	28481
819.762	28679
819.903	28615
820.043	28542
820.184	28512
820.324	28474
820.465	28645
820.605	28573
820.746	28546
820.886	28329
821.026	28561
821.167	28519
821.307	28573
821.447	28451
821.588	28348
821.728	28196
821.868	28002
822.008	27869
822.149	27873
822.289	27968
822.429	27599
822.569	27572
822.709	27599
822.849	27477
822.99	27287
823.13	27393
823.27	27427
823.41	27138
823.55	27100
823.69	27325
823.83	27207
823.97	27112
824.11	27096
824.25	26967
824.389	26971
824.529	27233
824.669	27005
824.809	27218
824.949	27112
825.089	27146
825.228	27039
825.368	26929
825.508	27017
825.648	26899
825.787	26960
825.927	26906
826.067	26937
826.206	26914
826.346	27055
826.485	26921
826.625	26914
826.765	27051
826.904	26906
827.044	26625
827.183	26716
827.323	26724
827.462	26758
827.601	26568
827.741	26629
827.88	26636
828.02	26632
828.159	26503
828.298	26625
828.437	26602
828.577	26579
828.716	26720
828.855	26590
828.994	26370
829.134	26294
829.273	26290
829.412	26240
829.551	26271
829.69	26301
829.829	26393
829.968	26248
830.107	26438
830.246	26332
830.385	26221
830.524	26294
830.663	26221
830.802	26130
830.941	25826
831.08	25906
831.219	25936
831.357	25993
831.496	26084
831.635	25925
831.774	25909
831.913	25833
832.051	25772
832.19	25624
832.329	25719
832.467	25445
832.606	25620
832.744	25632
832.883	25635
833.022	25681
833.16	25693
833.299	25620
833.437	25742
833.576	25803
833.714	25750
833.852	25681
833.991	25708
834.129	25753
834.267	25609
834.406	25594
834.544	25765
834.682	25666
834.821	25537
834.959	25791
835.097	25597
835.235	25670
835.373	25651
835.511	25772
835.65	25510
835.788	25472
835.926	25419
836.064	25293
836.202	25335
836.34	25464
836.478	25613
836.615	25483
836.753	25491
836.891	25666
837.029	25537
837.167	25449
837.305	25514
837.443	25350
837.58	25327
837.718	25213
837.856	25362
837.993	25312
838.131	25263
838.269	25152
838.406	25179
838.544	25038
838.681	24951
838.819	24973
838.956	24669
839.094	24749
839.231	24768
839.369	24833
839.506	25141
839.643	25050
839.781	24711
839.918	24696
840.055	24722
840.193	24753
840.33	24711
840.467	24677
840.604	24677
840.742	24909
840.879	24582
841.016	24627
841.153	24620
841.29	24757
841.427	24525
841.564	24844
841.701	24726
841.838	24654
841.975	24593
842.112	24464
842.249	24604
842.385	24528
842.522	24673
842.659	24540
842.796	24403
842.933	24384
843.069	24330
843.206	24262
843.343	24429
843.479	24433
843.616	24357
843.752	24216
843.889	24235
844.025	24342
844.162	24178
844.298	24327
844.435	24133
844.571	24174
844.708	24285
844.844	24201
844.98	24369
845.117	24281
845.253	24129
845.389	24102
845.525	24106
845.661	24011
845.798	24007
845.934	24076
846.07	23878
846.206	24007
846.342	24057
846.478	23908
846.614	23585
846.75	23638
846.886	23615
847.022	23676
847.158	23680
847.294	23661
847.429	23843
847.565	23573
847.701	23897
847.837	23414
847.972	23334
848.108	23383
848.244	23482
848.379	23315
848.515	23231
848.65	23220
848.786	23246
848.921	23269
849.057	23303
849.192	23265
849.328	23250
849.463	23155
849.598	23109
849.734	23037
849.869	23079
850.004	22915
850.14	23029
850.275	22892
850.41	22835
850.545	22831
850.68	22877
850.815	22919
850.95	22919
851.085	23178
851.22	23048
851.355	22923
851.49	22991
851.625	23041
851.76	22965
851.895	22904
852.03	22984
852.165	22972
852.299	22995
852.434	23105
852.569	23014
852.703	23037
852.838	23010
852.973	23117
853.107	22980
853.242	22919
853.376	22919
853.511	22710
853.645	22740
853.78	22942
853.914	22812
854.048	22812
854.183	22748
854.317	22953
854.451	22885
854.585	22816
854.72	22911
854.854	22858
854.988	22828
855.122	22873
855.256	22717
855.39	22782
855.524	22919
855.658	22892
855.792	22847
855.926	22805
856.06	22919
856.194	22930
856.327	22634
856.461	22866
856.595	22592
856.729	22740
856.862	22839
856.996	22820
857.13	22839
857.263	22752
857.397	22885
857.53	22774
857.664	22949
857.797	22847
857.931	22949
858.064	22752
858.197	22957
858.331	22835
858.464	22634
858.597	22713
858.731	22698
858.864	22881
858.997	22763
859.13	22927
859.263	22908
859.396	23033
859.529	22805
859.662	22858
859.795	22820
859.928	22835
860.061	22938
860.194	23044
860.327	22801
860.46	22835
860.592	22919
860.725	23075
860.858	23052
860.99	22831
861.123	22854
861.256	22664
861.388	22786
861.521	23398
861.653	22755
861.786	22599
861.918	22672
862.05	22588
862.183	22805
862.315	22736
862.447	22759
862.58	22710
862.712	22557
862.844	22436
862.976	22580
863.108	22535
863.24	22862
863.372	22390
863.504	22527
863.636	22474
863.768	22588
863.9	22493
864.032	22379
864.164	22451
864.296	22497
864.428	22611
864.559	22653
864.691	22565
864.823	22462
864.954	22481
865.086	22493
865.217	22356
865.349	22226
865.48	22535
865.612	22451
865.743	22573
865.875	22409
866.006	22306
866.137	22337
866.269	22257
866.4	22402
866.531	22322
866.662	22371
866.793	22287
866.924	22261
867.055	22329
867.186	22268
867.317	22211
867.448	22185
867.579	22322
867.71	22177
867.841	22234
867.972	22386
868.103	22299
868.233	22478
868.364	22390
868.495	22371
868.625	22538
868.756	22649
868.886	22542
869.017	22596
869.147	22565
869.278	22721
869.408	22596
869.539	22554
869.669	22755
869.799	22542
869.929	22679
870.06	22683
870.19	22915
870.32	22881
870.45	22835
870.58	22866
870.71	23067
870.84	23048
870.97	22976
871.1	22915
871.23	23147
871.36	23162
871.489	23044
871.619	23174
871.749	23151
871.879	23136
872.008	23227
872.138	23208
872.267	23128
872.397	22987
872.526	22850
872.656	22889
872.785	23018
872.915	23231
873.044	23204
873.173	23155
873.303	23193
873.432	23086
873.561	23292
873.69	23140
873.819	23200
873.948	23143
874.077	23025
874.206	23052
874.335	23094
874.464	23235
874.593	23368
874.722	23345
874.851	23353
874.979	23402
875.108	23307
875.237	23330
875.365	23326
875.494	23254
875.623	23406
875.751	23326
875.88	23296
876.008	23505
876.136	23543
876.265	23794
876.393	23741
876.521	23714
876.65	23764
876.778	23737
876.906	23710
877.034	23672
877.162	23733
877.29	23680
877.418	23581
877.546	23752
877.674	23707
877.802	23718
877.93	23745
878.058	23676
878.185	23554
878.313	23691
878.441	23634
878.568	23528
878.696	23592
878.824	23836
878.951	23866
879.079	23878
879.206	24011
879.333	23798
879.461	23687
879.588	23707
879.715	23893
879.842	24049
879.97	23939
880.097	23493
880.224	23512
880.351	23467
880.478	23512
880.605	23467
880.732	23478
880.859	23790
880.986	23570
881.112	23558
881.239	23402
881.366	23250
881.493	23212
881.619	23185
881.746	23128
881.872	23155
881.999	23136
882.125	22968
882.252	22949
882.378	23010
882.505	23181
882.631	22927
882.757	22858
882.883	22885
883.01	22752
883.136	22755
883.262	22592
883.388	22519
883.514	22831
883.64	22763
883.766	22653
883.892	22557
884.018	22497
884.143	22733
884.269	22672
884.395	22375
884.52	22257
884.646	22367
884.772	22303
884.897	22325
885.023	22508
885.148	22455
885.274	22554
885.399	22371
885.524	22531
885.65	22379
885.775	22352
885.9	22306
886.025	22417
886.15	22447
886.275	22272
886.4	22234
886.525	22344
886.65	22257
886.775	22147
886.9	22409
887.025	22573
887.149	22386
887.274	22196
887.399	22169
887.523	22185
887.648	21994
887.773	21918
887.897	22215
888.021	22150
888.146	21991
888.27	22128
888.395	22135
888.519	22131
888.643	22181
888.767	22177
888.891	22029
889.015	21899
889.139	21979
889.263	21873
889.387	22025
889.511	21983
889.635	22070
889.759	21861
889.883	21991
890.006	21876
890.13	21987
890.254	21888
890.377	21778
890.501	21561
890.624	21526
890.748	21641
890.871	21549
890.995	21447
891.118	21428
891.241	21469
891.364	21439
891.488	21523
891.611	21424
891.734	21401
891.857	21389
891.98	21519
892.103	21576
892.226	21439
892.349	21298
892.471	21283
892.594	21382
892.717	21534
892.839	21237
892.962	21363
893.085	21473
893.207	21378
893.33	21211
893.452	21294
893.575	21397
893.697	21256
893.819	21492
893.941	21568
894.064	21416
894.186	21351
894.308	21154
894.43	21428
894.552	21450
894.674	21386
894.796	21245
894.918	21325
895.04	21214
895.161	21428
895.283	21382
895.405	21230
895.526	21287
895.648	21207
895.769	21351
895.891	21268
896.012	21302
896.134	21214
896.255	21283
896.376	21192
896.498	21188
896.619	21294
896.74	21340
896.861	21294
896.982	21644
897.103	21846
897.224	21511
897.345	21568
897.466	21431
897.587	21481
897.708	21622
897.828	21545
897.949	21526
898.07	21408
898.19	21416
898.311	21599
898.431	21469
898.552	21557
898.672	21500
898.792	21622
898.913	21488
899.033	21329
899.153	21237
899.273	21214
899.393	21252
899.513	21268
899.633	21340
899.753	21256
899.873	21176
899.993	21336
900.113	21188
900.232	21237
900.352	21199
900.472	21096
900.591	20838
900.711	20994
900.83	20952
900.95	21096
901.069	21051
901.189	20880
901.308	20678
901.427	20541
901.546	20598
901.665	20526
901.784	20590
901.904	20434
902.023	20351
902.141	20153
902.26	20062
902.379	20134
902.498	20035
902.617	20084
902.735	20115
902.854	19887
902.973	19875
903.091	19750
903.21	19670
903.328	19719
903.446	19643
903.565	19597
903.683	19464
903.801	19400
903.919	19510
904.038	19430
904.156	19316
904.274	19354
904.392	19255
904.51	19209
904.627	19152
904.745	19236
904.863	19228
904.981	19057
905.098	18966
905.216	18966
905.334	18859
905.451	18897
905.569	18905
905.686	18901
905.803	19019
905.921	18601
906.038	18886
906.155	18730
906.272	18650
906.389	18612
906.506	18528
906.623	18464
906.74	18441
906.857	18429
906.974	18323
907.091	18422
907.208	18498
907.324	18376
907.441	18327
907.557	18201
907.674	18140
907.79	18102
907.907	18155
908.023	18224
908.139	18079
908.256	18121
908.372	18003
908.488	18072
908.604	17847
908.72	17923
908.836	17771
908.952	17923
909.068	17851
909.184	17950
909.3	17874
909.415	17904
909.531	17760
909.647	17634
909.762	17611
909.878	17501
909.993	17634
910.108	17551
910.224	17486
910.339	17566
910.454	17497
910.57	17356
910.685	17231
910.8	17687
910.915	17452
911.03	17299
911.145	17204
911.259	17231
911.374	17086
911.489	17102
911.604	16976
911.718	16900
911.833	16824
911.947	16774
912.062	16774
912.176	16968
912.291	16915
912.405	16831
912.519	17056
912.633	17045
912.748	16873
912.862	16938
912.976	16664
913.09	16565
913.204	16691
913.318	16679
913.431	16698
913.545	16717
913.659	16824
913.772	16649
913.886	16584
914	16478
914.113	16630
914.226	16535
914.34	16500
914.453	16337
914.566	16474
914.68	16367
914.793	16382
914.906	16147
915.019	16032
915.132	15987
915.245	16059
915.358	16063
915.47	15968
915.583	16032
915.696	16131
915.809	16124
915.921	16166
916.034	15964
916.146	15922
916.259	15968
916.371	16029
916.483	15899
916.595	15865
916.708	15838
916.82	15816
916.932	15819
917.044	15728
917.156	15766
917.268	15739
917.38	15663
917.491	15682
917.603	15587
917.715	15747
917.826	15781
917.938	15614
918.049	15587
918.161	15580
918.272	15778
918.384	15724
918.495	15553
918.606	15450
918.717	15481
918.828	15492
918.939	15405
919.05	15256
919.161	15340
919.272	15203
919.383	15237
919.494	15412
919.604	15591
919.715	15485
919.826	15306
919.936	15306
920.047	15401
920.157	15401
920.267	15557
920.378	15351
920.488	15283
920.598	15492
920.708	15656
920.818	15431
920.928	15507
921.038	15660
921.148	15511
921.258	15386
921.368	15188
921.477	15157
921.587	15001
921.697	14967
921.806	15017
921.916	14883
922.025	14864
922.134	14686
922.244	14743
922.353	14750
922.462	14594
922.571	14389
922.68	14286
922.789	14332
922.898	14343
923.007	14275
923.116	14370
923.224	14366
923.333	14271
923.442	14195
923.55	14172
923.659	14210
923.767	14221
923.876	14221
923.984	14157
924.092	13993
924.201	14058
924.309	14111
924.417	14084
924.525	13936
924.633	14012
924.741	14918
924.849	13727
924.956	13917
925.064	13742
925.172	13639
925.279	13772
925.387	13757
925.494	13670
925.602	13807
925.709	13811
925.816	13529
925.924	13582
926.031	13723
926.138	13624
926.245	13658
926.352	13544
926.459	13655
926.566	13727
926.673	13601
926.779	13441
926.886	13377
926.993	13228
927.099	13259
927.206	13228
927.312	13171
927.419	13282
927.525	13343
927.631	13301
927.737	13118
927.843	13091
927.95	13012
928.056	13046
928.162	13000
928.267	13118
928.373	13689
928.479	13107
928.585	12924
928.69	12993
928.796	13023
928.901	12886
929.007	12791
929.112	12924
929.218	12905
929.323	12779
929.428	12795
929.533	12856
929.638	12665
929.743	12688
929.848	12776
929.953	12662
930.058	12623
930.163	12426
930.267	12513
930.372	12513
930.477	12445
930.581	12707
930.685	12441
930.79	12353
930.894	12334
930.998	12330
931.103	12426
931.207	12057
931.311	12022
931.415	11859
931.519	11718
931.623	11741
