Data from test_V78500241_2735.txt Node
Date: Fri Mar 25 16:00:44 CST 2022
User: usil
Spectrometer: V785-0024
Trigger mode: 0
Integration Time (sec): 4.000000E-1
Scans to average: 1
Nonlinearity correction enabled: false
Boxcar width: 0
Storing dark spectrum: false
XAxis mode: Wavelengths
Number of Pixels in Spectrum: 1024
>>>>>Begin Spectral Data<<<<<
801.071	28767
801.214	28866
801.356	28603
801.499	28573
801.641	28379
801.783	28417
801.926	28386
802.068	28615
802.211	28421
802.353	28306
802.496	28036
802.638	28074
802.78	28131
802.923	27979
803.065	28006
803.208	28120
803.35	28013
803.492	28306
803.635	28352
803.777	28276
803.919	28401
804.061	28771
804.204	28314
804.346	28223
804.488	28303
804.63	28382
804.773	28443
804.915	28440
805.057	28596
805.199	28379
805.341	28405
805.483	28618
805.626	28531
805.768	28443
805.91	28618
806.052	28542
806.194	28417
806.336	28717
806.478	28455
806.62	28443
806.762	28687
806.904	28797
807.046	28972
807.188	28976
807.33	29014
807.472	29174
807.614	28942
807.756	28999
807.898	28858
808.04	28790
808.182	28816
808.324	28850
808.465	28911
808.607	29121
808.749	29273
808.891	29356
809.033	29387
809.174	29387
809.316	29349
809.458	29147
809.6	29098
809.741	29296
809.883	29406
810.025	29478
810.166	29573
810.308	29524
810.45	29425
810.591	29440
810.733	29246
810.875	29174
811.016	29227
811.158	29170
811.299	29398
811.441	29360
811.582	29459
811.724	29299
811.865	29292
812.007	29280
812.148	29318
812.29	29197
812.431	29592
812.573	29611
812.714	29554
812.855	29786
812.997	29908
813.138	30068
813.279	29828
813.421	29760
813.562	29710
813.703	29653
813.845	29349
813.986	29261
814.127	29140
814.268	28850
814.41	28976
814.551	28930
814.692	29048
814.833	28809
814.974	28847
815.115	28972
815.256	28812
815.397	28752
815.539	28729
815.68	28816
815.821	28713
815.962	28839
816.103	28866
816.244	28645
816.385	28630
816.526	28645
816.666	28375
816.807	28379
816.948	28360
817.089	28466
817.23	28428
817.371	28162
817.512	28158
817.653	28223
817.793	28303
817.934	28238
818.075	28398
818.216	28386
818.356	28234
818.497	28059
818.638	28070
818.778	28036
818.919	27968
819.06	28238
819.2	28055
819.341	28325
819.481	28367
819.622	28409
819.762	28569
819.903	28607
820.043	28443
820.184	28424
820.324	28577
820.465	28478
820.605	28371
820.746	28371
820.886	28325
821.026	28394
821.167	28303
821.307	28360
821.447	28257
821.588	28276
821.728	27960
821.868	27945
822.008	27850
822.149	27770
822.289	27694
822.429	27481
822.569	27374
822.709	27568
822.849	27268
822.99	27340
823.13	27268
823.27	27173
823.41	27135
823.55	26914
823.69	27055
823.83	27104
823.97	26937
824.11	26853
824.25	27028
824.389	26883
824.529	26994
824.669	26948
824.809	27009
824.949	26933
825.089	27112
825.228	26956
825.368	26739
825.508	26815
825.648	26743
825.787	26872
825.927	26807
826.067	26845
826.206	26807
826.346	26906
826.485	26853
826.625	26640
826.765	26975
826.904	26971
827.044	26606
827.183	26644
827.323	26389
827.462	26503
827.601	26613
827.741	26476
827.88	26533
828.02	26431
828.159	26381
828.298	26682
828.437	26514
828.577	26389
828.716	26594
828.855	26511
828.994	26233
829.134	26305
829.273	26221
829.412	26214
829.551	26282
829.69	26134
829.829	26225
829.968	26408
830.107	26237
830.246	26180
830.385	26103
830.524	26225
830.663	26031
830.802	25875
830.941	25940
831.08	25734
831.219	25963
831.357	25951
831.496	26043
831.635	25932
831.774	25765
831.913	25559
832.051	25651
832.19	25552
832.329	25655
832.467	25563
832.606	25479
832.744	25605
832.883	25556
833.022	25472
833.16	25464
833.299	25483
833.437	25552
833.576	25628
833.714	25582
833.852	25708
833.991	25651
834.129	25635
834.267	25879
834.406	25582
834.544	25567
834.682	25559
834.821	25502
834.959	25731
835.097	25544
835.235	25601
835.373	25533
835.511	25510
835.65	25476
835.788	25312
835.926	25247
836.064	25209
836.202	25236
836.34	25373
836.478	25373
836.615	25327
836.753	25453
836.891	25502
837.029	25400
837.167	25377
837.305	25316
837.443	25266
837.58	25213
837.718	25240
837.856	25156
837.993	25148
838.131	25209
838.269	25228
838.406	25190
838.544	25038
838.681	25004
838.819	24837
838.956	24544
839.094	24616
839.231	24741
839.369	24871
839.506	25050
839.643	25027
839.781	24745
839.918	24722
840.055	24692
840.193	24623
840.33	24665
840.467	24574
840.604	24642
840.742	25050
840.879	24578
841.016	24585
841.153	24570
841.29	24719
841.427	24623
841.564	24673
841.701	24559
841.838	24498
841.975	24433
842.112	24456
842.249	24384
842.385	24315
842.522	24505
842.659	24418
842.796	24346
842.933	24426
843.069	24399
843.206	24243
843.343	24296
843.479	24418
843.616	24262
843.752	24098
843.889	24041
844.025	24228
844.162	24133
844.298	24186
844.435	24091
844.571	24121
844.708	24213
844.844	24220
844.98	24232
845.117	24209
845.253	24140
845.389	24030
845.525	23984
845.661	24072
845.798	23908
845.934	23874
846.07	23828
846.206	23912
846.342	23954
846.478	23893
846.614	23745
846.75	23535
846.886	23695
847.022	23668
847.158	23596
847.294	23558
847.429	23623
847.565	23448
847.701	23718
847.837	23345
847.972	23235
848.108	23341
848.244	23436
848.379	23155
848.515	23208
848.65	23029
848.786	23166
848.921	23216
849.057	23334
849.192	23265
849.328	23147
849.463	23170
849.598	23094
849.734	23056
849.869	22972
850.004	23006
850.14	23067
850.275	22877
850.41	22900
850.545	22885
850.68	22877
850.815	23014
850.95	22972
851.085	22968
851.22	23204
851.355	23029
851.49	22961
851.625	22938
851.76	22919
851.895	22835
852.03	22740
852.165	22793
852.299	22965
852.434	23086
852.569	22896
852.703	22896
852.838	23056
852.973	23022
853.107	22927
853.242	22816
853.376	22710
853.511	22573
853.645	22736
853.78	22790
853.914	22733
854.048	22660
854.183	22660
854.317	22736
854.451	22930
854.585	22691
854.72	22729
854.854	22885
854.988	22672
855.122	22793
855.256	22634
855.39	22763
855.524	22835
855.658	22748
855.792	22626
855.926	22786
856.06	22831
856.194	22816
856.327	22691
856.461	22656
856.595	22569
856.729	22831
856.862	22854
856.996	22694
857.13	22653
857.263	22824
857.397	22812
857.53	22679
857.664	22729
857.797	22778
857.931	22908
858.064	22805
858.197	22790
858.331	22721
858.464	22687
858.597	22607
858.731	22687
858.864	22713
858.997	22626
859.13	22774
859.263	22694
859.396	22816
859.529	22854
859.662	22805
859.795	22702
859.928	22656
860.061	22904
860.194	23048
860.327	22790
860.46	22889
860.592	22839
860.725	22805
860.858	22889
860.99	22793
861.123	22717
861.256	22740
861.388	22786
861.521	23596
861.653	22607
861.786	22630
861.918	22577
862.05	22500
862.183	22675
862.315	22793
862.447	22618
862.58	22584
862.712	22466
862.844	22348
862.976	22599
863.108	22470
863.24	23010
863.372	22333
863.504	22451
863.636	22409
863.768	22489
863.9	22352
864.032	22337
864.164	22348
864.296	22436
864.428	22554
864.559	22462
864.691	22481
864.823	22405
864.954	22462
865.086	22447
865.217	22386
865.349	22169
865.48	22405
865.612	22295
865.743	22443
865.875	22306
866.006	22318
866.137	22303
866.269	22268
866.4	22226
866.531	22128
866.662	22242
866.793	22234
866.924	22257
867.055	22265
867.186	22325
867.317	22261
867.448	22131
867.579	22124
867.71	22166
867.841	22310
867.972	22234
868.103	22128
868.233	22177
868.364	22143
868.495	22424
868.625	22584
868.756	22500
868.886	22314
869.017	22516
869.147	22611
869.278	22736
869.408	22417
869.539	22417
869.669	22500
869.799	22516
869.929	22596
870.06	22603
870.19	22744
870.32	22748
870.45	22774
870.58	22809
870.71	22915
870.84	22999
870.97	22805
871.1	22908
871.23	23048
871.36	23113
871.489	22984
871.619	22991
871.749	23029
871.879	23029
872.008	23071
872.138	23113
872.267	23105
872.397	23014
872.526	22961
872.656	22877
872.785	22953
872.915	23113
873.044	23124
873.173	23044
873.303	23090
873.432	23170
873.561	23136
873.69	23060
873.819	23083
873.948	23128
874.077	23189
874.206	22965
874.335	23048
874.464	23220
874.593	23239
874.722	23269
874.851	23368
874.979	23284
875.108	23364
875.237	23273
875.365	23143
875.494	23379
875.623	23417
875.751	23318
875.88	23448
876.008	23414
876.136	23482
876.265	23623
876.393	23771
876.521	23805
876.65	23866
876.778	23729
876.906	23687
877.034	23554
877.162	23794
877.29	23455
877.418	23646
877.546	23676
877.674	23570
877.802	23505
877.93	23493
878.058	23722
878.185	23547
878.313	23600
878.441	23566
878.568	23410
878.696	23630
878.824	23726
878.951	23604
879.079	23752
879.206	24034
879.333	23714
879.461	23710
879.588	23927
879.715	23760
879.842	23923
879.97	23790
880.097	23493
880.224	23368
880.351	23372
880.478	23581
880.605	23448
880.732	23425
880.859	23657
880.986	23531
881.112	23372
881.239	23395
881.366	23159
881.493	23124
881.619	23098
881.746	23121
881.872	23022
881.999	22942
882.125	23018
882.252	23044
882.378	23075
882.505	23124
882.631	22797
882.757	22660
882.883	22744
883.01	22706
883.136	22596
883.262	22535
883.388	22546
883.514	22653
883.64	22763
883.766	22512
883.892	22538
884.018	22512
884.143	22653
884.269	22702
884.395	22428
884.52	22253
884.646	22318
884.772	22238
884.897	22238
885.023	22432
885.148	22371
885.274	22470
885.399	22257
885.524	22303
885.65	22341
885.775	22409
885.9	22185
886.025	22390
886.15	22462
886.275	22344
886.4	22143
886.525	22402
886.65	22150
886.775	22291
886.9	22242
887.025	22592
887.149	22280
887.274	22306
887.399	22017
887.523	22002
887.648	21994
887.773	22013
887.897	22169
888.021	22032
888.146	22135
888.27	22226
888.395	22135
888.519	22074
888.643	22021
888.767	22010
888.891	22006
889.015	21991
889.139	21907
889.263	21854
889.387	22097
889.511	22181
889.635	22029
889.759	21816
889.883	21873
890.006	21880
890.13	22021
890.254	21732
890.377	21800
890.501	21644
890.624	21523
890.748	21717
890.871	21561
890.995	21393
891.118	21344
891.241	21412
891.364	21351
891.488	21538
891.611	21378
891.734	21435
891.857	21477
891.98	21420
892.103	21439
892.226	21359
892.349	21348
892.471	21188
892.594	21313
892.717	21431
892.839	21382
892.962	21378
893.085	21329
893.207	21302
893.33	21321
893.452	21108
893.575	21397
893.697	21199
893.819	21435
893.941	21511
894.064	21435
894.186	21245
894.308	21150
894.43	21321
894.552	21469
894.674	21348
894.796	21268
894.918	21264
895.04	21313
895.161	21348
895.283	21268
895.405	21386
895.526	21291
895.648	21146
895.769	21222
895.891	21176
896.012	21473
896.134	21412
896.255	21188
896.376	21222
896.498	21256
896.619	21306
896.74	21291
896.861	21370
896.982	21671
897.103	21698
897.224	21473
897.345	21519
897.466	21370
897.587	21526
897.708	21644
897.828	21408
897.949	21473
898.07	21195
898.19	21412
898.311	21416
898.431	21374
898.552	21485
898.672	21507
898.792	21481
898.913	21549
899.033	21393
899.153	21245
899.273	21226
899.393	21268
899.513	21294
899.633	21237
899.753	21241
899.873	21104
899.993	21116
900.113	21062
900.232	21127
900.352	21017
900.472	21070
900.591	20960
900.711	21036
900.83	20963
900.95	20994
901.069	20960
901.189	20887
901.308	20590
901.427	20518
901.546	20457
901.665	20568
901.784	20492
901.904	20339
902.023	20324
902.141	20092
902.26	20107
902.379	20134
902.498	20043
902.617	20043
902.735	20096
902.854	20001
902.973	19902
903.091	19632
903.21	19594
903.328	19643
903.446	19632
903.565	19559
903.683	19483
903.801	19358
903.919	19464
904.038	19373
904.156	19236
904.274	19358
904.392	19274
904.51	19266
904.627	19099
904.745	19175
904.863	19263
904.981	19012
905.098	18970
905.216	18932
905.334	18951
905.451	18943
905.569	18947
905.686	18791
905.803	18924
905.921	18639
906.038	18779
906.155	18745
906.272	18582
906.389	18570
906.506	18483
906.623	18498
906.74	18399
906.857	18315
906.974	18357
907.091	18410
907.208	18486
907.324	18403
907.441	18197
907.557	18121
907.674	18049
907.79	18121
907.907	18106
908.023	18140
908.139	18140
908.256	18076
908.372	18011
908.488	18015
908.604	17931
908.72	17805
908.836	17859
908.952	17767
909.068	17863
909.184	17946
909.3	17687
909.415	17851
909.531	17832
909.647	17600
909.762	17577
909.878	17505
909.993	17581
910.108	17547
910.224	17558
910.339	17577
910.454	17364
910.57	17280
910.685	17277
910.8	17528
910.915	17478
911.03	17292
911.145	17151
911.259	17029
911.374	17166
911.489	17025
911.604	17037
911.718	16881
911.833	16782
911.947	16850
912.062	16713
912.176	16850
912.291	16809
912.405	16801
912.519	17083
912.633	17083
912.748	16858
912.862	16809
912.976	16721
913.09	16546
913.204	16523
913.318	16569
913.431	16717
913.545	16641
913.659	16683
913.772	16603
913.886	16493
914	16508
914.113	16371
914.226	16500
914.34	16516
914.453	16322
914.566	16531
914.68	16280
914.793	16333
914.906	16109
915.019	16078
915.132	16032
915.245	16025
915.358	16051
915.47	16105
915.583	16032
915.696	15964
915.809	16082
915.921	16204
916.034	16055
916.146	15865
916.259	15835
916.371	16051
916.483	15998
916.595	15842
916.708	16002
916.82	15778
916.932	15835
917.044	15865
917.156	15679
917.268	15656
917.38	15739
917.491	15633
917.603	15637
917.715	15732
917.826	15713
917.938	15603
918.049	15530
918.161	15580
918.272	15781
918.384	15709
918.495	15698
918.606	15389
918.717	15386
918.828	15374
918.939	15450
919.05	15344
919.161	15428
919.272	15279
919.383	15268
919.494	15462
919.604	15603
919.715	15420
919.826	15302
919.936	15291
920.047	15466
920.157	15416
920.267	15538
920.378	15386
920.488	15275
920.598	15507
920.708	15720
920.818	15526
920.928	15462
921.038	15698
921.148	15625
921.258	15348
921.368	15310
921.477	15081
921.587	15157
921.697	14948
921.806	15043
921.916	14933
922.025	14781
922.134	14678
922.244	14689
922.353	14746
922.462	14625
922.571	14511
922.68	14469
922.789	14370
922.898	14381
923.007	14267
923.116	14301
923.224	14282
923.333	14313
923.442	14180
923.55	14172
923.659	14248
923.767	14210
923.876	14138
923.984	14183
924.092	14100
924.201	14100
924.309	14062
924.417	14046
924.525	14100
924.633	14016
924.741	14876
924.849	13784
924.956	13986
925.064	13769
925.172	13639
925.279	13681
925.387	13761
925.494	13693
925.602	13807
925.709	13852
925.816	13578
925.924	13647
926.031	13757
926.138	13731
926.245	13708
926.352	13499
926.459	13670
926.566	13719
926.673	13537
926.779	13464
926.886	13476
926.993	13388
927.099	13232
927.206	13263
927.312	13198
927.419	13278
927.525	13206
927.631	13316
927.737	13137
927.843	13031
927.95	12932
928.056	13122
928.162	13091
928.267	13103
928.373	13643
928.479	13126
928.585	12859
928.69	13000
928.796	12977
928.901	12901
929.007	12783
929.112	12859
929.218	12867
929.323	12783
929.428	12783
929.533	12863
929.638	12791
929.743	12684
929.848	12768
929.953	12642
930.058	12677
930.163	12452
930.267	12521
930.372	12547
930.477	12437
930.581	12631
930.685	12479
930.79	12296
930.894	12327
930.998	12308
931.103	12410
931.207	12098
931.311	12072
931.415	11893
931.519	11661
931.623	11657
