Data from test_V78500241_663.txt Node
Date: Fri Mar 25 15:46:23 CST 2022
User: usil
Spectrometer: V785-0024
Trigger mode: 0
Integration Time (sec): 4.000000E-1
Scans to average: 1
Nonlinearity correction enabled: false
Boxcar width: 0
Storing dark spectrum: false
XAxis mode: Wavelengths
Number of Pixels in Spectrum: 1024
>>>>>Begin Spectral Data<<<<<
801.071	26948
801.214	26849
801.356	26514
801.499	26393
801.641	26370
801.783	26385
801.926	26332
802.068	26393
802.211	26290
802.353	26210
802.496	26183
802.638	26050
802.78	25951
802.923	26088
803.065	26020
803.208	25947
803.35	26126
803.492	26122
803.635	26142
803.777	25993
803.919	26259
804.061	26465
804.204	26233
804.346	26100
804.488	26062
804.63	26115
804.773	26001
804.915	26172
805.057	26237
805.199	26107
805.341	26199
805.483	26267
805.626	26290
805.768	26111
805.91	26134
806.052	26301
806.194	26145
806.336	26370
806.478	26278
806.62	26301
806.762	26423
806.904	26453
807.046	26735
807.188	26701
807.33	26632
807.472	26754
807.614	26640
807.756	26503
807.898	26495
808.04	26522
808.182	26427
808.324	26583
808.465	26564
808.607	26819
808.749	26864
808.891	26963
809.033	27001
809.174	27108
809.316	26868
809.458	26971
809.6	26773
809.741	27020
809.883	27047
810.025	27062
810.166	27096
810.308	27184
810.45	27013
810.591	27104
810.733	26815
810.875	26746
811.016	26655
811.158	26861
811.299	26982
811.441	26986
811.582	26880
811.724	26807
811.865	26845
812.007	26796
812.148	26853
812.29	26796
812.431	26963
812.573	27047
812.714	27264
812.855	27256
812.997	27336
813.138	27561
813.279	27591
813.421	27374
813.562	27439
813.703	27142
813.845	26986
813.986	26708
814.127	26606
814.268	26518
814.41	26438
814.551	26431
814.692	26442
814.833	26503
814.974	26404
815.115	26488
815.256	26396
815.397	26469
815.539	26240
815.68	26267
815.821	26103
815.962	26389
816.103	26370
816.244	26081
816.385	26050
816.526	26062
816.666	25860
816.807	25666
816.948	25769
817.089	26012
817.23	25772
817.371	25666
817.512	25685
817.653	25689
817.793	25662
817.934	25658
818.075	25712
818.216	25750
818.356	25845
818.497	25567
818.638	25491
818.778	25483
818.919	25514
819.06	25449
819.2	25689
819.341	25814
819.481	25822
819.622	25795
819.762	25955
819.903	25906
820.043	26092
820.184	25864
820.324	25780
820.465	25860
820.605	25868
820.746	25814
820.886	25700
821.026	25803
821.167	25772
821.307	25860
821.447	25830
821.588	25628
821.728	25540
821.868	25350
822.008	25350
822.149	25198
822.289	25118
822.429	24992
822.569	24817
822.709	24943
822.849	24875
822.99	24745
823.13	24764
823.27	24669
823.41	24551
823.55	24471
823.69	24445
823.83	24585
823.97	24437
824.11	24342
824.25	24273
824.389	24353
824.529	24407
824.669	24361
824.809	24494
824.949	24441
825.089	24433
825.228	24315
825.368	24182
825.508	24262
825.648	24197
825.787	24190
825.927	24262
826.067	24155
826.206	24174
826.346	24232
826.485	24174
826.625	24106
826.765	24258
826.904	24273
827.044	23977
827.183	23942
827.323	23988
827.462	23912
827.601	23980
827.741	23748
827.88	23923
828.02	23847
828.159	23889
828.298	23863
828.437	23973
828.577	23916
828.716	23927
828.855	23828
828.994	23748
829.134	23638
829.273	23665
829.412	23539
829.551	23535
829.69	23566
829.829	23554
829.968	23676
830.107	23783
830.246	23581
830.385	23528
830.524	23482
830.663	23478
830.802	23391
830.941	23220
831.08	23307
831.219	23258
831.357	23387
831.496	23421
831.635	23197
831.774	23147
831.913	23124
832.051	23086
832.19	23003
832.329	23136
832.467	22892
832.606	22835
832.744	22858
832.883	22984
833.022	22915
833.16	22968
833.299	22866
833.437	22881
833.576	22866
833.714	22961
833.852	22938
833.991	23003
834.129	22968
834.267	22896
834.406	23018
834.544	23044
834.682	22877
834.821	22980
834.959	23223
835.097	23044
835.235	22999
835.373	23025
835.511	22957
835.65	22854
835.788	22710
835.926	22691
836.064	22706
836.202	22626
836.34	22987
836.478	22923
836.615	22717
836.753	22847
836.891	22854
837.029	22858
837.167	22691
837.305	22683
837.443	22607
837.58	22637
837.718	22729
837.856	22774
837.993	22603
838.131	22664
838.269	22535
838.406	22512
838.544	22481
838.681	22318
838.819	22230
838.956	22059
839.094	22154
839.231	22211
839.369	22223
839.506	22481
839.643	22394
839.781	22188
839.918	22135
840.055	22044
840.193	22185
840.33	21991
840.467	22116
840.604	22120
840.742	22371
840.879	21968
841.016	22051
841.153	21987
841.29	22230
841.427	22086
841.564	22044
841.701	22078
841.838	21972
841.975	21968
842.112	21949
842.249	21800
842.385	21835
842.522	21968
842.659	21846
842.796	21819
842.933	21656
843.069	21789
843.206	21736
843.343	21816
843.479	21762
843.616	21846
843.752	21603
843.889	21606
844.025	21682
844.162	21572
844.298	21633
844.435	21530
844.571	21553
844.708	21648
844.844	21739
844.98	21622
845.117	21572
845.253	21542
845.389	21515
845.525	21458
845.661	21344
845.798	21283
845.934	21401
846.07	21245
846.206	21405
846.342	21462
846.478	21321
846.614	21203
846.75	21119
846.886	21024
847.022	21089
847.158	21077
847.294	21104
847.429	21077
847.565	21058
847.701	21249
847.837	20845
847.972	20826
848.108	21032
848.244	20872
848.379	20758
848.515	20701
848.65	20590
848.786	20651
848.921	20648
849.057	20708
849.192	20712
849.328	20727
849.463	20731
849.598	20568
849.734	20518
849.869	20438
850.004	20351
850.14	20564
850.275	20438
850.41	20324
850.545	20259
850.68	20339
850.815	20393
850.95	20389
851.085	20556
851.22	20613
851.355	20434
851.49	20393
851.625	20362
851.76	20526
851.895	20305
852.03	20408
852.165	20431
852.299	20480
852.434	20450
852.569	20537
852.703	20442
852.838	20374
852.973	20469
853.107	20571
853.242	20450
853.376	20324
853.511	20172
853.645	20195
853.78	20313
853.914	20218
854.048	20301
854.183	20214
854.317	20210
854.451	20469
854.585	20294
854.72	20309
854.854	20404
854.988	20111
855.122	20362
855.256	20096
855.39	20126
855.524	20275
855.658	20263
855.792	20282
855.926	20309
856.06	20180
856.194	20336
856.327	20252
856.461	20237
856.595	20164
856.729	20103
856.862	20362
856.996	20233
857.13	20191
857.263	20339
857.397	20244
857.53	20263
857.664	20347
857.797	20298
857.931	20381
858.064	20240
858.197	20427
858.331	20225
858.464	20054
858.597	20119
858.731	20286
858.864	20221
858.997	20244
859.13	20309
859.263	20298
859.396	20434
859.529	20191
859.662	20096
859.795	20157
859.928	20240
860.061	20309
860.194	20427
860.327	20301
860.46	20233
860.592	20358
860.725	20389
860.858	20473
860.99	20210
861.123	20199
861.256	20221
861.388	20320
861.521	20777
861.653	20145
861.786	20027
861.918	20069
862.05	20195
862.183	20180
862.315	20233
862.447	20180
862.58	20142
862.712	19974
862.844	19887
862.976	19997
863.108	20043
863.24	20305
863.372	19887
863.504	20081
863.636	19955
863.768	20046
863.9	19982
864.032	19913
864.164	19986
864.296	19932
864.428	20001
864.559	20001
864.691	20092
864.823	20043
864.954	19989
865.086	19932
865.217	19883
865.349	19681
865.48	19856
865.612	19951
865.743	20046
865.875	19925
866.006	19902
866.137	19909
866.269	19871
866.4	19898
866.531	19856
866.662	19708
866.793	19708
866.924	19826
867.055	19826
867.186	19944
867.317	19791
867.448	19674
867.579	19852
867.71	19681
867.841	19616
867.972	19753
868.103	19811
868.233	19830
868.364	19868
868.495	19944
868.625	20107
868.756	20218
868.886	20043
869.017	20088
869.147	20221
869.278	20088
869.408	20062
869.539	20180
869.669	20134
869.799	20142
869.929	20252
870.06	20161
870.19	20355
870.32	20377
870.45	20476
870.58	20457
870.71	20583
870.84	20442
870.97	20526
871.1	20442
871.23	20609
871.36	20708
871.489	20537
871.619	20830
871.749	20613
871.879	20746
872.008	20853
872.138	20693
872.267	20571
872.397	20625
872.526	20530
872.656	20476
872.785	20575
872.915	20674
873.044	20739
873.173	20636
873.303	20636
873.432	20663
873.561	20701
873.69	20712
873.819	20765
873.948	20914
874.077	20689
874.206	20659
874.335	20689
874.464	20800
874.593	20956
874.722	20960
874.851	20952
874.979	20918
875.108	20933
875.237	20994
875.365	20811
875.494	21032
875.623	20937
875.751	20891
875.88	20975
876.008	21070
876.136	21230
876.265	21252
876.393	21447
876.521	21393
876.65	21450
876.778	21420
876.906	21359
877.034	21226
877.162	21291
877.29	21131
877.418	21264
877.546	21294
877.674	21363
877.802	21397
877.93	21233
878.058	21260
878.185	21176
878.313	21325
878.441	21306
878.568	21127
878.696	21272
878.824	21389
878.951	21386
879.079	21393
879.206	21492
879.333	21458
879.461	21340
879.588	21370
879.715	21462
879.842	21583
879.97	21310
880.097	21070
880.224	21043
880.351	21184
880.478	21032
880.605	21036
880.732	21043
880.859	21382
880.986	21089
881.112	21112
881.239	21036
881.366	20895
881.493	20758
881.619	20743
881.746	20804
881.872	20727
881.999	20609
882.125	20602
882.252	20632
882.378	20788
882.505	20807
882.631	20598
882.757	20450
882.883	20552
883.01	20336
883.136	20381
883.262	20339
883.388	20267
883.514	20503
883.64	20503
883.766	20252
883.892	20328
884.018	20199
884.143	20503
884.269	20442
884.395	20294
884.52	20058
884.646	20020
884.772	19959
884.897	20039
885.023	20050
885.148	20210
885.274	20339
885.399	20187
885.524	20020
885.65	20092
885.775	20062
885.9	20069
886.025	20073
886.15	20290
886.275	20027
886.4	19917
886.525	19947
886.65	19898
886.775	19925
886.9	20164
887.025	20336
887.149	20168
887.274	19864
887.399	19887
887.523	19826
887.648	19784
887.773	19753
887.897	19894
888.021	19909
888.146	19906
888.27	19917
888.395	19970
888.519	19887
888.643	19970
888.767	19871
888.891	19803
889.015	19643
889.139	19723
889.263	19594
889.387	19849
889.511	19833
889.635	19738
889.759	19575
889.883	19693
890.006	19742
890.13	19727
890.254	19529
890.377	19563
890.501	19449
890.624	19392
890.748	19438
890.871	19396
890.995	19221
891.118	19164
891.241	19213
891.364	19373
891.488	19422
891.611	19293
891.734	19266
891.857	19236
891.98	19270
892.103	19304
892.226	19278
892.349	19225
892.471	19099
892.594	19274
892.717	19217
892.839	19091
892.962	19160
893.085	19213
893.207	19145
893.33	19057
893.452	19072
893.575	19225
893.697	19179
893.819	19304
893.941	19266
894.064	19187
894.186	19103
894.308	19107
894.43	19278
894.552	19339
894.674	19274
894.796	19099
894.918	19202
895.04	19091
895.161	19282
895.283	19183
895.405	19034
895.526	19069
895.648	19164
895.769	19133
895.891	19293
896.012	19362
896.134	19160
896.255	19183
896.376	19164
896.498	19209
896.619	19308
896.74	19209
896.861	19396
896.982	19483
897.103	19708
897.224	19457
897.345	19430
897.466	19339
897.587	19499
897.708	19472
897.828	19472
897.949	19369
898.07	19221
898.19	19373
898.311	19491
898.431	19384
898.552	19411
898.672	19434
898.792	19468
898.913	19400
899.033	19289
899.153	19228
899.273	19160
899.393	19293
899.513	19259
899.633	19160
899.753	19282
899.873	19095
899.993	19206
900.113	19190
900.232	19110
900.352	19099
900.472	19004
900.591	18966
900.711	19129
900.83	18981
900.95	19091
901.069	18985
901.189	18802
901.308	18665
901.427	18665
901.546	18578
901.665	18635
901.784	18502
901.904	18544
902.023	18418
902.141	18159
902.26	18190
902.379	18220
902.498	18140
902.617	17999
902.735	18117
902.854	18163
902.973	17973
903.091	17809
903.21	17878
903.328	17699
903.446	17824
903.565	17551
903.683	17646
903.801	17398
903.919	17524
904.038	17668
904.156	17455
904.274	17482
904.392	17452
904.51	17341
904.627	17299
904.745	17452
904.863	17467
904.981	17254
905.098	17045
905.216	17056
905.334	17159
905.451	17109
905.569	16987
905.686	17147
905.803	17075
905.921	16816
906.038	16881
906.155	16866
906.272	16717
906.389	16816
906.506	16542
906.623	16626
906.74	16672
906.857	16538
906.974	16538
907.091	16634
907.208	16706
907.324	16630
907.441	16538
907.557	16280
907.674	16287
907.79	16219
907.907	16287
908.023	16382
908.139	16382
908.256	16303
908.372	16139
908.488	16169
908.604	16025
908.72	16025
908.836	16090
908.952	16002
909.068	16051
909.184	16173
909.3	16105
909.415	15964
909.531	15991
909.647	15827
909.762	15793
909.878	15705
909.993	15751
910.108	15781
910.224	15732
910.339	15705
910.454	15625
910.57	15603
910.685	15504
910.8	15804
910.915	15739
911.03	15580
911.145	15412
911.259	15370
911.374	15363
911.489	15325
911.604	15226
911.718	15195
911.833	15173
911.947	15009
912.062	14994
912.176	15150
912.291	15241
912.405	15112
912.519	15298
912.633	15294
912.748	15116
912.862	15039
912.976	14975
913.09	14754
913.204	14811
913.318	14868
913.431	15047
913.545	15024
913.659	15055
913.772	14880
913.886	14887
914	14765
914.113	14845
914.226	14868
914.34	14788
914.453	14712
914.566	14815
914.68	14651
914.793	14655
914.906	14495
915.019	14347
915.132	14355
915.245	14366
915.358	14366
915.47	14419
915.583	14469
915.696	14408
915.809	14575
915.921	14484
916.034	14366
916.146	14290
916.259	14259
916.371	14339
916.483	14366
916.595	14271
916.708	14256
916.82	14252
916.932	14221
917.044	14278
917.156	14107
917.268	14119
917.38	14123
917.491	14157
917.603	14130
917.715	14134
917.826	14206
917.938	14027
918.049	13913
918.161	14073
918.272	14069
918.384	14111
918.495	14081
918.606	13864
918.717	13788
918.828	13868
918.939	13875
919.05	13765
919.161	13845
919.272	13670
919.383	13738
919.494	13852
919.604	13989
919.715	13894
919.826	13719
919.936	13784
920.047	13864
920.157	13830
920.267	13986
920.378	13830
920.488	13772
920.598	14012
920.708	14153
920.818	13955
920.928	13963
921.038	14107
921.148	14001
921.258	13788
921.368	13715
921.477	13559
921.587	13651
921.697	13464
921.806	13613
921.916	13487
922.025	13289
922.134	13266
922.244	13168
922.353	13232
922.462	13164
922.571	13012
922.68	12970
922.789	12848
922.898	12886
923.007	12795
923.116	12837
923.224	12856
923.333	12817
923.442	12810
923.55	12772
923.659	12795
923.767	12798
923.876	12673
923.984	12798
924.092	12654
924.201	12681
924.309	12585
924.417	12734
924.525	12582
924.633	12574
924.741	13206
924.849	12422
924.956	12509
925.064	12380
925.172	12209
925.279	12315
925.387	12289
925.494	12258
925.602	12422
925.709	12410
925.816	12251
925.924	12266
926.031	12254
926.138	12330
926.245	12319
926.352	12235
926.459	12441
926.566	12380
926.673	12205
926.779	12091
926.886	12106
926.993	11984
927.099	11961
927.206	11897
927.312	11821
927.419	11969
927.525	11931
927.631	11916
927.737	11752
927.843	11733
927.95	11688
928.056	11783
928.162	11748
928.267	11802
928.373	12426
928.479	11847
928.585	11585
928.69	11707
928.796	11699
928.901	11657
929.007	11474
929.112	11672
929.218	11570
929.323	11562
929.428	11493
929.533	11581
929.638	11444
929.743	11471
929.848	11532
929.953	11474
930.058	11410
930.163	11181
930.267	11208
930.372	11376
930.477	11155
930.581	11425
930.685	11204
930.79	11071
930.894	11170
930.998	11083
931.103	11181
931.207	10900
931.311	10854
931.415	10778
931.519	10455
931.623	10527
