Data from test_V78500241_2206.txt Node
Date: Fri Mar 25 15:57:04 CST 2022
User: usil
Spectrometer: V785-0024
Trigger mode: 0
Integration Time (sec): 4.000000E-1
Scans to average: 1
Nonlinearity correction enabled: false
Boxcar width: 0
Storing dark spectrum: false
XAxis mode: Wavelengths
Number of Pixels in Spectrum: 1024
>>>>>Begin Spectral Data<<<<<
801.071	29060
801.214	28908
801.356	28599
801.499	28771
801.641	28489
801.783	28557
801.926	28550
802.068	28462
802.211	28466
802.353	28363
802.496	28276
802.638	28306
802.78	28204
802.923	28101
803.065	28166
803.208	28246
803.35	28451
803.492	28204
803.635	28325
803.777	28246
803.919	28466
804.061	28698
804.204	28588
804.346	28440
804.488	28504
804.63	28546
804.773	28455
804.915	28538
805.057	28611
805.199	28538
805.341	28550
805.483	28611
805.626	28664
805.768	28607
805.91	28679
806.052	28615
806.194	28584
806.336	28888
806.478	28713
806.62	28790
806.762	28721
806.904	28949
807.046	29258
807.188	29216
807.33	28961
807.472	29212
807.614	29060
807.756	29067
807.898	28957
808.04	28896
808.182	28816
808.324	29067
808.465	29102
808.607	29151
808.749	29379
808.891	29429
809.033	29520
809.174	29406
809.316	29288
809.458	29364
809.6	29383
809.741	29539
809.883	29551
810.025	29726
810.166	29627
810.308	29642
810.45	29764
810.591	29547
810.733	29486
810.875	29463
811.016	29174
811.158	29471
811.299	29543
811.441	29547
811.582	29512
811.724	29284
811.865	29315
812.007	29429
812.148	29436
812.29	29414
812.431	29703
812.573	29718
812.714	29916
812.855	29931
812.997	30064
813.138	30079
813.279	30003
813.421	29939
813.562	30007
813.703	29756
813.845	29726
813.986	29318
814.127	29212
814.268	29090
814.41	29189
814.551	29052
814.692	29083
814.833	29102
814.974	28995
815.115	29166
815.256	28946
815.397	28904
815.539	29105
815.68	28881
815.821	28805
815.962	28824
816.103	28839
816.244	28706
816.385	28710
816.526	28744
816.666	28481
816.807	28337
816.948	28561
817.089	28478
817.23	28428
817.371	28519
817.512	28436
817.653	28500
817.793	28386
817.934	28432
818.075	28538
818.216	28485
818.356	28424
818.497	28337
818.638	28192
818.778	28169
818.919	28249
819.06	28204
819.2	28390
819.341	28413
819.481	28508
819.622	28645
819.762	28683
819.903	28637
820.043	28637
820.184	28763
820.324	28596
820.465	28672
820.605	28519
820.746	28557
820.886	28440
821.026	28523
821.167	28607
821.307	28634
821.447	28421
821.588	28432
821.728	28226
821.868	28086
822.008	28044
822.149	27941
822.289	27956
822.429	27709
822.569	27538
822.709	27675
822.849	27549
822.99	27454
823.13	27336
823.27	27386
823.41	27245
823.55	27218
823.69	27374
823.83	27336
823.97	27119
824.11	27074
824.25	27135
824.389	27009
824.529	27032
824.669	27138
824.809	27272
824.949	27199
825.089	27268
825.228	27173
825.368	26887
825.508	27062
825.648	26963
825.787	26944
825.927	27055
826.067	26994
826.206	27024
826.346	27142
826.485	27013
826.625	26952
826.765	27093
826.904	27005
827.044	26830
827.183	26777
827.323	26636
827.462	26746
827.601	26815
827.741	26602
827.88	26895
828.02	26644
828.159	26590
828.298	26735
828.437	26781
828.577	26594
828.716	26720
828.855	26484
828.994	26389
829.134	26385
829.273	26469
829.412	26476
829.551	26374
829.69	26339
829.829	26294
829.968	26590
830.107	26526
830.246	26336
830.385	26206
830.524	26320
830.663	26210
830.802	26084
830.941	26024
831.08	25944
831.219	26126
831.357	26069
831.496	26317
831.635	25955
831.774	25769
831.913	25830
832.051	25746
832.19	25875
832.329	25765
832.467	25693
832.606	25807
832.744	25578
832.883	25784
833.022	25750
833.16	25616
833.299	25719
833.437	25719
833.576	25651
833.714	25693
833.852	25689
833.991	25708
834.129	25784
834.267	25715
834.406	25719
834.544	25727
834.682	25658
834.821	25662
834.959	25830
835.097	25575
835.235	25784
835.373	25693
835.511	25556
835.65	25415
835.788	25540
835.926	25457
836.064	25377
836.202	25304
836.34	25597
836.478	25590
836.615	25453
836.753	25635
836.891	25578
837.029	25605
837.167	25460
837.305	25358
837.443	25445
837.58	25293
837.718	25544
837.856	25441
837.993	25251
838.131	25316
838.269	25270
838.406	25278
838.544	25232
838.681	25137
838.819	25012
838.956	24806
839.094	24760
839.231	24817
839.369	25129
839.506	25061
839.643	25168
839.781	24730
839.918	24795
840.055	24821
840.193	24738
840.33	24772
840.467	24711
840.604	24760
840.742	25050
840.879	24753
841.016	24692
841.153	24711
841.29	24840
841.427	24749
841.564	24734
841.701	24631
841.838	24608
841.975	24631
842.112	24779
842.249	24475
842.385	24479
842.522	24612
842.659	24601
842.796	24445
842.933	24448
843.069	24502
843.206	24448
843.343	24604
843.479	24555
843.616	24483
843.752	24209
843.889	24433
844.025	24391
844.162	24266
844.298	24353
844.435	24178
844.571	24315
844.708	24174
844.844	24376
844.98	24391
845.117	24441
845.253	24205
845.389	24152
845.525	24057
845.661	24136
845.798	23980
845.934	24152
846.07	23878
846.206	23923
846.342	23999
846.478	23950
846.614	23821
846.75	23585
846.886	23707
847.022	23813
847.158	23737
847.294	23722
847.429	23718
847.565	23589
847.701	23920
847.837	23505
847.972	23330
848.108	23303
848.244	23376
848.379	23353
848.515	23227
848.65	23155
848.786	23292
848.921	23467
849.057	23528
849.192	23429
849.328	23235
849.463	23292
849.598	23261
849.734	23185
849.869	23200
850.004	23067
850.14	23208
850.275	22946
850.41	22987
850.545	22930
850.68	22980
850.815	22957
850.95	22953
851.085	23345
851.22	23064
851.355	23094
851.49	23048
851.625	23014
851.76	23048
851.895	22991
852.03	22923
852.165	23083
852.299	23060
852.434	23185
852.569	23090
852.703	23105
852.838	22930
852.973	23277
853.107	23189
853.242	23014
853.376	22649
853.511	22786
853.645	22869
853.78	23037
853.914	22892
854.048	22831
854.183	22820
854.317	22900
854.451	23060
854.585	22866
854.72	22957
854.854	22866
854.988	22752
855.122	22839
855.256	22691
855.39	22736
855.524	22923
855.658	22965
855.792	22889
855.926	22896
856.06	22786
856.194	22972
856.327	22763
856.461	22831
856.595	22847
856.729	22881
856.862	22892
856.996	22854
857.13	22828
857.263	23022
857.397	22934
857.53	22843
857.664	22873
857.797	22877
857.931	22942
858.064	22862
858.197	22869
858.331	22987
858.464	22733
858.597	22679
858.731	22839
858.864	22721
858.997	22889
859.13	22938
859.263	22656
859.396	22831
859.529	22793
859.662	22824
859.795	22778
859.928	22866
860.061	23025
860.194	23086
860.327	22999
860.46	22953
860.592	22896
860.725	22965
860.858	22980
860.99	22710
861.123	22812
861.256	22717
861.388	22847
861.521	23528
861.653	22729
861.786	22793
861.918	22687
862.05	22831
862.183	22736
862.315	22801
862.447	22873
862.58	22816
862.712	22611
862.844	22550
862.976	22675
863.108	22687
863.24	22953
863.372	22512
863.504	22500
863.636	22508
863.768	22691
863.9	22622
864.032	22531
864.164	22592
864.296	22466
864.428	22557
864.559	22611
864.691	22611
864.823	22519
864.954	22447
865.086	22588
865.217	22470
865.349	22402
865.48	22424
865.612	22466
865.743	22554
865.875	22440
866.006	22306
866.137	22436
866.269	22363
866.4	22341
866.531	22344
866.662	22314
866.793	22382
866.924	22367
867.055	22314
867.186	22363
867.317	22421
867.448	22188
867.579	22390
867.71	22322
867.841	22310
867.972	22459
868.103	22394
868.233	22382
868.364	22413
868.495	22550
868.625	22626
868.756	22694
868.886	22428
869.017	22561
869.147	22649
869.278	22786
869.408	22603
869.539	22618
869.669	22569
869.799	22630
869.929	22672
870.06	22725
870.19	22915
870.32	22949
870.45	22896
870.58	23064
870.71	23098
870.84	23109
870.97	22980
871.1	22972
871.23	23102
871.36	23189
871.489	23166
871.619	23159
871.749	23284
871.879	23185
872.008	23391
872.138	23197
872.267	23231
872.397	22965
872.526	23003
872.656	23086
872.785	23010
872.915	23170
873.044	23239
873.173	23208
873.303	23269
873.432	23322
873.561	23273
873.69	23197
873.819	23220
873.948	23353
874.077	23227
874.206	23334
874.335	23227
874.464	23299
874.593	23509
874.722	23368
874.851	23425
874.979	23410
875.108	23623
875.237	23448
875.365	23235
875.494	23520
875.623	23531
875.751	23455
875.88	23471
876.008	23539
876.136	23600
876.265	23821
876.393	24018
876.521	23969
876.65	23980
876.778	23866
876.906	23798
877.034	23771
877.162	23779
877.29	23748
877.418	23748
877.546	23843
877.674	23832
877.802	23684
877.93	23733
878.058	23794
878.185	23581
878.313	23687
878.441	23779
878.568	23680
878.696	23653
878.824	23904
878.951	23843
879.079	24015
879.206	24098
879.333	23935
879.461	23836
879.588	23855
879.715	23950
879.842	24095
879.97	23882
880.097	23531
880.224	23611
880.351	23653
880.478	23611
880.605	23493
880.732	23501
880.859	23741
880.986	23638
881.112	23585
881.239	23471
881.366	23440
881.493	23239
881.619	23102
881.746	23155
881.872	23189
881.999	23086
882.125	23060
882.252	23166
882.378	23166
882.505	23178
882.631	22911
882.757	23003
882.883	22946
883.01	22835
883.136	22774
883.262	22744
883.388	22653
883.514	22767
883.64	22835
883.766	22668
883.892	22523
884.018	22584
884.143	22759
884.269	22999
884.395	22599
884.52	22489
884.646	22432
884.772	22447
884.897	22276
885.023	22565
885.148	22497
885.274	22580
885.399	22569
885.524	22462
885.65	22356
885.775	22466
885.9	22599
886.025	22519
886.15	22497
886.275	22481
886.4	22382
886.525	22516
886.65	22436
886.775	22409
886.9	22622
887.025	22710
887.149	22447
887.274	22295
887.399	22215
887.523	22306
887.648	22246
887.773	22048
887.897	22329
888.021	22253
888.146	22044
888.27	22207
888.395	22356
888.519	22143
888.643	22287
888.767	22272
888.891	22169
889.015	22025
889.139	22010
889.263	21960
889.387	22048
889.511	22352
889.635	22192
889.759	22097
889.883	22021
890.006	21983
890.13	22002
890.254	21869
890.377	21960
890.501	21842
890.624	21778
890.748	21755
890.871	21644
890.995	21496
891.118	21576
891.241	21603
891.364	21477
891.488	21717
891.611	21637
891.734	21580
891.857	21568
891.98	21488
892.103	21545
892.226	21652
892.349	21462
892.471	21348
892.594	21523
892.717	21458
892.839	21515
892.962	21542
893.085	21386
893.207	21412
893.33	21230
893.452	21291
893.575	21450
893.697	21500
893.819	21481
893.941	21663
894.064	21496
894.186	21233
894.308	21389
894.43	21500
894.552	21591
894.674	21466
894.796	21428
894.918	21310
895.04	21401
895.161	21477
895.283	21507
895.405	21393
895.526	21317
895.648	21370
895.769	21355
895.891	21332
896.012	21408
896.134	21439
896.255	21302
896.376	21435
896.498	21355
896.619	21416
896.74	21370
896.861	21386
896.982	21800
897.103	21766
897.224	21568
897.345	21625
897.466	21568
897.587	21629
897.708	21663
897.828	21603
897.949	21572
898.07	21363
898.19	21542
898.311	21686
898.431	21568
898.552	21549
898.672	21698
898.792	21614
898.913	21458
899.033	21656
899.153	21439
899.273	21294
899.393	21370
899.513	21355
899.633	21298
899.753	21218
899.873	21233
899.993	21321
900.113	21363
900.232	21287
900.352	21199
900.472	21165
900.591	21077
900.711	21146
900.83	20979
900.95	21020
901.069	21108
901.189	20982
901.308	20667
901.427	20743
901.546	20659
901.665	20587
901.784	20739
901.904	20495
902.023	20317
902.141	20259
902.26	20161
902.379	20187
902.498	20100
902.617	20183
902.735	19982
902.854	20183
902.973	20008
903.091	19712
903.21	19902
903.328	19811
903.446	19704
903.565	19563
903.683	19601
903.801	19525
903.919	19499
904.038	19506
904.156	19407
904.274	19483
904.392	19362
904.51	19293
904.627	19358
904.745	19396
904.863	19324
904.981	19107
905.098	19137
905.216	18993
905.334	19110
905.451	18954
905.569	19069
905.686	19042
905.803	18958
905.921	18741
906.038	18897
906.155	18738
906.272	18684
906.389	18711
906.506	18525
906.623	18551
906.74	18532
906.857	18460
906.974	18429
907.091	18490
907.208	18639
907.324	18517
907.441	18414
907.557	18220
907.674	18136
907.79	18194
907.907	18270
908.023	18235
908.139	18273
908.256	18201
908.372	18114
908.488	18076
908.604	17977
908.72	17950
908.836	18022
908.952	17927
909.068	17954
909.184	18091
909.3	17946
909.415	17988
909.531	17916
909.647	17729
909.762	17771
909.878	17672
909.993	17661
910.108	17585
910.224	17520
910.339	17608
910.454	17474
910.57	17414
910.685	17395
910.8	17638
910.915	17653
911.03	17459
911.145	17166
911.259	17208
911.374	17250
911.489	17185
911.604	17022
911.718	17079
911.833	17064
911.947	16949
912.062	16900
912.176	17048
912.291	17025
912.405	16987
912.519	17140
912.633	17113
912.748	16953
912.862	16877
912.976	16778
913.09	16717
913.204	16706
913.318	16710
913.431	16854
913.545	16877
913.659	16866
913.772	16748
913.886	16432
914	16683
914.113	16687
914.226	16599
914.34	16535
914.453	16489
914.566	16675
914.68	16519
914.793	16428
914.906	16150
915.019	16154
915.132	16200
915.245	15899
915.358	16150
915.47	16067
915.583	16143
915.696	16124
915.809	16253
915.921	16287
916.034	16025
916.146	16051
916.259	16032
916.371	15937
916.483	15998
916.595	15975
916.708	16071
916.82	15987
916.932	15850
917.044	15888
917.156	15865
917.268	15728
917.38	15667
917.491	15774
917.603	15743
917.715	15728
917.826	15915
917.938	15667
918.049	15587
918.161	15679
918.272	15842
918.384	15751
918.495	15736
918.606	15329
918.717	15382
918.828	15507
918.939	15542
919.05	15397
919.161	15359
919.272	15199
919.383	15363
919.494	15561
919.604	15564
919.715	15431
919.826	15397
919.936	15431
920.047	15568
920.157	15374
920.267	15618
920.378	15462
920.488	15363
920.598	15568
920.708	15755
920.818	15557
920.928	15553
921.038	15686
921.148	15675
921.258	15268
921.368	15245
921.477	15184
921.587	15127
921.697	15062
921.806	15157
921.916	14979
922.025	14819
922.134	14819
922.244	14754
922.353	14785
922.462	14583
922.571	14511
922.68	14499
922.789	14408
922.898	14396
923.007	14347
923.116	14480
923.224	14278
923.333	14362
923.442	14180
923.55	14271
923.659	14374
923.767	14336
923.876	14153
923.984	14328
924.092	14176
924.201	14107
924.309	14199
924.417	14176
924.525	14062
924.633	14081
924.741	14705
924.849	13883
924.956	13875
925.064	13772
925.172	13761
925.279	13750
925.387	13769
925.494	13780
925.602	13868
925.709	13674
925.816	13655
925.924	13712
926.031	13742
926.138	13715
926.245	13696
926.352	13624
926.459	13658
926.566	13765
926.673	13571
926.779	13613
926.886	13495
926.993	13441
927.099	13263
927.206	13247
927.312	13156
927.419	13327
927.525	13236
927.631	13339
927.737	13187
927.843	13175
927.95	12958
928.056	13107
928.162	13080
928.267	13183
928.373	13833
928.479	13126
928.585	12913
928.69	13103
928.796	13103
928.901	12993
929.007	12749
929.112	12920
929.218	12882
929.323	12859
929.428	12772
929.533	13004
929.638	12707
929.743	12833
929.848	12897
929.953	12681
930.058	12639
930.163	12460
930.267	12494
930.372	12616
930.477	12517
930.581	12665
930.685	12540
930.79	12361
930.894	12380
930.998	12224
931.103	12391
931.207	12159
931.311	12083
931.415	11946
931.519	11767
931.623	11710
