Data from test_V78500241_3116.txt Node
Date: Fri Mar 25 16:03:23 CST 2022
User: usil
Spectrometer: V785-0024
Trigger mode: 0
Integration Time (sec): 4.000000E-1
Scans to average: 1
Nonlinearity correction enabled: false
Boxcar width: 0
Storing dark spectrum: false
XAxis mode: Wavelengths
Number of Pixels in Spectrum: 1024
>>>>>Begin Spectral Data<<<<<
801.071	28546
801.214	28538
801.356	28337
801.499	28375
801.641	28169
801.783	28067
801.926	28131
802.068	28226
802.211	28086
802.353	27922
802.496	27914
802.638	27846
802.78	27793
802.923	27774
803.065	27641
803.208	27732
803.35	27941
803.492	28013
803.635	28051
803.777	27922
803.919	28074
804.061	28371
804.204	28067
804.346	28021
804.488	27964
804.63	27899
804.773	28002
804.915	28135
805.057	28325
805.199	28013
805.341	28173
805.483	28329
805.626	28226
805.768	28131
805.91	28192
806.052	28211
806.194	28078
806.336	28337
806.478	28310
806.62	28367
806.762	28303
806.904	28512
807.046	28721
807.188	28668
807.33	28512
807.472	28767
807.614	28733
807.756	28710
807.898	28611
808.04	28519
808.182	28428
808.324	28557
808.465	28599
808.607	28717
808.749	28927
808.891	29060
809.033	29037
809.174	29010
809.316	29083
809.458	28831
809.6	28812
809.741	28995
809.883	28995
810.025	29200
810.166	29090
810.308	29261
810.45	29136
810.591	29098
810.733	28987
810.875	28953
811.016	28900
811.158	28869
811.299	29109
811.441	29022
811.582	29140
811.724	28984
811.865	28930
812.007	28946
812.148	28850
812.29	29071
812.431	29200
812.573	29242
812.714	29303
812.855	29414
812.997	29638
813.138	29657
813.279	29539
813.421	29417
813.562	29474
813.703	29387
813.845	29140
813.986	28919
814.127	28694
814.268	28694
814.41	28649
814.551	28668
814.692	28675
814.833	28561
814.974	28485
815.115	28561
815.256	28436
815.397	28497
815.539	28592
815.68	28440
815.821	28508
815.962	28394
816.103	28481
816.244	28413
816.385	28284
816.526	28169
816.666	28070
816.807	27953
816.948	27926
817.089	28063
817.23	28048
817.371	27953
817.512	27983
817.653	27903
817.793	27899
817.934	27922
818.075	27998
818.216	27987
818.356	27876
818.497	27854
818.638	27610
818.778	27652
818.919	27778
819.06	27724
819.2	27937
819.341	28036
819.481	28055
819.622	28139
819.762	28386
819.903	28230
820.043	28238
820.184	28196
820.324	28143
820.465	28284
820.605	28097
820.746	27987
820.886	27972
821.026	28067
821.167	27846
821.307	28169
821.447	27979
821.588	27762
821.728	27736
821.868	27652
822.008	27561
822.149	27450
822.289	27363
822.429	27275
822.569	27142
822.709	27017
822.849	26929
822.99	27058
823.13	26899
823.27	26937
823.41	26769
823.55	26663
823.69	26902
823.83	26720
823.97	26815
824.11	26648
824.25	26571
824.389	26571
824.529	26667
824.669	26625
824.809	26727
824.949	26602
825.089	26617
825.228	26651
825.368	26434
825.508	26476
825.648	26514
825.787	26457
825.927	26537
826.067	26419
826.206	26453
826.346	26461
826.485	26533
826.625	26457
826.765	26556
826.904	26434
827.044	26336
827.183	26187
827.323	26168
827.462	26381
827.601	26225
827.741	26221
827.88	26164
828.02	26126
828.159	26221
828.298	26210
828.437	26256
828.577	26183
828.716	26240
828.855	26092
828.994	25959
829.134	25841
829.273	26031
829.412	25811
829.551	25795
829.69	25826
829.829	25955
829.968	25913
830.107	25928
830.246	25898
830.385	25776
830.524	25731
830.663	25635
830.802	25757
830.941	25544
831.08	25388
831.219	25518
831.357	25460
831.496	25738
831.635	25491
831.774	25438
831.913	25472
832.051	25266
832.19	25221
832.329	25278
832.467	25209
832.606	25095
832.744	25148
832.883	25206
833.022	25164
833.16	25225
833.299	25141
833.437	25232
833.576	25190
833.714	25160
833.852	25270
833.991	25312
834.129	25354
834.267	25343
834.406	25236
834.544	25194
834.682	25160
834.821	25244
834.959	25525
835.097	25179
835.235	25247
835.373	25145
835.511	25133
835.65	25141
835.788	25118
835.926	25004
836.064	24840
836.202	24992
836.34	24943
836.478	25168
836.615	24882
836.753	25107
836.891	25076
837.029	25050
837.167	25004
837.305	24932
837.443	24966
837.58	24920
837.718	24859
837.856	24878
837.993	24840
838.131	24962
838.269	24700
838.406	24798
838.544	24688
838.681	24513
838.819	24437
838.956	24334
839.094	24365
839.231	24502
839.369	24483
839.506	24791
839.643	24597
839.781	24414
839.918	24079
840.055	24285
840.193	24338
840.33	24338
840.467	24213
840.604	24285
840.742	24483
840.879	24182
841.016	24216
841.153	24129
841.29	24452
841.427	24365
841.564	24205
841.701	24254
841.838	24228
841.975	24129
842.112	24194
842.249	24159
842.385	24117
842.522	24182
842.659	24057
842.796	23984
842.933	24064
843.069	23950
843.206	23984
843.343	23965
843.479	24053
843.616	23897
843.752	23855
843.889	23756
844.025	23805
844.162	23786
844.298	23760
844.435	23821
844.571	23813
844.708	23786
844.844	23901
844.98	23859
845.117	23878
845.253	23798
845.389	23699
845.525	23714
845.661	23512
845.798	23444
845.934	23573
846.07	23474
846.206	23604
846.342	23490
846.478	23410
846.614	23261
846.75	23204
846.886	23231
847.022	23254
847.158	23254
847.294	23216
847.429	23235
847.565	23162
847.701	23417
847.837	23048
847.972	22980
848.108	23109
848.244	23048
848.379	22801
848.515	22896
848.65	22763
848.786	22736
848.921	22847
849.057	22923
849.192	22938
849.328	22812
849.463	22782
849.598	22763
849.734	22721
849.869	22713
850.004	22516
850.14	22626
850.275	22656
850.41	22504
850.545	22641
850.68	22516
850.815	22573
850.95	22474
851.085	22698
851.22	22599
851.355	22588
851.49	22577
851.625	22580
851.76	22664
851.895	22474
852.03	22459
852.165	22611
852.299	22672
852.434	22812
852.569	22656
852.703	22550
852.838	22748
852.973	22698
853.107	22706
853.242	22626
853.376	22455
853.511	22284
853.645	22386
853.78	22573
853.914	22329
854.048	22462
854.183	22455
854.317	22451
854.451	22557
854.585	22504
854.72	22390
854.854	22432
854.988	22394
855.122	22455
855.256	22341
855.39	22356
855.524	22421
855.658	22538
855.792	22497
855.926	22504
856.06	22474
856.194	22504
856.327	22360
856.461	22242
856.595	22272
856.729	22546
856.862	22516
856.996	22443
857.13	22413
857.263	22603
857.397	22516
857.53	22409
857.664	22478
857.797	22394
857.931	22405
858.064	22413
858.197	22569
858.331	22485
858.464	22325
858.597	22363
858.731	22344
858.864	22341
858.997	22390
859.13	22485
859.263	22451
859.396	22596
859.529	22337
859.662	22295
859.795	22417
859.928	22394
860.061	22554
860.194	22554
860.327	22504
860.46	22538
860.592	22527
860.725	22664
860.858	22512
860.99	22459
861.123	22413
861.256	22295
861.388	22432
861.521	23204
861.653	22329
861.786	22306
861.918	22097
862.05	22360
862.183	22314
862.315	22432
862.447	22447
862.58	22356
862.712	22185
862.844	22188
862.976	22219
863.108	22124
863.24	22531
863.372	22074
863.504	22166
863.636	22173
863.768	22124
863.9	22067
864.032	22055
864.164	22059
864.296	22211
864.428	22177
864.559	22044
864.691	22139
864.823	22196
864.954	22185
865.086	22185
865.217	22017
865.349	21949
865.48	22044
865.612	22105
865.743	22090
865.875	21983
866.006	21949
866.137	22093
866.269	22036
866.4	22021
866.531	21915
866.662	21892
866.793	21876
866.924	21876
867.055	21956
867.186	22051
867.317	21876
867.448	21903
867.579	21895
867.71	21869
867.841	21945
867.972	21972
868.103	21968
868.233	21869
868.364	21941
868.495	22097
868.625	22116
868.756	22295
868.886	22040
869.017	21998
869.147	22234
869.278	22226
869.408	22211
869.539	22112
869.669	22181
869.799	22215
869.929	22253
870.06	22337
870.19	22626
870.32	22417
870.45	22550
870.58	22588
870.71	22664
870.84	22615
870.97	22588
871.1	22599
871.23	22736
871.36	22752
871.489	22740
871.619	22835
871.749	22660
871.879	22763
872.008	22786
872.138	22771
872.267	22820
872.397	22687
872.526	22569
872.656	22611
872.785	22451
872.915	22771
873.044	22809
873.173	22786
873.303	22748
873.432	22854
873.561	22938
873.69	22835
873.819	22862
873.948	22862
874.077	22809
874.206	22862
874.335	22744
874.464	22805
874.593	22995
874.722	22900
874.851	22987
874.979	23067
875.108	23170
875.237	22976
875.365	22934
875.494	23014
875.623	23132
875.751	23003
875.88	23102
876.008	23079
876.136	23200
876.265	23402
876.393	23474
876.521	23478
876.65	23436
876.778	23410
876.906	23265
877.034	23383
877.162	23315
877.29	23284
877.418	23311
877.546	23391
877.674	23440
877.802	23265
877.93	23296
878.058	23303
878.185	23117
878.313	23345
878.441	23330
878.568	23159
878.696	23284
878.824	23372
878.951	23425
879.079	23524
879.206	23585
879.333	23429
879.461	23372
879.588	23455
879.715	23608
879.842	23646
879.97	23376
880.097	23250
880.224	23086
880.351	23220
880.478	23200
880.605	23067
880.732	23132
880.859	23452
880.986	23162
881.112	23170
881.239	23060
881.366	22919
881.493	22786
881.619	22755
881.746	22828
881.872	22733
881.999	22740
882.125	22588
882.252	22763
882.378	22759
882.505	22847
882.631	22489
882.757	22493
882.883	22500
883.01	22402
883.136	22375
883.262	22310
883.388	22272
883.514	22280
883.64	22382
883.766	22276
883.892	22196
884.018	22234
884.143	22287
884.269	22379
884.395	22215
884.52	21972
884.646	22090
884.772	22036
884.897	21892
885.023	22036
885.148	22063
885.274	22169
885.399	22192
885.524	22128
885.65	22082
885.775	22013
885.9	22013
886.025	22070
886.15	22082
886.275	22025
886.4	22021
886.525	22006
886.65	21953
886.775	21842
886.9	22215
887.025	22055
887.149	21991
887.274	21797
887.399	21804
887.523	21865
887.648	21679
887.773	21698
887.897	21876
888.021	21808
888.146	21728
888.27	21907
888.395	21850
888.519	21899
888.643	21861
888.767	21865
888.891	21732
889.015	21694
889.139	21759
889.263	21564
889.387	21793
889.511	21956
889.635	21690
889.759	21625
889.883	21561
890.006	21496
890.13	21652
890.254	21473
890.377	21618
890.501	21412
890.624	21348
890.748	21485
890.871	21195
890.995	21131
891.118	21100
891.241	21218
891.364	21154
891.488	21302
891.611	21207
891.734	21131
891.857	21256
891.98	21173
892.103	21233
892.226	21161
892.349	21028
892.471	20883
892.594	20975
892.717	21157
892.839	21096
892.962	21089
893.085	21169
893.207	21062
893.33	20929
893.452	21020
893.575	21081
893.697	20960
893.819	21252
893.941	21306
894.064	21135
894.186	21032
894.308	20960
894.43	21058
894.552	21161
894.674	21024
894.796	20758
894.918	20941
895.04	20990
895.161	21119
895.283	20986
895.405	20982
895.526	21005
895.648	21028
895.769	20998
895.891	21119
896.012	21081
896.134	20979
896.255	20994
896.376	21066
896.498	20994
896.619	21032
896.74	20944
896.861	21138
896.982	21294
897.103	21367
897.224	21283
897.345	21188
897.466	21165
897.587	21252
897.708	21336
897.828	21180
897.949	21245
898.07	21081
898.19	21165
898.311	21203
898.431	21047
898.552	21222
898.672	21154
898.792	21222
898.913	21157
899.033	21157
899.153	21062
899.273	20830
899.393	20941
899.513	20944
899.633	20899
899.753	20914
899.873	20800
899.993	20933
900.113	20864
900.232	20883
900.352	20811
900.472	20830
900.591	20663
900.711	20735
900.83	20583
900.95	20754
901.069	20762
901.189	20644
901.308	20446
901.427	20263
901.546	20263
901.665	20317
901.784	20305
901.904	20221
902.023	19982
902.141	19898
902.26	19913
902.379	19955
902.498	19803
902.617	19731
902.735	19799
902.854	19833
902.973	19548
903.091	19441
903.21	19540
903.328	19430
903.446	19419
903.565	19301
903.683	19217
903.801	19133
903.919	19141
904.038	19145
904.156	18996
904.274	19179
904.392	19072
904.51	18844
904.627	18863
904.745	18985
904.863	18977
904.981	18760
905.098	18684
905.216	18661
905.334	18688
905.451	18658
905.569	18642
905.686	18646
905.803	18688
905.921	18452
906.038	18429
906.155	18483
906.272	18399
906.389	18391
906.506	18171
906.623	18174
906.74	18315
906.857	18022
906.974	18174
907.091	18338
907.208	18304
907.324	18197
907.441	18098
907.557	18003
907.674	17961
907.79	17809
907.907	17836
908.023	17908
908.139	17851
908.256	17813
908.372	17817
908.488	17767
908.604	17558
908.72	17634
908.836	17600
908.952	17699
909.068	17703
909.184	17691
909.3	17581
909.415	17627
909.531	17642
909.647	17448
909.762	17307
909.878	17330
909.993	17197
910.108	17315
910.224	17239
910.339	17303
910.454	17147
910.57	17136
910.685	17006
910.8	17421
910.915	17220
911.03	17121
911.145	16938
911.259	17003
911.374	16934
911.489	16915
911.604	16835
911.718	16607
911.833	16721
911.947	16512
912.062	16558
912.176	16596
912.291	16542
912.405	16577
912.519	16774
912.633	16702
912.748	16702
912.862	16615
912.976	16478
913.09	16379
913.204	16421
913.318	16531
913.431	16558
913.545	16481
913.659	16599
913.772	16398
913.886	16280
914	16306
914.113	16276
914.226	16367
914.34	16276
914.453	16086
914.566	16242
914.68	15998
914.793	16002
914.906	15846
915.019	15770
915.132	15808
915.245	15808
915.358	15884
915.47	15816
915.583	15865
915.696	15835
915.809	15797
915.921	15895
916.034	15774
916.146	15698
916.259	15652
916.371	15774
916.483	15736
916.595	15629
916.708	15694
916.82	15724
916.932	15591
917.044	15633
917.156	15614
917.268	15431
917.38	15488
917.491	15447
917.603	15477
917.715	15500
917.826	15488
917.938	15374
918.049	15351
918.161	15393
918.272	15564
918.384	15496
918.495	15370
918.606	15218
918.717	15142
918.828	15233
918.939	15222
919.05	15146
919.161	15188
919.272	14982
919.383	14914
919.494	15287
919.604	15378
919.715	15043
919.826	15119
919.936	15093
920.047	15264
920.157	15161
920.267	15233
920.378	15165
920.488	15116
920.598	15367
920.708	15424
920.818	15226
920.928	15256
921.038	15393
921.148	15412
921.258	15116
921.368	14937
921.477	14800
921.587	14792
921.697	14758
921.806	14830
921.916	14686
922.025	14667
922.134	14484
922.244	14454
922.353	14526
922.462	14450
922.571	14275
922.68	14142
922.789	14199
922.898	14183
923.007	14081
923.116	14161
923.224	14271
923.333	14149
923.442	14016
923.55	14027
923.659	13822
923.767	13997
923.876	13837
923.984	13970
924.092	13879
924.201	13864
924.309	13902
924.417	13925
924.525	13765
924.633	13734
924.741	14587
924.849	13548
924.956	13712
925.064	13548
925.172	13460
925.279	13518
925.387	13548
925.494	13510
925.602	13571
925.709	13525
925.816	13537
925.924	13487
926.031	13537
926.138	13464
926.245	13445
926.352	13388
926.459	13521
926.566	13502
926.673	13316
926.779	13285
926.886	13297
926.993	13160
927.099	13095
927.206	13012
927.312	13023
927.419	13099
927.525	13061
927.631	13114
927.737	12935
927.843	12871
927.95	12817
928.056	12856
928.162	12878
928.267	12943
928.373	13590
928.479	12954
928.585	12673
928.69	12821
928.796	12859
928.901	12692
929.007	12585
929.112	12692
929.218	12688
929.323	12612
929.428	12582
929.533	12798
929.638	12460
929.743	12498
929.848	12597
929.953	12490
930.058	12490
930.163	12308
930.267	12342
930.372	12350
930.477	12159
930.581	12388
930.685	12289
930.79	12129
930.894	12133
930.998	12026
931.103	12285
931.207	11935
931.311	11824
931.415	11676
931.519	11524
931.623	11497
