Data from test_V78500241_1732.txt Node
Date: Fri Mar 25 15:53:47 CST 2022
User: usil
Spectrometer: V785-0024
Trigger mode: 0
Integration Time (sec): 4.000000E-1
Scans to average: 1
Nonlinearity correction enabled: false
Boxcar width: 0
Storing dark spectrum: false
XAxis mode: Wavelengths
Number of Pixels in Spectrum: 1024
>>>>>Begin Spectral Data<<<<<
801.071	28234
801.214	28032
801.356	27911
801.499	27835
801.641	27770
801.783	27694
801.926	27838
802.068	27854
802.211	27625
802.353	27625
802.496	27443
802.638	27401
802.78	27408
802.923	27386
803.065	27272
803.208	27355
803.35	27393
803.492	27538
803.635	27679
803.777	27481
803.919	27709
804.061	27865
804.204	27641
804.346	27660
804.488	27443
804.63	27755
804.773	27504
804.915	27694
805.057	27751
805.199	27568
805.341	27755
805.483	27793
805.626	27747
805.768	27793
805.91	27800
806.052	27812
806.194	27614
806.336	27850
806.478	27930
806.62	27656
806.762	27873
806.904	27960
807.046	28154
807.188	28272
807.33	28246
807.472	28363
807.614	28074
807.756	28067
807.898	28044
808.04	27994
808.182	27926
808.324	28010
808.465	28086
808.607	28238
808.749	28322
808.891	28478
809.033	28523
809.174	28557
809.316	28356
809.458	28371
809.6	28310
809.741	28531
809.883	28577
810.025	28687
810.166	28725
810.308	28546
810.45	28717
810.591	28580
810.733	28337
810.875	28386
811.016	28409
811.158	28322
811.299	28538
811.441	28588
811.582	28664
811.724	28451
811.865	28398
812.007	28424
812.148	28432
812.29	28390
812.431	28626
812.573	28588
812.714	28752
812.855	28881
812.997	29014
813.138	29208
813.279	29098
813.421	29022
813.562	28801
813.703	28782
813.845	28611
813.986	28318
814.127	28204
814.268	28234
814.41	28044
814.551	28097
814.692	28032
814.833	27991
814.974	28097
815.115	28063
815.256	27854
815.397	28105
815.539	28055
815.68	27994
815.821	27774
815.962	27945
816.103	27914
816.244	27648
816.385	27679
816.526	27637
816.666	27587
816.807	27329
816.948	27458
817.089	27500
817.23	27389
817.371	27447
817.512	27340
817.653	27302
817.793	27469
817.934	27431
818.075	27351
818.216	27492
818.356	27370
818.497	27260
818.638	27157
818.778	27188
818.919	27169
819.06	27264
819.2	27370
819.341	27416
819.481	27363
819.622	27549
819.762	27644
819.903	27720
820.043	27580
820.184	27545
820.324	27599
820.465	27564
820.605	27542
820.746	27625
820.886	27325
821.026	27450
821.167	27382
821.307	27431
821.447	27431
821.588	27325
821.728	27138
821.868	26948
822.008	26785
822.149	26952
822.289	26910
822.429	26625
822.569	26526
822.709	26473
822.849	26457
822.99	26313
823.13	26431
823.27	26248
823.41	26180
823.55	26020
823.69	26130
823.83	26115
823.97	26195
824.11	26005
824.25	26016
824.389	26084
824.529	26031
824.669	25917
824.809	26081
824.949	26020
825.089	26084
825.228	25909
825.368	25856
825.508	25936
825.648	25974
825.787	25852
825.927	25925
826.067	25784
826.206	25845
826.346	25856
826.485	25788
826.625	25704
826.765	25978
826.904	25883
827.044	25677
827.183	25727
827.323	25483
827.462	25670
827.601	25590
827.741	25544
827.88	25655
828.02	25441
828.159	25708
828.298	25635
828.437	25830
828.577	25601
828.716	25708
828.855	25407
828.994	25327
829.134	25217
829.273	25304
829.412	25293
829.551	25270
829.69	25247
829.829	25247
829.968	25304
830.107	25255
830.246	25301
830.385	25308
830.524	25301
830.663	25057
830.802	24981
830.941	24916
831.08	24821
831.219	24943
831.357	24992
831.496	25133
831.635	25046
831.774	24897
831.913	24913
832.051	24817
832.19	24673
832.329	24623
832.467	24593
832.606	24578
832.744	24509
832.883	24608
833.022	24505
833.16	24563
833.299	24528
833.437	24585
833.576	24677
833.714	24646
833.852	24703
833.991	24574
834.129	24726
834.267	24741
834.406	24730
834.544	24608
834.682	24532
834.821	24551
834.959	24779
835.097	24475
835.235	24608
835.373	24490
835.511	24525
835.65	24437
835.788	24509
835.926	24311
836.064	24285
836.202	24304
836.34	24460
836.478	24483
836.615	24388
836.753	24490
836.891	24597
837.029	24452
837.167	24464
837.305	24201
837.443	24342
837.58	24277
837.718	24304
837.856	24232
837.993	24163
838.131	24254
838.269	24174
838.406	24102
838.544	24098
838.681	23984
838.819	23885
838.956	23851
839.094	23756
839.231	23843
839.369	23988
839.506	24155
839.643	23946
839.781	23764
839.918	23615
840.055	23870
840.193	23771
840.33	23752
840.467	23707
840.604	23752
840.742	23832
840.879	23608
841.016	23653
841.153	23592
841.29	23676
841.427	23615
841.564	23672
841.701	23665
841.838	23619
841.975	23463
842.112	23623
842.249	23379
842.385	23436
842.522	23558
842.659	23395
842.796	23364
842.933	23398
843.069	23387
843.206	23421
843.343	23360
843.479	23528
843.616	23410
843.752	23193
843.889	23242
844.025	23330
844.162	23109
844.298	23277
844.435	23105
844.571	23136
844.708	23223
844.844	23455
844.98	23360
845.117	23379
845.253	23151
845.389	23052
845.525	22927
845.661	22850
845.798	22946
845.934	22961
846.07	23029
846.206	22968
846.342	22949
846.478	22904
846.614	22679
846.75	22565
846.886	22603
847.022	22641
847.158	22744
847.294	22660
847.429	22691
847.565	22725
847.701	22904
847.837	22344
847.972	22318
848.108	22523
848.244	22333
848.379	22318
848.515	22215
848.65	22154
848.786	22204
848.921	22230
849.057	22363
849.192	22443
849.328	22253
849.463	22211
849.598	22211
849.734	22181
849.869	22143
850.004	21972
850.14	22105
850.275	22006
850.41	21888
850.545	21941
850.68	21983
850.815	21991
850.95	21953
851.085	22207
851.22	22063
851.355	21994
851.49	21899
851.625	22002
851.76	21937
851.895	21880
852.03	21937
852.165	21960
852.299	21911
852.434	22131
852.569	21968
852.703	22093
852.838	22070
852.973	22029
853.107	22116
853.242	21972
853.376	21865
853.511	21667
853.645	21747
853.78	21907
853.914	21838
854.048	21808
854.183	21751
854.317	21766
854.451	21956
854.585	21751
854.72	21842
854.854	22010
854.988	21793
855.122	21739
855.256	21507
855.39	21850
855.524	21915
855.658	21762
855.792	21869
855.926	21918
856.06	21831
856.194	21857
856.327	21854
856.461	21800
856.595	21694
856.729	21842
856.862	21842
856.996	21835
857.13	21819
857.263	21987
857.397	21907
857.53	21743
857.664	21804
857.797	21937
857.931	21972
858.064	21934
858.197	21941
858.331	21892
858.464	21671
858.597	21698
858.731	21648
858.864	21728
858.997	21679
859.13	21854
859.263	21793
859.396	21774
859.529	21781
859.662	21781
859.795	21785
859.928	21835
860.061	22070
860.194	22044
860.327	21827
860.46	21793
860.592	21960
860.725	22010
860.858	21972
860.99	21838
861.123	21663
861.256	21739
861.388	21732
861.521	22679
861.653	21648
861.786	21530
861.918	21591
862.05	21682
862.183	21709
862.315	21759
862.447	21694
862.58	21686
862.712	21606
862.844	21549
862.976	21507
863.108	21549
863.24	21876
863.372	21473
863.504	21542
863.636	21492
863.768	21538
863.9	21469
864.032	21500
864.164	21454
864.296	21610
864.428	21641
864.559	21545
864.691	21545
864.823	21477
864.954	21507
865.086	21545
865.217	21351
865.349	21374
865.48	21325
865.612	21412
865.743	21496
865.875	21507
866.006	21378
866.137	21382
866.269	21336
866.4	21363
866.531	21321
866.662	21268
866.793	21321
866.924	21302
867.055	21443
867.186	21431
867.317	21211
867.448	21374
867.579	21283
867.71	21287
867.841	21222
867.972	21306
868.103	21283
868.233	21389
868.364	21363
868.495	21355
868.625	21610
868.756	21724
868.886	21443
869.017	21496
869.147	21576
869.278	21705
869.408	21652
869.539	21675
869.669	21629
869.799	21553
869.929	21705
870.06	21743
870.19	21892
870.32	21922
870.45	21793
870.58	21880
870.71	21987
870.84	22112
870.97	21918
871.1	21937
871.23	22173
871.36	22055
871.489	22086
871.619	22063
871.749	22059
871.879	22333
872.008	22280
872.138	22215
872.267	22169
872.397	22051
872.526	21899
872.656	21964
872.785	22036
872.915	22188
873.044	22295
873.173	22215
873.303	22204
873.432	22341
873.561	22451
873.69	22242
873.819	22169
873.948	22219
874.077	22257
874.206	22257
874.335	22215
874.464	22325
874.593	22470
874.722	22367
874.851	22527
874.979	22497
875.108	22436
875.237	22390
875.365	22341
875.494	22371
875.623	22508
875.751	22405
875.88	22344
876.008	22390
876.136	22573
876.265	22805
876.393	23022
876.521	22755
876.65	22999
876.778	22839
876.906	22752
877.034	22687
877.162	22858
877.29	22782
877.418	22816
877.546	22755
877.674	22778
877.802	22736
877.93	22740
878.058	22645
878.185	22656
878.313	22801
878.441	22767
878.568	22668
878.696	22801
878.824	22698
878.951	22847
879.079	22953
879.206	22991
879.333	22904
879.461	22702
879.588	22843
879.715	22896
879.842	23064
879.97	22843
880.097	22618
880.224	22542
880.351	22634
880.478	22660
880.605	22565
880.732	22516
880.859	22843
880.986	22706
881.112	22531
881.239	22405
881.366	22371
881.493	22348
881.619	22223
881.746	22268
881.872	22284
881.999	22070
882.125	21998
882.252	22143
882.378	22074
882.505	22287
882.631	22097
882.757	21880
882.883	21964
883.01	21918
883.136	21979
883.262	21724
883.388	21637
883.514	21857
883.64	21785
883.766	21766
883.892	21625
884.018	21599
884.143	21739
884.269	21915
884.395	21542
884.52	21386
884.646	21485
884.772	21374
884.897	21351
885.023	21519
885.148	21553
885.274	21641
885.399	21591
885.524	21431
885.65	21420
885.775	21382
885.9	21374
886.025	21603
886.15	21481
886.275	21431
886.4	21408
886.525	21519
886.65	21401
886.775	21412
886.9	21507
887.025	21694
887.149	21389
887.274	21268
887.399	21321
887.523	21176
887.648	21184
887.773	21161
887.897	21355
888.021	21256
888.146	21123
888.27	21355
888.395	21310
888.519	21298
888.643	21252
888.767	21374
888.891	21081
889.015	21081
889.139	21226
889.263	20944
889.387	21127
889.511	21283
889.635	21150
889.759	20982
889.883	21108
890.006	21051
890.13	21150
890.254	20880
890.377	20838
890.501	20765
890.624	20781
890.748	20834
890.871	20712
890.995	20484
891.118	20568
891.241	20560
891.364	20560
891.488	20765
891.611	20587
891.734	20571
891.857	20663
891.98	20655
892.103	20670
892.226	20583
892.349	20598
892.471	20442
892.594	20541
892.717	20705
892.839	20545
892.962	20457
893.085	20552
893.207	20541
893.33	20431
893.452	20457
893.575	20697
893.697	20412
893.819	20568
893.941	20708
894.064	20625
894.186	20492
894.308	20400
894.43	20545
894.552	20701
894.674	20457
894.796	20400
894.918	20518
895.04	20446
895.161	20701
895.283	20476
895.405	20499
895.526	20545
895.648	20465
895.769	20598
895.891	20552
896.012	20636
896.134	20511
896.255	20533
896.376	20484
896.498	20461
896.619	20541
896.74	20495
896.861	20617
896.982	20857
897.103	20838
897.224	20651
897.345	20663
897.466	20697
897.587	20712
897.708	20724
897.828	20743
897.949	20708
898.07	20579
898.19	20667
898.311	20788
898.431	20663
898.552	20682
898.672	20705
898.792	20735
898.913	20743
899.033	20454
899.153	20469
899.273	20450
899.393	20408
899.513	20476
899.633	20427
899.753	20507
899.873	20434
899.993	20499
900.113	20339
900.232	20423
900.352	20434
900.472	20096
900.591	20256
900.711	20111
900.83	20164
900.95	20427
901.069	20263
901.189	20134
901.308	19906
901.427	19723
901.546	19864
901.665	19791
901.784	19837
901.904	19689
902.023	19540
902.141	19388
902.26	19346
902.379	19304
902.498	19381
902.617	19274
902.735	19422
902.854	19247
902.973	19308
903.091	18966
903.21	19050
903.328	18886
903.446	18825
903.565	18859
903.683	18810
903.801	18707
903.919	18623
904.038	18654
904.156	18555
904.274	18551
904.392	18528
904.51	18574
904.627	18620
904.745	18608
904.863	18570
904.981	18414
905.098	18277
905.216	18228
905.334	18273
905.451	18201
905.569	18057
905.686	18330
905.803	18133
905.921	18003
906.038	18117
906.155	18095
906.272	17931
906.389	17790
906.506	17805
906.623	17707
906.74	17832
906.857	17619
906.974	17608
907.091	17714
907.208	17805
907.324	17790
907.441	17733
907.557	17353
907.674	17376
907.79	17471
907.907	17337
908.023	17452
908.139	17425
908.256	17410
908.372	17303
908.488	17349
908.604	17185
908.72	17193
908.836	17086
908.952	17102
909.068	17227
909.184	17204
909.3	17143
909.415	17037
909.531	17155
909.647	16885
909.762	16915
909.878	16942
909.993	16778
910.108	16786
910.224	16812
910.339	16782
910.454	16729
910.57	16702
910.685	16573
910.8	16869
910.915	16828
911.03	16675
911.145	16599
911.259	16402
911.374	16421
911.489	16504
911.604	16322
911.718	16158
911.833	16219
911.947	16112
912.062	16093
912.176	16242
912.291	16204
912.405	16188
912.519	16413
912.633	16310
912.748	16147
912.862	16078
912.976	15991
913.09	15895
913.204	15987
913.318	16048
913.431	16139
913.545	16090
913.659	16074
913.772	15953
913.886	15854
914	15770
914.113	15899
914.226	16006
914.34	15861
914.453	15770
914.566	15762
914.68	15739
914.793	15667
914.906	15481
915.019	15355
915.132	15355
915.245	15317
915.358	15393
915.47	15473
915.583	15363
915.696	15454
915.809	15519
915.921	15466
916.034	15386
916.146	15188
916.259	15291
916.371	15367
916.483	15439
916.595	15237
916.708	15188
916.82	15222
916.932	15199
917.044	15165
917.156	15058
917.268	15036
917.38	15074
917.491	15104
917.603	14982
917.715	15154
917.826	15119
917.938	15055
918.049	14891
918.161	14963
918.272	15116
918.384	15097
918.495	14982
918.606	14796
918.717	14857
918.828	14864
918.939	14830
919.05	14659
919.161	14819
919.272	14606
919.383	14594
919.494	14800
919.604	14906
919.715	14785
919.826	14648
919.936	14720
920.047	14880
920.157	14781
920.267	14887
920.378	14762
920.488	14674
920.598	14998
920.708	15047
920.818	14937
920.928	14746
921.038	14990
921.148	14902
921.258	14731
921.368	14571
921.477	14537
921.587	14457
921.697	14324
921.806	14454
921.916	14275
922.025	14199
922.134	14115
922.244	14073
922.353	14180
922.462	14183
922.571	13944
922.68	13807
922.789	13807
922.898	13761
923.007	13723
923.116	13746
923.224	13761
923.333	13670
923.442	13647
923.55	13575
923.659	13590
923.767	13666
923.876	13613
923.984	13643
924.092	13559
924.201	13559
924.309	13521
924.417	13419
924.525	13464
924.633	13403
924.741	14317
924.849	13251
924.956	13339
925.064	13285
925.172	13145
925.279	13278
925.387	13156
925.494	13133
925.602	13320
925.709	13228
925.816	13019
925.924	13137
926.031	13175
926.138	13122
926.245	13198
926.352	13008
926.459	13236
926.566	13228
926.673	13019
926.779	12916
926.886	12871
926.993	12726
927.099	12821
927.206	12734
927.312	12673
927.419	12711
927.525	12722
927.631	12829
927.737	12631
927.843	12509
927.95	12544
928.056	12604
928.162	12570
928.267	12650
928.373	13152
928.479	12547
928.585	12388
928.69	12517
928.796	12544
928.901	12365
929.007	12323
929.112	12376
929.218	12353
929.323	12277
929.428	12308
929.533	12422
929.638	12239
929.743	12155
929.848	12296
929.953	12182
930.058	12110
930.163	11999
930.267	12015
930.372	12133
930.477	11893
930.581	12152
930.685	12060
930.79	11832
930.894	11809
930.998	11863
931.103	11935
931.207	11520
931.311	11455
931.415	11436
931.519	11147
931.623	11208
