Data from test_V78500241_173.txt Node
Date: Fri Mar 25 15:43:00 CST 2022
User: usil
Spectrometer: V785-0024
Trigger mode: 0
Integration Time (sec): 4.000000E-1
Scans to average: 1
Nonlinearity correction enabled: false
Boxcar width: 0
Storing dark spectrum: false
XAxis mode: Wavelengths
Number of Pixels in Spectrum: 1024
>>>>>Begin Spectral Data<<<<<
801.071	28999
801.214	28839
801.356	28580
801.499	28630
801.641	28504
801.783	28512
801.926	28481
802.068	28413
802.211	28470
802.353	28360
802.496	28090
802.638	28044
802.78	28067
802.923	27964
803.065	27903
803.208	28013
803.35	28048
803.492	28166
803.635	28230
803.777	28067
803.919	28158
804.061	28538
804.204	28261
804.346	28105
804.488	27930
804.63	28109
804.773	28006
804.915	28086
805.057	28143
805.199	28131
805.341	28207
805.483	28147
805.626	28314
805.768	28109
805.91	28192
806.052	28249
806.194	28200
806.336	28382
806.478	28287
806.62	28238
806.762	28341
806.904	28470
807.046	28755
807.188	28607
807.33	28740
807.472	28725
807.614	28481
807.756	28542
807.898	28451
808.04	28443
808.182	28356
808.324	28611
808.465	28363
808.607	28694
808.749	28637
808.891	28938
809.033	29006
809.174	28904
809.316	28752
809.458	28706
809.6	28771
809.741	28847
809.883	28873
810.025	29071
810.166	28991
810.308	28968
810.45	28904
810.591	28900
810.733	28771
810.875	28736
811.016	28759
811.158	28679
811.299	28752
811.441	28904
811.582	28892
811.724	28744
811.865	28873
812.007	28713
812.148	28721
812.29	28725
812.431	28847
812.573	29006
812.714	29124
812.855	29166
812.997	29318
813.138	29421
813.279	29364
813.421	29341
813.562	29147
813.703	29041
813.845	28816
813.986	28596
814.127	28424
814.268	28379
814.41	28401
814.551	28348
814.692	28238
814.833	28234
814.974	28325
815.115	28207
815.256	28230
815.397	28131
815.539	28029
815.68	28010
815.821	27911
815.962	28010
816.103	28128
816.244	27987
816.385	27914
816.526	27808
816.666	27477
816.807	27450
816.948	27454
817.089	27450
817.23	27393
817.371	27458
817.512	27545
817.653	27382
817.793	27199
817.934	27382
818.075	27332
818.216	27496
818.356	27313
818.497	27310
818.638	27146
818.778	27275
818.919	27104
819.06	27176
819.2	27211
819.341	27477
819.481	27264
819.622	27477
819.762	27637
819.903	27587
820.043	27477
820.184	27427
820.324	27382
820.465	27564
820.605	27382
820.746	27469
820.886	27340
821.026	27378
821.167	27382
821.307	27416
821.447	27256
821.588	27325
821.728	27005
821.868	26948
822.008	26834
822.149	26838
822.289	26823
822.429	26541
822.569	26438
822.709	26480
822.849	26294
822.99	26237
823.13	26073
823.27	26107
823.41	26130
823.55	26134
823.69	26050
823.83	26043
823.97	26164
824.11	25772
824.25	25875
824.389	25772
824.529	25849
824.669	25833
824.809	26024
824.949	25894
825.089	25879
825.228	25928
825.368	25624
825.508	25658
825.648	25681
825.787	25727
825.927	25750
826.067	25563
826.206	25662
826.346	25601
826.485	25693
826.625	25677
826.765	25807
826.904	25662
827.044	25373
827.183	25373
827.323	25350
827.462	25495
827.601	25411
827.741	25266
827.88	25350
828.02	25320
828.159	25350
828.298	25285
828.437	25282
828.577	25225
828.716	25468
828.855	25228
828.994	24905
829.134	25053
829.273	24966
829.412	24992
829.551	24973
829.69	25057
829.829	24977
829.968	25004
830.107	24947
830.246	24935
830.385	24867
830.524	24798
830.663	24757
830.802	24741
830.941	24475
831.08	24597
831.219	24540
831.357	24585
831.496	24719
831.635	24418
831.774	24426
831.913	24380
832.051	24346
832.19	24224
832.329	24399
832.467	24353
832.606	24064
832.744	24114
832.883	24228
833.022	24041
833.16	24239
833.299	24136
833.437	24076
833.576	24213
833.714	24239
833.852	24133
833.991	24205
834.129	24357
834.267	24239
834.406	24064
834.544	24114
834.682	24163
834.821	24136
834.959	24178
835.097	23946
835.235	24155
835.373	24098
835.511	24076
835.65	23950
835.788	23939
835.926	23847
836.064	23760
836.202	23790
836.34	24018
836.478	24060
836.615	24003
836.753	24087
836.891	24114
837.029	24038
837.167	23870
837.305	23939
837.443	23836
837.58	23855
837.718	23794
837.856	23939
837.993	23718
838.131	23805
838.269	23611
838.406	23691
838.544	23524
838.681	23455
838.819	23425
838.956	23280
839.094	23307
839.231	23200
839.369	23406
839.506	23566
839.643	23520
839.781	23246
839.918	23098
840.055	23162
840.193	23075
840.33	23185
840.467	23132
840.604	23284
840.742	23353
840.879	23018
841.016	22919
841.153	22946
841.29	23280
841.427	23136
841.564	23048
841.701	23174
841.838	23037
841.975	22995
842.112	22976
842.249	22991
842.385	22854
842.522	22984
842.659	22881
842.796	22835
842.933	22774
843.069	22759
843.206	22759
843.343	22839
843.479	22790
843.616	22736
843.752	22626
843.889	22561
844.025	22641
844.162	22474
844.298	22679
844.435	22618
844.571	22478
844.708	22592
844.844	22771
844.98	22603
845.117	22645
845.253	22455
845.389	22440
845.525	22421
845.661	22363
845.798	22341
845.934	22470
846.07	22226
846.206	22276
846.342	22348
846.478	22341
846.614	22166
846.75	22063
846.886	21956
847.022	22063
847.158	22158
847.294	22017
847.429	22051
847.565	22078
847.701	22196
847.837	21694
847.972	21694
848.108	21895
848.244	21968
848.379	21743
848.515	21686
848.65	21523
848.786	21542
848.921	21538
849.057	21641
849.192	21667
849.328	21671
849.463	21705
849.598	21530
849.734	21401
849.869	21424
850.004	21458
850.14	21431
850.275	21408
850.41	21344
850.545	21199
850.68	21173
850.815	21287
850.95	21291
851.085	21454
851.22	21370
851.355	21310
851.49	21306
851.625	21207
851.76	21272
851.895	21218
852.03	21146
852.165	21374
852.299	21431
852.434	21344
852.569	21252
852.703	21157
852.838	21374
852.973	21542
853.107	21408
853.242	21252
853.376	21154
853.511	21028
853.645	21142
853.78	21287
853.914	21146
854.048	21062
854.183	21108
854.317	21184
854.451	21332
854.585	21108
854.72	21066
854.854	21108
854.988	21039
855.122	21161
855.256	20944
855.39	21013
855.524	21138
855.658	21138
855.792	21150
855.926	21074
856.06	21127
856.194	21157
856.327	21127
856.461	20967
856.595	20948
856.729	21013
856.862	21142
856.996	21062
857.13	21146
857.263	21108
857.397	21241
857.53	21028
857.664	21142
857.797	21169
857.931	21051
858.064	21154
858.197	21135
858.331	20986
858.464	21074
858.597	20956
858.731	20914
858.864	20941
858.997	20956
859.13	20998
859.263	21066
859.396	21123
859.529	20979
859.662	21024
859.795	21001
859.928	20956
860.061	21146
860.194	21245
860.327	20975
860.46	21020
860.592	21077
860.725	21138
860.858	21100
860.99	21024
861.123	20986
861.256	20929
861.388	21138
861.521	21671
861.653	20906
861.786	20815
861.918	20876
862.05	20902
862.183	21074
862.315	21127
862.447	21135
862.58	21036
862.712	20682
862.844	20708
862.976	20667
863.108	20762
863.24	21123
863.372	20568
863.504	20731
863.636	20758
863.768	20792
863.9	20754
864.032	20640
864.164	20674
864.296	20785
864.428	20716
864.559	20705
864.691	20823
864.823	20651
864.954	20731
865.086	20781
865.217	20640
865.349	20488
865.48	20735
865.612	20621
865.743	20697
865.875	20648
866.006	20613
866.137	20613
866.269	20495
866.4	20629
866.531	20442
866.662	20507
866.793	20621
866.924	20499
867.055	20617
867.186	20575
867.317	20507
867.448	20484
867.579	20587
867.71	20526
867.841	20469
867.972	20442
868.103	20511
868.233	20568
868.364	20579
868.495	20773
868.625	20678
868.756	20811
868.886	20750
869.017	20735
869.147	20861
869.278	20815
869.408	20750
869.539	20857
869.669	20826
869.799	20849
869.929	20849
870.06	20883
870.19	21116
870.32	21005
870.45	21093
870.58	21348
870.71	21264
870.84	21306
870.97	21211
871.1	21165
871.23	21340
871.36	21348
871.489	21256
871.619	21348
871.749	21275
871.879	21351
872.008	21435
872.138	21359
872.267	21233
872.397	21256
872.526	21112
872.656	21176
872.785	21165
872.915	21355
873.044	21386
873.173	21431
873.303	21458
873.432	21504
873.561	21488
873.69	21439
873.819	21462
873.948	21500
874.077	21458
874.206	21363
874.335	21340
874.464	21500
874.593	21633
874.722	21576
874.851	21606
874.979	21698
875.108	21675
875.237	21576
875.365	21450
875.494	21568
875.623	21679
875.751	21644
875.88	21622
876.008	21724
876.136	21854
876.265	22078
876.393	22090
876.521	22002
876.65	22097
876.778	22044
876.906	21987
877.034	21987
877.162	22021
877.29	21884
877.418	22097
877.546	21930
877.674	21987
877.802	22086
877.93	22116
878.058	21964
878.185	21926
878.313	21960
878.441	21884
878.568	21770
878.696	21945
878.824	22051
878.951	22105
879.079	22215
879.206	22295
879.333	22147
879.461	21987
879.588	22253
879.715	22059
879.842	22238
879.97	22029
880.097	21823
880.224	21732
880.351	21804
880.478	21747
880.605	21823
880.732	21709
880.859	22040
880.986	21804
881.112	21816
881.239	21679
881.366	21549
881.493	21450
881.619	21496
881.746	21477
881.872	21397
881.999	21325
882.125	21302
882.252	21519
882.378	21374
882.505	21618
882.631	21302
882.757	21138
882.883	21272
883.01	21085
883.136	21039
883.262	21036
883.388	20971
883.514	21096
883.64	21203
883.766	21074
883.892	20849
884.018	21009
884.143	21066
884.269	21009
884.395	20921
884.52	20632
884.646	20796
884.772	20807
884.897	20598
885.023	20743
885.148	20887
885.274	20804
885.399	20868
885.524	20762
885.65	20807
885.775	20720
885.9	20765
886.025	20845
886.15	20876
886.275	20743
886.4	20693
886.525	20689
886.65	20621
886.775	20651
886.9	20800
887.025	20849
887.149	20746
887.274	20606
887.399	20609
887.523	20469
887.648	20427
887.773	20480
887.897	20613
888.021	20480
888.146	20492
888.27	20465
888.395	20549
888.519	20568
888.643	20545
888.767	20476
888.891	20450
889.015	20347
889.139	20374
889.263	20233
889.387	20343
889.511	20503
889.635	20434
889.759	20218
889.883	20282
890.006	20263
890.13	20275
890.254	20233
890.377	20286
890.501	20081
890.624	20039
890.748	20005
890.871	19925
890.995	19906
891.118	19799
891.241	19814
891.364	19837
891.488	19909
891.611	19852
891.734	19868
891.857	19951
891.98	19883
892.103	20039
892.226	19864
892.349	19731
892.471	19681
892.594	19788
892.717	19780
892.839	19738
892.962	19780
893.085	19887
893.207	19727
893.33	19601
893.452	19715
893.575	19875
893.697	19731
893.819	19864
893.941	20027
894.064	19883
894.186	19742
894.308	19734
894.43	19955
894.552	19917
894.674	19917
894.796	19696
894.918	19795
895.04	19715
895.161	19769
895.283	19822
895.405	19723
895.526	19723
895.648	19868
895.769	19826
895.891	19849
896.012	19890
896.134	19799
896.255	19807
896.376	19791
896.498	19864
896.619	19883
896.74	19860
896.861	19852
896.982	20153
897.103	20484
897.224	20126
897.345	20084
897.466	20054
897.587	20039
897.708	20206
897.828	20096
897.949	20084
898.07	19925
898.19	19932
898.311	20096
898.431	19940
898.552	20050
898.672	20043
898.792	19936
898.913	19955
899.033	19833
899.153	19864
899.273	19696
899.393	19788
899.513	19776
899.633	19776
899.753	19742
899.873	19567
899.993	19738
900.113	19651
900.232	19780
900.352	19620
900.472	19510
900.591	19438
900.711	19506
900.83	19510
900.95	19533
901.069	19521
901.189	19369
901.308	19236
901.427	19171
901.546	19107
901.665	19187
901.784	19187
901.904	18947
902.023	18772
902.141	18677
902.26	18669
902.379	18726
902.498	18650
902.617	18608
902.735	18612
902.854	18570
902.973	18559
903.091	18292
903.21	18186
903.328	18266
903.446	18190
903.565	18140
903.683	18148
903.801	18034
903.919	18007
904.038	18129
904.156	17870
904.274	17901
904.392	17786
904.51	17912
904.627	17767
904.745	17874
904.863	17889
904.981	17604
905.098	17608
905.216	17459
905.334	17520
905.451	17528
905.569	17398
905.686	17562
905.803	17493
905.921	17223
906.038	17337
906.155	17288
906.272	17239
906.389	17185
906.506	16896
906.623	16976
906.74	17006
906.857	16850
906.974	16972
907.091	17041
907.208	17094
907.324	16923
907.441	16854
907.557	16782
907.674	16698
907.79	16660
907.907	16733
908.023	16801
908.139	16828
908.256	16660
908.372	16607
908.488	16603
908.604	16531
908.72	16325
908.836	16394
908.952	16390
909.068	16428
909.184	16523
909.3	16375
909.415	16398
909.531	16405
909.647	16116
909.762	16200
909.878	16040
909.993	16078
910.108	16105
910.224	15972
910.339	16105
910.454	15994
910.57	15934
910.685	15816
910.8	16025
910.915	15979
911.03	15892
911.145	15774
911.259	15682
911.374	15667
911.489	15675
911.604	15450
911.718	15469
911.833	15507
911.947	15268
912.062	15344
912.176	15447
912.291	15572
912.405	15386
912.519	15542
912.633	15644
912.748	15420
912.862	15389
912.976	15192
913.09	15184
913.204	15116
913.318	15329
913.431	15317
913.545	15272
913.659	15401
913.772	15150
913.886	15135
914	15043
914.113	15154
914.226	15222
914.34	15180
914.453	14861
914.566	15058
914.68	14929
914.793	14921
914.906	14750
915.019	14765
915.132	14488
915.245	14636
915.358	14815
915.47	14621
915.583	14716
915.696	14674
915.809	14804
915.921	14804
916.034	14583
916.146	14659
916.259	14556
916.371	14708
916.483	14648
916.595	14492
916.708	14556
916.82	14583
916.932	14495
917.044	14571
917.156	14446
917.268	14366
917.38	14362
917.491	14332
917.603	14339
917.715	14423
917.826	14522
917.938	14290
918.049	14176
918.161	14294
918.272	14461
918.384	14454
918.495	14218
918.606	14149
918.717	14050
918.828	14187
918.939	14164
919.05	13955
919.161	14142
919.272	13868
919.383	14005
919.494	14195
919.604	14328
919.715	14096
919.826	13902
919.936	14069
920.047	14134
920.157	14001
920.267	14298
920.378	14062
920.488	14092
920.598	14237
920.708	14370
920.818	14187
920.928	14259
921.038	14309
921.148	14343
921.258	13974
921.368	13906
921.477	13864
921.587	13757
921.697	13715
921.806	13852
921.916	13674
922.025	13529
922.134	13571
922.244	13438
922.353	13502
922.462	13209
922.571	13297
922.68	13145
922.789	13034
922.898	13129
923.007	13019
923.116	13091
923.224	13084
923.333	12993
923.442	13012
923.55	12833
923.659	12951
923.767	13042
923.876	12867
923.984	13000
924.092	12829
924.201	12833
924.309	12894
924.417	12848
924.525	12768
924.633	12772
924.741	13495
924.849	12563
924.956	12703
925.064	12521
925.172	12388
925.279	12593
925.387	12566
925.494	12525
925.602	12578
925.709	12532
925.816	12498
925.924	12441
926.031	12604
926.138	12437
926.245	12563
926.352	12426
926.459	12547
926.566	12566
926.673	12456
926.779	12391
926.886	12319
926.993	12129
927.099	12106
927.206	12079
927.312	12087
927.419	12136
927.525	12091
927.631	12110
927.737	11939
927.843	11923
927.95	11931
928.056	11946
928.162	11847
928.267	11935
928.373	12604
928.479	12007
928.585	11855
928.69	11878
928.796	11904
928.901	11824
929.007	11684
929.112	11798
929.218	11688
929.323	11726
929.428	11619
929.533	11699
929.638	11585
929.743	11623
929.848	11600
929.953	11547
930.058	11501
930.163	11349
930.267	11345
930.372	11433
930.477	11258
930.581	11554
930.685	11379
930.79	11216
930.894	11292
930.998	11197
931.103	11402
931.207	11018
931.311	10869
931.415	10862
931.519	10596
931.623	10561
