Data from test_V78500241_2852.txt Node
Date: Fri Mar 25 16:01:33 CST 2022
User: usil
Spectrometer: V785-0024
Trigger mode: 0
Integration Time (sec): 4.000000E-1
Scans to average: 1
Nonlinearity correction enabled: false
Boxcar width: 0
Storing dark spectrum: false
XAxis mode: Wavelengths
Number of Pixels in Spectrum: 1024
>>>>>Begin Spectral Data<<<<<
801.071	28888
801.214	28942
801.356	28729
801.499	28645
801.641	28550
801.783	28523
801.926	28672
802.068	28611
802.211	28443
802.353	28428
802.496	28299
802.638	28223
802.78	28204
802.923	28401
803.065	28226
803.208	28242
803.35	28268
803.492	28455
803.635	28512
803.777	28440
803.919	28519
804.061	28908
804.204	28592
804.346	28401
804.488	28405
804.63	28386
804.773	28508
804.915	28565
805.057	28645
805.199	28603
805.341	28596
805.483	28672
805.626	28706
805.768	28645
805.91	28740
806.052	28634
806.194	28618
806.336	28911
806.478	28816
806.62	28725
806.762	28786
806.904	28923
807.046	29102
807.188	29060
807.33	29105
807.472	29280
807.614	29029
807.756	29079
807.898	28980
808.04	28999
808.182	28911
808.324	29006
808.465	29067
808.607	29353
808.749	29383
808.891	29547
809.033	29509
809.174	29471
809.316	29467
809.458	29341
809.6	29383
809.741	29581
809.883	29566
810.025	29695
810.166	29726
810.308	29718
810.45	29570
810.591	29630
810.733	29402
810.875	29353
811.016	29330
811.158	29235
811.299	29615
811.441	29596
811.582	29657
811.724	29490
811.865	29471
812.007	29497
812.148	29406
812.29	29505
812.431	29604
812.573	29767
812.714	29893
812.855	29954
812.997	30068
813.138	30254
813.279	30174
813.421	29946
813.562	29821
813.703	29672
813.845	29623
813.986	29463
814.127	29303
814.268	29322
814.41	29239
814.551	29143
814.692	29235
814.833	29010
814.974	29113
815.115	29178
815.256	29071
815.397	28942
815.539	28869
815.68	29060
815.821	28919
815.962	29109
816.103	28957
816.244	28847
816.385	28885
816.526	28733
816.666	28519
816.807	28394
816.948	28489
817.089	28607
817.23	28417
817.371	28306
817.512	28386
817.653	28462
817.793	28375
817.934	28451
818.075	28546
818.216	28478
818.356	28375
818.497	28440
818.638	28246
818.778	28207
818.919	28169
819.06	28200
819.2	28409
819.341	28398
819.481	28500
819.622	28790
819.762	28767
819.903	28691
820.043	28645
820.184	28535
820.324	28649
820.465	28706
820.605	28622
820.746	28519
820.886	28462
821.026	28531
821.167	28580
821.307	28637
821.447	28523
821.588	28211
821.728	28234
821.868	28029
822.008	27956
822.149	27865
822.289	27926
822.429	27865
822.569	27644
822.709	27675
822.849	27511
822.99	27568
823.13	27462
823.27	27424
823.41	27256
823.55	27184
823.69	27207
823.83	27207
823.97	27142
824.11	27154
824.25	27119
824.389	27074
824.529	27207
824.669	27157
824.809	27104
824.949	27142
825.089	27127
825.228	27123
825.368	26910
825.508	26883
825.648	27028
825.787	26956
825.927	27043
826.067	26872
826.206	27058
826.346	27055
826.485	27058
826.625	26963
826.765	27013
826.904	27013
827.044	26762
827.183	26773
827.323	26678
827.462	26697
827.601	26670
827.741	26648
827.88	26777
828.02	26731
828.159	26594
828.298	26651
828.437	26880
828.577	26708
828.716	26895
828.855	26556
828.994	26332
829.134	26453
829.273	26415
829.412	26362
829.551	26374
829.69	26358
829.829	26453
829.968	26457
830.107	26473
830.246	26347
830.385	26282
830.524	26271
830.663	26168
830.802	26054
830.941	25963
831.08	25955
831.219	26058
831.357	26005
831.496	26343
831.635	26005
831.774	25986
831.913	25852
832.051	25811
832.19	25849
832.329	25830
832.467	25655
832.606	25567
832.744	25685
832.883	25624
833.022	25548
833.16	25666
833.299	25788
833.437	25677
833.576	25719
833.714	25769
833.852	25776
833.991	25894
834.129	25822
834.267	25811
834.406	25822
834.544	25708
834.682	25746
834.821	25639
834.959	25928
835.097	25776
835.235	25841
835.373	25609
835.511	25651
835.65	25655
835.788	25476
835.926	25525
836.064	25529
836.202	25434
836.34	25548
836.478	25674
836.615	25487
836.753	25578
836.891	25677
837.029	25479
837.167	25343
837.305	25388
837.443	25324
837.58	25358
837.718	25415
837.856	25411
837.993	25308
838.131	25354
838.269	25274
838.406	25244
838.544	25107
838.681	25038
838.819	24966
838.956	24916
839.094	24856
839.231	24920
839.369	25084
839.506	25232
839.643	25133
839.781	24825
839.918	24848
840.055	24852
840.193	24745
840.33	24661
840.467	24677
840.604	24711
840.742	25008
840.879	24768
841.016	24692
841.153	24692
841.29	24833
841.427	24734
841.564	24711
841.701	24681
841.838	24589
841.975	24593
842.112	24681
842.249	24570
842.385	24464
842.522	24692
842.659	24559
842.796	24494
842.933	24414
843.069	24445
843.206	24422
843.343	24528
843.479	24372
843.616	24555
843.752	24273
843.889	24247
844.025	24380
844.162	24216
844.298	24365
844.435	24304
844.571	24152
844.708	24106
844.844	24258
844.98	24498
845.117	24410
845.253	24285
845.389	24125
845.525	24129
845.661	24182
845.798	23961
845.934	23996
846.07	23984
846.206	24007
846.342	24155
846.478	23969
846.614	23687
846.75	23627
846.886	23653
847.022	23760
847.158	23775
847.294	23722
847.429	23710
847.565	23634
847.701	24003
847.837	23440
847.972	23436
848.108	23482
848.244	23417
848.379	23345
848.515	23395
848.65	23318
848.786	23048
848.921	23303
849.057	23444
849.192	23368
849.328	23326
849.463	23303
849.598	23273
849.734	23136
849.869	23044
850.004	23090
850.14	23067
850.275	23136
850.41	23022
850.545	23041
850.68	23048
850.815	22984
850.95	23056
851.085	23280
851.22	23246
851.355	23098
851.49	22927
851.625	23052
851.76	23052
851.895	23086
852.03	22984
852.165	22957
852.299	23064
852.434	23098
852.569	23181
852.703	22999
852.838	23121
852.973	23280
853.107	23155
853.242	22930
853.376	22896
853.511	22748
853.645	22953
853.78	22949
853.914	22908
854.048	22755
854.183	22938
854.317	22957
854.451	23105
854.585	22843
854.72	22797
854.854	22942
854.988	22847
855.122	22828
855.256	22679
855.39	22847
855.524	22938
855.658	22999
855.792	22953
855.926	22801
856.06	22812
856.194	22866
856.327	22759
856.461	22949
856.595	22862
856.729	22828
856.862	22930
856.996	22831
857.13	22915
857.263	22908
857.397	22911
857.53	22854
857.664	22938
857.797	22866
857.931	22984
858.064	22987
858.197	22995
858.331	22752
858.464	22824
858.597	22752
858.731	22850
858.864	22900
858.997	22782
859.13	22919
859.263	22824
859.396	23048
859.529	22858
859.662	22809
859.795	22801
859.928	22805
860.061	22984
860.194	23010
860.327	22965
860.46	22812
860.592	23060
860.725	23029
860.858	23022
860.99	22869
861.123	22767
861.256	22767
861.388	22934
861.521	23672
861.653	22740
861.786	22790
861.918	22691
862.05	22733
862.183	22839
862.315	22778
862.447	22797
862.58	22828
862.712	22672
862.844	22436
862.976	22436
863.108	22626
863.24	23022
863.372	22542
863.504	22618
863.636	22561
863.768	22721
863.9	22588
864.032	22645
864.164	22603
864.296	22660
864.428	22767
864.559	22645
864.691	22516
864.823	22634
864.954	22596
865.086	22535
865.217	22554
865.349	22417
865.48	22470
865.612	22512
865.743	22668
865.875	22447
866.006	22341
866.137	22474
866.269	22424
866.4	22432
866.531	22379
866.662	22367
866.793	22363
866.924	22356
867.055	22440
867.186	22314
867.317	22299
867.448	22246
867.579	22314
867.71	22154
867.841	22287
867.972	22417
868.103	22276
868.233	22367
868.364	22375
868.495	22485
868.625	22759
868.756	22744
868.886	22588
869.017	22592
869.147	22752
869.278	22687
869.408	22557
869.539	22717
869.669	22573
869.799	22702
869.929	22713
870.06	22831
870.19	22995
870.32	22847
870.45	22923
870.58	22904
870.71	23200
870.84	23155
870.97	23181
871.1	22866
871.23	23117
871.36	23117
871.489	23048
871.619	23136
871.749	23212
871.879	23280
872.008	23318
872.138	23269
872.267	23162
872.397	23033
872.526	23075
872.656	23071
872.785	23037
872.915	23162
873.044	23417
873.173	23227
873.303	23425
873.432	23315
873.561	23330
873.69	23128
873.819	23258
873.948	23452
874.077	23277
874.206	23250
874.335	23349
874.464	23292
874.593	23471
874.722	23421
874.851	23303
874.979	23402
875.108	23528
875.237	23296
875.365	23372
875.494	23303
875.623	23493
875.751	23433
875.88	23360
876.008	23512
876.136	23486
876.265	23897
876.393	23923
876.521	23893
876.65	23756
876.778	23946
876.906	23790
877.034	23863
877.162	23775
877.29	23752
877.418	23882
877.546	23798
877.674	23786
877.802	23813
877.93	23752
878.058	23733
878.185	23733
878.313	23703
878.441	23817
878.568	23634
878.696	23642
878.824	23665
878.951	23832
879.079	23882
879.206	24110
879.333	23946
879.461	23748
879.588	23988
879.715	23920
879.842	24140
879.97	23813
880.097	23531
880.224	23718
880.351	23665
880.478	23535
880.605	23429
880.732	23436
880.859	23805
880.986	23623
881.112	23600
881.239	23406
881.366	23288
881.493	23311
881.619	23189
881.746	23181
881.872	23254
881.999	23132
882.125	23090
882.252	23162
882.378	23094
882.505	23147
882.631	22866
882.757	22953
882.883	23006
883.01	22740
883.136	22801
883.262	22645
883.388	22698
883.514	22824
883.64	22957
883.766	22763
883.892	22584
884.018	22679
884.143	22805
884.269	22782
884.395	22421
884.52	22382
884.646	22569
884.772	22402
884.897	22287
885.023	22462
885.148	22531
885.274	22500
885.399	22500
885.524	22481
885.65	22451
885.775	22489
885.9	22462
886.025	22546
886.15	22577
886.275	22535
886.4	22436
886.525	22398
886.65	22306
886.775	22394
886.9	22550
887.025	22584
887.149	22341
887.274	22204
887.399	22173
887.523	22207
887.648	22139
887.773	22135
887.897	22299
888.021	22135
888.146	21987
888.27	22306
888.395	22230
888.519	22120
888.643	22131
888.767	22090
888.891	22063
889.015	22032
889.139	22112
889.263	22010
889.387	22086
889.511	22162
889.635	22131
889.759	21979
889.883	22029
890.006	22021
890.13	22025
890.254	21854
890.377	21808
890.501	21690
890.624	21606
890.748	21759
890.871	21599
890.995	21504
891.118	21363
891.241	21397
891.364	21374
891.488	21633
891.611	21545
891.734	21466
891.857	21553
891.98	21488
892.103	21545
892.226	21534
892.349	21447
892.471	21306
892.594	21405
892.717	21367
892.839	21340
892.962	21359
893.085	21564
893.207	21408
893.33	21321
893.452	21268
893.575	21363
893.697	21325
893.819	21557
893.941	21629
894.064	21561
894.186	21329
894.308	21317
894.43	21504
894.552	21435
894.674	21583
894.796	21260
894.918	21370
895.04	21367
895.161	21351
895.283	21523
895.405	21310
895.526	21367
895.648	21336
895.769	21431
895.891	21340
896.012	21485
896.134	21473
896.255	21424
896.376	21283
896.498	21393
896.619	21534
896.74	21355
896.861	21416
896.982	21660
897.103	21819
897.224	21576
897.345	21599
897.466	21477
897.587	21667
897.708	21698
897.828	21759
897.949	21412
898.07	21332
898.19	21568
898.311	21633
898.431	21591
898.552	21576
898.672	21618
898.792	21542
898.913	21538
899.033	21454
899.153	21367
899.273	21317
899.393	21249
899.513	21450
899.633	21389
899.753	21405
899.873	21351
899.993	21214
900.113	21249
900.232	21195
900.352	21287
900.472	21096
900.591	21058
900.711	21058
900.83	20979
900.95	21108
901.069	21123
901.189	20941
901.308	20701
901.427	20602
901.546	20579
901.665	20609
901.784	20640
901.904	20495
902.023	20370
902.141	20134
902.26	20111
902.379	20172
902.498	20180
902.617	20153
902.735	20092
902.854	20050
902.973	20100
903.091	19769
903.21	19727
903.328	19784
903.446	19616
903.565	19567
903.683	19556
903.801	19441
903.919	19582
904.038	19613
904.156	19403
904.274	19476
904.392	19324
904.51	19445
904.627	19263
904.745	19312
904.863	19362
904.981	19141
905.098	19084
905.216	19061
905.334	19015
905.451	18954
905.569	18981
905.686	19065
905.803	19027
905.921	18715
906.038	18798
906.155	18829
906.272	18620
906.389	18738
906.506	18532
906.623	18494
906.74	18380
906.857	18281
906.974	18369
907.091	18635
907.208	18646
907.324	18593
907.441	18395
907.557	18174
907.674	18224
907.79	18098
907.907	18140
908.023	18213
908.139	18281
908.256	18121
908.372	18174
908.488	18038
908.604	17965
908.72	17939
908.836	17916
908.952	17916
909.068	17969
909.184	18007
909.3	17897
909.415	17958
909.531	17969
909.647	17722
909.762	17691
909.878	17649
909.993	17714
910.108	17676
910.224	17493
910.339	17600
910.454	17455
910.57	17364
910.685	17440
910.8	17577
910.915	17608
911.03	17448
911.145	17341
911.259	17178
911.374	17315
911.489	17083
911.604	17117
911.718	16915
911.833	16866
911.947	16877
912.062	16809
912.176	16930
912.291	17006
912.405	16972
912.519	17102
912.633	17124
912.748	16961
912.862	17014
912.976	16725
913.09	16588
913.204	16668
913.318	16801
913.431	16911
913.545	16725
913.659	16797
913.772	16672
913.886	16683
914	16542
914.113	16588
914.226	16694
914.34	16641
914.453	16470
914.566	16580
914.68	16352
914.793	16409
914.906	16188
915.019	16147
915.132	16044
915.245	16131
915.358	16120
915.47	16109
915.583	16082
915.696	16128
915.809	16185
915.921	16272
916.034	15994
916.146	15941
916.259	16017
916.371	16112
916.483	16063
916.595	15941
916.708	15991
916.82	15899
916.932	15911
917.044	15808
917.156	15865
917.268	15808
917.38	15899
917.491	15705
917.603	15785
917.715	15888
917.826	15739
917.938	15686
918.049	15576
918.161	15667
918.272	15785
918.384	15751
918.495	15648
918.606	15523
918.717	15496
918.828	15511
918.939	15561
919.05	15488
919.161	15378
919.272	15260
919.383	15355
919.494	15526
919.604	15663
919.715	15431
919.826	15359
919.936	15348
920.047	15572
920.157	15424
920.267	15675
920.378	15450
920.488	15344
920.598	15660
920.708	15713
920.818	15606
920.928	15561
921.038	15724
921.148	15606
921.258	15389
921.368	15298
921.477	15127
921.587	15119
921.697	14982
921.806	15135
921.916	15020
922.025	14857
922.134	14880
922.244	14697
922.353	14811
922.462	14667
922.571	14617
922.68	14400
922.789	14457
922.898	14522
923.007	14336
923.116	14476
923.224	14454
923.333	14396
923.442	14317
923.55	14275
923.659	14385
923.767	14362
923.876	14229
923.984	14225
924.092	14111
924.201	14111
924.309	14180
924.417	14077
924.525	14065
924.633	14081
924.741	15017
924.849	13852
924.956	14107
925.064	13845
925.172	13788
925.279	13826
925.387	13822
925.494	13734
925.602	13898
925.709	13780
925.816	13715
925.924	13689
926.031	13856
926.138	13803
926.245	13719
926.352	13666
926.459	13738
926.566	13818
926.673	13567
926.779	13472
926.886	13540
926.993	13335
927.099	13350
927.206	13247
927.312	13278
927.419	13312
927.525	13312
927.631	13403
927.737	13183
927.843	13213
927.95	13141
928.056	13088
928.162	13145
928.267	13202
928.373	13818
928.479	13221
928.585	13046
928.69	13072
928.796	13129
928.901	13042
929.007	12859
929.112	12973
929.218	12928
929.323	12916
929.428	12829
929.533	12989
929.638	12768
929.743	12764
929.848	12806
929.953	12844
930.058	12665
930.163	12460
930.267	12517
930.372	12658
930.477	12422
930.581	12711
930.685	12544
930.79	12437
930.894	12452
930.998	12399
931.103	12513
931.207	12102
931.311	12068
931.415	11920
931.519	11752
931.623	11699
