Data from test_V78500241_592.txt Node
Date: Fri Mar 25 15:45:54 CST 2022
User: usil
Spectrometer: V785-0024
Trigger mode: 0
Integration Time (sec): 4.000000E-1
Scans to average: 1
Nonlinearity correction enabled: false
Boxcar width: 0
Storing dark spectrum: false
XAxis mode: Wavelengths
Number of Pixels in Spectrum: 1024
>>>>>Begin Spectral Data<<<<<
801.071	27526
801.214	27427
801.356	27180
801.499	27245
801.641	26967
801.783	27165
801.926	27032
802.068	27024
802.211	27013
802.353	26933
802.496	26659
802.638	26697
802.78	26564
802.923	26590
803.065	26492
803.208	26659
803.35	26606
803.492	26845
803.635	26796
803.777	26830
803.919	26910
804.061	27093
804.204	26925
804.346	26929
804.488	26693
804.63	26705
804.773	26625
804.915	26910
805.057	27024
805.199	26788
805.341	26838
805.483	27028
805.626	26921
805.768	26925
805.91	26800
806.052	27116
806.194	26956
806.336	27096
806.478	26994
806.62	26998
806.762	27100
806.904	27306
807.046	27450
807.188	27294
807.33	27424
807.472	27348
807.614	27313
807.756	27329
807.898	27230
808.04	27157
808.182	27165
808.324	27287
808.465	27332
808.607	27355
808.749	27473
808.891	27701
809.033	27774
809.174	27694
809.316	27599
809.458	27576
809.6	27606
809.741	27759
809.883	27679
810.025	27823
810.166	27781
810.308	27892
810.45	27812
810.591	27854
810.733	27755
810.875	27466
811.016	27553
811.158	27408
811.299	27701
811.441	27762
811.582	27743
811.724	27599
811.865	27469
812.007	27466
812.148	27526
812.29	27576
812.431	27842
812.573	27991
812.714	28017
812.855	28204
812.997	28150
813.138	28287
813.279	28306
813.421	28013
813.562	28082
813.703	27838
813.845	27827
813.986	27500
814.127	27462
814.268	27241
814.41	27199
814.551	27096
814.692	27348
814.833	27283
814.974	27230
815.115	27218
815.256	27119
815.397	27058
815.539	26918
815.68	26960
815.821	26979
815.962	27039
816.103	26990
816.244	27013
816.385	26891
816.526	26815
816.666	26629
816.807	26587
816.948	26556
817.089	26636
817.23	26518
817.371	26499
817.512	26431
817.653	26514
817.793	26450
817.934	26549
818.075	26537
818.216	26564
818.356	26473
818.497	26492
818.638	26252
818.778	26221
818.919	26370
819.06	26328
819.2	26537
819.341	26609
819.481	26457
819.622	26648
819.762	26868
819.903	26807
820.043	26503
820.184	26564
820.324	26651
820.465	26602
820.605	26587
820.746	26659
820.886	26404
821.026	26469
821.167	26564
821.307	26697
821.447	26495
821.588	26370
821.728	26336
821.868	26031
822.008	26024
822.149	25906
822.289	26001
822.429	25727
822.569	25613
822.709	25556
822.849	25548
822.99	25472
823.13	25548
823.27	25411
823.41	25381
823.55	25171
823.69	25464
823.83	25198
823.97	25266
824.11	25148
824.25	24992
824.389	25034
824.529	25168
824.669	25122
824.809	25312
824.949	25270
825.089	25187
825.228	25141
825.368	24985
825.508	24966
825.648	24970
825.787	25000
825.927	25084
826.067	24992
826.206	25031
826.346	25080
826.485	24966
826.625	25053
826.765	25065
826.904	25129
827.044	24844
827.183	24863
827.323	24608
827.462	24875
827.601	24776
827.741	24688
827.88	24829
828.02	24631
828.159	24642
828.298	24654
828.437	24707
828.577	24627
828.716	24795
828.855	24635
828.994	24429
829.134	24414
829.273	24551
829.412	24407
829.551	24338
829.69	24467
829.829	24460
829.968	24502
830.107	24517
830.246	24448
830.385	24380
830.524	24380
830.663	24285
830.802	24064
830.941	24083
831.08	24015
831.219	24057
831.357	24144
831.496	24209
831.635	23980
831.774	24026
831.913	23927
832.051	23912
832.19	23798
832.329	23843
832.467	23695
832.606	23722
832.744	23726
832.883	23642
833.022	23699
833.16	23695
833.299	23779
833.437	23653
833.576	23741
833.714	23676
833.852	23813
833.991	23935
834.129	23817
834.267	23767
834.406	23752
834.544	23855
834.682	23817
834.821	23726
834.959	23847
835.097	23676
835.235	23874
835.373	23722
835.511	23638
835.65	23516
835.788	23623
835.926	23459
836.064	23330
836.202	23391
836.34	23543
836.478	23722
836.615	23589
836.753	23592
836.891	23653
837.029	23585
837.167	23577
837.305	23391
837.443	23528
837.58	23360
837.718	23558
837.856	23581
837.993	23452
838.131	23379
838.269	23299
838.406	23349
838.544	23261
838.681	23079
838.819	23003
838.956	22915
839.094	22934
839.231	23010
839.369	23113
839.506	23258
839.643	23197
839.781	22927
839.918	22843
840.055	22877
840.193	22927
840.33	22862
840.467	23025
840.604	22968
840.742	23060
840.879	22847
841.016	22816
841.153	22679
841.29	23029
841.427	22911
841.564	22828
841.701	22812
841.838	22965
841.975	22641
842.112	22740
842.249	22733
842.385	22656
842.522	22835
842.659	22702
842.796	22466
842.933	22550
843.069	22557
843.206	22569
843.343	22588
843.479	22569
843.616	22535
843.752	22287
843.889	22443
844.025	22512
844.162	22409
844.298	22402
844.435	22276
844.571	22295
844.708	22405
844.844	22455
844.98	22512
845.117	22550
845.253	22276
845.389	22177
845.525	22162
845.661	22196
845.798	22063
845.934	22128
846.07	22082
846.206	22242
846.342	22135
846.478	22109
846.614	21930
846.75	21884
846.886	21759
847.022	21911
847.158	21941
847.294	21785
847.429	21884
847.565	21827
847.701	22086
847.837	21523
847.972	21583
848.108	21568
848.244	21656
848.379	21431
848.515	21443
848.65	21287
848.786	21496
848.921	21321
849.057	21637
849.192	21477
849.328	21447
849.463	21416
849.598	21336
849.734	21188
849.869	21272
850.004	21237
850.14	21230
850.275	21272
850.41	21119
850.545	21135
850.68	21138
850.815	21192
850.95	21089
851.085	21344
851.22	21203
851.355	21230
851.49	21119
851.625	21123
851.76	21268
851.895	21036
852.03	21047
852.165	21104
852.299	21378
852.434	21275
852.569	21051
852.703	21192
852.838	21252
852.973	21306
853.107	21283
853.242	21165
853.376	21005
853.511	20990
853.645	20834
853.78	21096
853.914	20944
854.048	20918
854.183	20967
854.317	21157
854.451	21237
854.585	21055
854.72	20883
854.854	21055
854.988	20933
855.122	21036
855.256	20933
855.39	21043
855.524	21237
855.658	21123
855.792	21055
855.926	21043
856.06	21017
856.194	21009
856.327	20887
856.461	20921
856.595	20960
856.729	20979
856.862	21100
856.996	21066
857.13	20982
857.263	21127
857.397	21093
857.53	21058
857.664	21032
857.797	21104
857.931	21108
858.064	21070
858.197	21089
858.331	21028
858.464	20880
858.597	20868
858.731	20899
858.864	20979
858.997	20963
859.13	20971
859.263	21070
859.396	21161
859.529	20929
859.662	20838
859.795	20921
859.928	20979
860.061	21093
860.194	21268
860.327	21005
860.46	21112
860.592	21123
860.725	21233
860.858	21093
860.99	21024
861.123	20788
861.256	20929
861.388	20902
861.521	21405
861.653	20826
861.786	20712
861.918	20765
862.05	20868
862.183	20872
862.315	20975
862.447	21051
862.58	20910
862.712	20708
862.844	20629
862.976	20788
863.108	20712
863.24	21256
863.372	20750
863.504	20705
863.636	20758
863.768	20746
863.9	20758
864.032	20644
864.164	20579
864.296	20640
864.428	20788
864.559	20819
864.691	20735
864.823	20682
864.954	20750
865.086	20674
865.217	20644
865.349	20583
865.48	20590
865.612	20412
865.743	20678
865.875	20609
866.006	20484
866.137	20621
866.269	20427
866.4	20575
866.531	20617
866.662	20545
866.793	20499
866.924	20495
867.055	20571
867.186	20625
867.317	20556
867.448	20514
867.579	20473
867.71	20511
867.841	20480
867.972	20583
868.103	20568
868.233	20530
868.364	20545
868.495	20629
868.625	20792
868.756	20880
868.886	20739
869.017	20823
869.147	20823
869.278	20956
869.408	20720
869.539	20868
869.669	20804
869.799	20902
869.929	20952
870.06	20887
870.19	21138
870.32	21108
870.45	21184
870.58	21195
870.71	21279
870.84	21275
870.97	21066
871.1	21241
871.23	21317
871.36	21283
871.489	21256
871.619	21321
871.749	21325
871.879	21382
872.008	21412
872.138	21313
872.267	21332
872.397	21207
872.526	21218
872.656	21112
872.785	21154
872.915	21439
873.044	21519
873.173	21443
873.303	21462
873.432	21576
873.561	21545
873.69	21351
873.819	21481
873.948	21549
874.077	21424
874.206	21329
874.335	21317
874.464	21496
874.593	21572
874.722	21549
874.851	21614
874.979	21717
875.108	21717
875.237	21637
875.365	21618
875.494	21450
875.623	21648
875.751	21492
875.88	21542
876.008	21633
876.136	21724
876.265	22097
876.393	22265
876.521	22078
876.65	22139
876.778	21956
876.906	21949
877.034	21956
877.162	21899
877.29	22002
877.418	22010
877.546	21975
877.674	21956
877.802	21854
877.93	22032
878.058	21846
878.185	21918
878.313	21941
878.441	21960
878.568	21800
878.696	21911
878.824	21956
878.951	22082
879.079	22177
879.206	22371
879.333	22090
879.461	22124
879.588	22112
879.715	22101
879.842	22272
879.97	22162
880.097	21732
880.224	21808
880.351	21888
880.478	21793
880.605	21717
880.732	21793
880.859	21964
880.986	21698
881.112	21827
881.239	21690
881.366	21606
881.493	21488
881.619	21344
881.746	21420
881.872	21511
881.999	21370
882.125	21306
882.252	21389
882.378	21389
882.505	21530
882.631	21283
882.757	21184
882.883	21104
883.01	21192
883.136	21062
883.262	21001
883.388	20910
883.514	21085
883.64	21203
883.766	20944
883.892	20796
884.018	20891
884.143	20982
884.269	21131
884.395	20674
884.52	20807
884.646	20727
884.772	20701
884.897	20651
885.023	20701
885.148	20815
885.274	20834
885.399	20727
885.524	20785
885.65	20857
885.775	20769
885.9	20606
886.025	20880
886.15	20781
886.275	20762
886.4	20629
886.525	20758
886.65	20609
886.775	20731
886.9	20762
887.025	20902
887.149	20693
887.274	20583
887.399	20480
887.523	20648
887.648	20484
887.773	20389
887.897	20511
888.021	20381
888.146	20377
888.27	20670
888.395	20678
888.519	20480
888.643	20613
888.767	20549
888.891	20454
889.015	20286
889.139	20499
889.263	20301
889.387	20488
889.511	20609
889.635	20476
889.759	20381
889.883	20309
890.006	20286
890.13	20271
890.254	20206
890.377	20210
890.501	20069
890.624	20058
890.748	20088
890.871	19982
890.995	19807
891.118	19925
891.241	19864
891.364	20001
891.488	19898
891.611	19814
891.734	19841
891.857	19993
891.98	19814
892.103	19864
892.226	19807
892.349	19719
892.471	19776
892.594	19879
892.717	19871
892.839	19727
892.962	19761
893.085	19944
893.207	19814
893.33	19712
893.452	19753
893.575	19917
893.697	19795
893.819	19978
893.941	20024
894.064	19944
894.186	19746
894.308	19696
894.43	19879
894.552	19955
894.674	19826
894.796	19734
894.918	19742
895.04	19746
895.161	19784
895.283	19753
895.405	19689
895.526	19666
895.648	19742
895.769	19936
895.891	19845
896.012	19932
896.134	19879
896.255	19856
896.376	19795
896.498	19708
896.619	19860
896.74	19772
896.861	19845
896.982	20088
897.103	20256
897.224	20176
897.345	19917
897.466	20027
897.587	19982
897.708	20100
897.828	20058
897.949	20012
898.07	19879
898.19	20016
898.311	20062
898.431	20001
898.552	20031
898.672	20088
898.792	20126
898.913	19967
899.033	19944
899.153	19849
899.273	19761
899.393	19715
899.513	19753
899.633	19822
899.753	19822
899.873	19742
899.993	19879
900.113	19769
900.232	19693
900.352	19704
900.472	19677
900.591	19575
900.711	19578
900.83	19495
900.95	19670
901.069	19765
901.189	19457
901.308	19320
901.427	19145
901.546	19164
901.665	19160
901.784	19282
901.904	19069
902.023	18951
902.141	18745
902.26	18833
902.379	18802
902.498	18734
902.617	18604
902.735	18696
902.854	18715
902.973	18601
903.091	18437
903.21	18361
903.328	18315
903.446	18251
903.565	18205
903.683	18136
903.801	18049
903.919	18171
904.038	18098
904.156	17992
904.274	17927
904.392	17927
904.51	17912
904.627	17870
904.745	17965
904.863	17923
904.981	17695
905.098	17581
905.216	17653
905.334	17665
905.451	17687
905.569	17619
905.686	17619
905.803	17668
905.921	17368
906.038	17455
906.155	17315
906.272	17258
906.389	17239
906.506	17178
906.623	17060
906.74	17170
906.857	17067
906.974	17075
907.091	17174
907.208	17159
907.324	17189
907.441	16961
907.557	16873
907.674	16877
907.79	16733
907.907	16767
908.023	16824
908.139	16805
908.256	16889
908.372	16733
908.488	16721
908.604	16577
908.72	16413
908.836	16607
908.952	16531
909.068	16580
909.184	16729
909.3	16649
909.415	16637
909.531	16649
909.647	16284
909.762	16268
909.878	16325
909.993	16284
910.108	16284
910.224	16177
910.339	16280
910.454	16135
910.57	16120
910.685	16002
910.8	16291
910.915	16177
911.03	15979
911.145	16017
911.259	15812
911.374	15949
911.489	15869
911.604	15804
911.718	15618
911.833	15622
911.947	15557
912.062	15458
912.176	15622
912.291	15587
912.405	15629
912.519	15861
912.633	15873
912.748	15625
912.862	15538
912.976	15431
913.09	15367
913.204	15393
913.318	15458
913.431	15538
913.545	15538
913.659	15553
913.772	15268
913.886	15340
914	15214
914.113	15359
914.226	15386
914.34	15291
914.453	15192
914.566	15313
914.68	15138
914.793	15112
914.906	14902
915.019	14887
915.132	14868
915.245	14724
915.358	14838
915.47	14921
915.583	14807
915.696	14872
915.809	15024
915.921	15123
916.034	14754
916.146	14785
916.259	14792
916.371	14887
916.483	14792
916.595	14632
916.708	14648
916.82	14785
916.932	14678
917.044	14689
917.156	14670
917.268	14514
917.38	14583
917.491	14442
917.603	14583
917.715	14625
917.826	14629
917.938	14427
918.049	14385
918.161	14423
918.272	14621
918.384	14629
918.495	14431
918.606	14358
918.717	14221
918.828	14358
918.939	14374
919.05	14176
919.161	14263
919.272	14096
919.383	14191
919.494	14385
919.604	14511
919.715	14256
919.826	14218
919.936	14218
920.047	14317
920.157	14248
920.267	14461
920.378	14263
920.488	14202
920.598	14450
920.708	14579
920.818	14320
920.928	14415
921.038	14514
921.148	14514
921.258	14252
921.368	14187
921.477	13955
921.587	14024
921.697	13845
921.806	14103
921.916	13868
922.025	13776
922.134	13643
922.244	13624
922.353	13670
922.462	13624
922.571	13495
922.68	13339
922.789	13282
922.898	13377
923.007	13282
923.116	13285
923.224	13335
923.333	13308
923.442	13110
923.55	13145
923.659	13168
923.767	13110
923.876	13103
923.984	13107
924.092	13065
924.201	13137
924.309	13091
924.417	13065
924.525	12943
924.633	12958
924.741	13856
924.849	12829
924.956	12894
925.064	12772
925.172	12646
925.279	12738
925.387	12760
925.494	12707
925.602	12787
925.709	12798
925.816	12521
925.924	12722
926.031	12825
926.138	12604
926.245	12734
926.352	12604
926.459	12768
926.566	12741
926.673	12658
926.779	12464
926.886	12433
926.993	12369
927.099	12224
927.206	12289
927.312	12342
927.419	12353
927.525	12266
927.631	12262
927.737	12190
927.843	12213
927.95	11946
928.056	12175
928.162	12125
928.267	12197
928.373	12779
928.479	12182
928.585	11988
928.69	12098
928.796	12110
928.901	12007
929.007	11836
929.112	11977
929.218	11965
929.323	11870
929.428	11901
929.533	11855
929.638	11821
929.743	11783
929.848	11882
929.953	11859
930.058	11691
930.163	11532
930.267	11596
930.372	11680
930.477	11463
930.581	11878
930.685	11604
930.79	11345
930.894	11471
930.998	11402
931.103	11623
931.207	11273
931.311	11086
931.415	10995
931.519	10835
931.623	10831
