Data from test_V78500241_459.txt Node
Date: Fri Mar 25 15:44:58 CST 2022
User: usil
Spectrometer: V785-0024
Trigger mode: 0
Integration Time (sec): 4.000000E-1
Scans to average: 1
Nonlinearity correction enabled: false
Boxcar width: 0
Storing dark spectrum: false
XAxis mode: Wavelengths
Number of Pixels in Spectrum: 1024
>>>>>Begin Spectral Data<<<<<
801.071	27507
801.214	27469
801.356	27226
801.499	27009
801.641	27020
801.783	27020
801.926	27112
802.068	27001
802.211	26914
802.353	26902
802.496	26769
802.638	26724
802.78	26788
802.923	26632
803.065	26579
803.208	26476
803.35	26602
803.492	26731
803.635	26800
803.777	26621
803.919	26731
804.061	27188
804.204	26880
804.346	26686
804.488	26777
804.63	26724
804.773	26457
804.915	26864
805.057	26902
805.199	26670
805.341	26777
805.483	26921
805.626	26868
805.768	26720
805.91	26895
806.052	26971
806.194	26815
806.336	27058
806.478	26960
806.62	26944
806.762	26979
806.904	27226
807.046	27443
807.188	27420
807.33	27313
807.472	27359
807.614	27218
807.756	27405
807.898	27165
808.04	27184
808.182	27199
808.324	27112
808.465	27214
808.607	27302
808.749	27401
808.891	27549
809.033	27675
809.174	27618
809.316	27538
809.458	27519
809.6	27416
809.741	27652
809.883	27724
810.025	27831
810.166	27835
810.308	27884
810.45	27690
810.591	27724
810.733	27587
810.875	27496
811.016	27378
811.158	27367
811.299	27705
811.441	27519
811.582	27644
811.724	27667
811.865	27462
812.007	27564
812.148	27595
812.29	27504
812.431	27606
812.573	27899
812.714	28048
812.855	27945
812.997	28124
813.138	28166
813.279	28143
813.421	27949
813.562	27907
813.703	27880
813.845	27701
813.986	27370
814.127	27348
814.268	27222
814.41	27188
814.551	27100
814.692	27283
814.833	27055
814.974	27138
815.115	27351
815.256	27104
815.397	27081
815.539	26975
815.68	26986
815.821	26880
815.962	26849
816.103	27013
816.244	26887
816.385	26731
816.526	26727
816.666	26526
816.807	26415
816.948	26549
817.089	26545
817.23	26438
817.371	26434
817.512	26328
817.653	26317
817.793	26446
817.934	26465
818.075	26328
818.216	26518
818.356	26385
818.497	26237
818.638	26195
818.778	26237
818.919	26214
819.06	26301
819.2	26301
819.341	26358
819.481	26446
819.622	26549
819.762	26754
819.903	26564
820.043	26492
820.184	26473
820.324	26629
820.465	26579
820.605	26545
820.746	26480
820.886	26419
821.026	26583
821.167	26476
821.307	26587
821.447	26453
821.588	26301
821.728	26240
821.868	26084
822.008	25845
822.149	25822
822.289	25852
822.429	25632
822.569	25354
822.709	25571
822.849	25365
822.99	25324
823.13	25358
823.27	25217
823.41	25232
823.55	25019
823.69	25251
823.83	25156
823.97	25217
824.11	24966
824.25	24867
824.389	24894
824.529	25072
824.669	25004
824.809	25129
824.949	25148
825.089	25118
825.228	24875
825.368	24825
825.508	24886
825.648	24810
825.787	24913
825.927	24981
826.067	24848
826.206	24878
826.346	24954
826.485	25042
826.625	24844
826.765	24981
826.904	24882
827.044	24536
827.183	24585
827.323	24597
827.462	24547
827.601	24517
827.741	24570
827.88	24665
828.02	24467
828.159	24521
828.298	24540
828.437	24505
828.577	24490
828.716	24635
828.855	24483
828.994	24174
829.134	24300
829.273	24311
829.412	24224
829.551	24201
829.69	24243
829.829	24262
829.968	24346
830.107	24338
830.246	24327
830.385	24213
830.524	24182
830.663	24121
830.802	23980
830.941	23931
831.08	23805
831.219	23980
831.357	23855
831.496	24083
831.635	23984
831.774	23760
831.913	23718
832.051	23558
832.19	23703
832.329	23699
832.467	23615
832.606	23577
832.744	23589
832.883	23566
833.022	23391
833.16	23520
833.299	23463
833.437	23543
833.576	23657
833.714	23570
833.852	23760
833.991	23718
834.129	23672
834.267	23566
834.406	23600
834.544	23687
834.682	23649
834.821	23585
834.959	23760
835.097	23627
835.235	23554
835.373	23531
835.511	23672
835.65	23387
835.788	23505
835.926	23181
836.064	23269
836.202	23414
836.34	23280
836.478	23372
836.615	23421
836.753	23429
836.891	23585
837.029	23581
837.167	23356
837.305	23239
837.443	23391
837.58	23265
837.718	23440
837.856	23360
837.993	23208
838.131	23315
838.269	23105
838.406	23246
838.544	23109
838.681	22904
838.819	22938
838.956	22694
839.094	22793
839.231	22702
839.369	22698
839.506	23109
839.643	23037
839.781	22721
839.918	22691
840.055	22782
840.193	22767
840.33	22668
840.467	22698
840.604	22702
840.742	23010
840.879	22603
841.016	22512
841.153	22668
841.29	22835
841.427	22557
841.564	22721
841.701	22596
841.838	22542
841.975	22577
842.112	22519
842.249	22584
842.385	22531
842.522	22672
842.659	22546
842.796	22348
842.933	22337
843.069	22409
843.206	22352
843.343	22497
843.479	22360
843.616	22379
843.752	22192
843.889	22226
844.025	22360
844.162	22059
844.298	22196
844.435	22078
844.571	22135
844.708	22226
844.844	22291
844.98	22386
845.117	22371
845.253	22067
845.389	22086
845.525	22116
845.661	22185
845.798	21983
845.934	21930
846.07	21964
846.206	21930
846.342	21960
846.478	21892
846.614	21724
846.75	21606
846.886	21667
847.022	21781
847.158	21690
847.294	21625
847.429	21743
847.565	21622
847.701	21983
847.837	21408
847.972	21325
848.108	21462
848.244	21401
848.379	21199
848.515	21249
848.65	21207
848.786	21287
848.921	21336
849.057	21268
849.192	21454
849.328	21310
849.463	21332
849.598	21135
849.734	21028
849.869	21176
850.004	21074
850.14	21176
850.275	20963
850.41	20944
850.545	21005
850.68	20883
850.815	20956
850.95	21001
851.085	21161
851.22	21085
851.355	21066
851.49	20891
851.625	20914
851.76	20895
851.895	20830
852.03	20975
852.165	21123
852.299	20960
852.434	21070
852.569	21020
852.703	21020
852.838	21089
852.973	21150
853.107	21131
853.242	20944
853.376	20902
853.511	20655
853.645	20807
853.78	21066
853.914	20868
854.048	20765
854.183	20731
854.317	20883
854.451	21077
854.585	20868
854.72	20838
854.854	20971
854.988	20670
855.122	20788
855.256	20735
855.39	20804
855.524	20724
855.658	20842
855.792	20872
855.926	20746
856.06	20762
856.194	20918
856.327	20765
856.461	20663
856.595	20819
856.729	20762
856.862	20975
856.996	20906
857.13	20769
857.263	20815
857.397	21009
857.53	20804
857.664	20880
857.797	20952
857.931	20963
858.064	20887
858.197	20963
858.331	20678
858.464	20785
858.597	20762
858.731	20883
858.864	20777
858.997	20883
859.13	20670
859.263	20762
859.396	20811
859.529	20720
859.662	20762
859.795	20739
859.928	20788
860.061	20956
860.194	20960
860.327	20868
860.46	20807
860.592	21013
860.725	20948
860.858	20960
860.99	20845
861.123	20629
861.256	20697
861.388	20853
861.521	21580
861.653	20674
861.786	20686
861.918	20720
862.05	20617
862.183	20655
862.315	20811
862.447	20864
862.58	20663
862.712	20636
862.844	20609
862.976	20625
863.108	20587
863.24	21028
863.372	20442
863.504	20606
863.636	20492
863.768	20396
863.9	20461
864.032	20480
864.164	20461
864.296	20560
864.428	20754
864.559	20530
864.691	20518
864.823	20545
864.954	20514
865.086	20609
865.217	20389
865.349	20385
865.48	20533
865.612	20419
865.743	20545
865.875	20427
866.006	20427
866.137	20389
866.269	20366
866.4	20385
866.531	20389
866.662	20351
866.793	20263
866.924	20480
867.055	20431
867.186	20336
867.317	20301
867.448	20248
867.579	20328
867.71	20324
867.841	20313
867.972	20366
868.103	20290
868.233	20358
868.364	20415
868.495	20461
868.625	20705
868.756	20796
868.886	20530
869.017	20594
869.147	20625
869.278	20560
869.408	20648
869.539	20678
869.669	20689
869.799	20720
869.929	20788
870.06	20735
870.19	20857
870.32	20944
870.45	21039
870.58	21032
870.71	21074
870.84	20948
870.97	21024
871.1	20944
871.23	21252
871.36	21146
871.489	21135
871.619	21203
871.749	21112
871.879	21256
872.008	21256
872.138	21192
872.267	21055
872.397	21062
872.526	21047
872.656	20929
872.785	21070
872.915	21218
873.044	21317
873.173	21184
873.303	21283
873.432	21272
873.561	21283
873.69	21233
873.819	21272
873.948	21306
874.077	21329
874.206	21169
874.335	21188
874.464	21382
874.593	21477
874.722	21405
874.851	21477
874.979	21428
875.108	21568
875.237	21458
875.365	21370
875.494	21523
875.623	21549
875.751	21500
875.88	21549
876.008	21595
876.136	21724
876.265	21888
876.393	21949
876.521	21945
876.65	21884
876.778	21816
876.906	21766
877.034	21907
877.162	21831
877.29	21709
877.418	21804
877.546	21705
877.674	21724
877.802	21785
877.93	21694
878.058	21732
878.185	21694
878.313	21895
878.441	21728
878.568	21583
878.696	21743
878.824	21869
878.951	21835
879.079	21987
879.206	22017
879.333	22002
879.461	21884
879.588	21956
879.715	21941
879.842	22059
879.97	21903
880.097	21660
880.224	21561
880.351	21629
880.478	21690
880.605	21557
880.732	21606
880.859	21934
880.986	21698
881.112	21656
881.239	21466
881.366	21469
881.493	21351
881.619	21264
881.746	21321
881.872	21310
881.999	21233
882.125	21028
882.252	21329
882.378	21237
882.505	21298
882.631	21051
882.757	21119
882.883	21020
883.01	20887
883.136	20777
883.262	20902
883.388	20804
883.514	20982
883.64	20963
883.766	20872
883.892	20743
884.018	20712
884.143	20933
884.269	20826
884.395	20625
884.52	20446
884.646	20640
884.772	20526
884.897	20518
885.023	20507
885.148	20602
885.274	20746
885.399	20583
885.524	20640
885.65	20655
885.775	20632
885.9	20560
886.025	20625
886.15	20598
886.275	20469
886.4	20499
886.525	20507
886.65	20625
886.775	20473
886.9	20648
887.025	20754
887.149	20480
887.274	20366
887.399	20442
887.523	20218
887.648	20282
887.773	20362
887.897	20419
888.021	20328
888.146	20480
888.27	20339
888.395	20343
888.519	20423
888.643	20366
888.767	20412
888.891	20271
889.015	20138
889.139	20259
889.263	20157
889.387	20282
889.511	20336
889.635	20286
889.759	20145
889.883	20199
890.006	20214
890.13	20191
890.254	20062
890.377	20134
890.501	19868
890.624	19837
890.748	20012
890.871	19921
890.995	19693
891.118	19632
891.241	19856
891.364	19734
891.488	19852
891.611	19742
891.734	19769
891.857	19734
891.98	19757
892.103	19807
892.226	19803
892.349	19681
892.471	19582
892.594	19689
892.717	19734
892.839	19655
892.962	19738
893.085	19651
893.207	19738
893.33	19495
893.452	19525
893.575	19605
893.697	19548
893.819	19807
893.941	19837
894.064	19776
894.186	19518
894.308	19628
894.43	19776
894.552	19772
894.674	19708
894.796	19529
894.918	19624
895.04	19605
895.161	19750
895.283	19582
895.405	19605
895.526	19597
895.648	19715
895.769	19719
895.891	19685
896.012	19776
896.134	19712
896.255	19578
896.376	19506
896.498	19738
896.619	19803
896.74	19670
896.861	19734
896.982	19936
897.103	20221
897.224	19989
897.345	20016
897.466	19974
897.587	19951
897.708	20008
897.828	19799
897.949	19913
898.07	19845
898.19	19719
898.311	19936
898.431	19841
898.552	19928
898.672	19967
898.792	19818
898.913	19909
899.033	19799
899.153	19719
899.273	19567
899.393	19704
899.513	19742
899.633	19681
899.753	19601
899.873	19597
899.993	19586
900.113	19609
900.232	19620
900.352	19594
900.472	19540
900.591	19434
900.711	19392
900.83	19472
900.95	19510
901.069	19597
901.189	19365
901.308	19065
901.427	19015
901.546	19171
901.665	19141
901.784	19027
901.904	18867
902.023	18802
902.141	18650
902.26	18555
902.379	18650
902.498	18528
902.617	18551
902.735	18532
902.854	18521
902.973	18410
903.091	18323
903.21	18346
903.328	18251
903.446	18068
903.565	18007
903.683	18072
903.801	17961
903.919	17992
904.038	18022
904.156	17859
904.274	18041
904.392	17828
904.51	17752
904.627	17737
904.745	17802
904.863	17840
904.981	17600
905.098	17452
905.216	17452
905.334	17516
905.451	17493
905.569	17467
905.686	17539
905.803	17467
905.921	17318
906.038	17444
906.155	17303
906.272	17155
906.389	17212
906.506	17060
906.623	17014
906.74	17105
906.857	16866
906.974	17018
907.091	17083
907.208	17025
907.324	17022
907.441	16869
907.557	16885
907.674	16816
907.79	16626
907.907	16748
908.023	16793
908.139	16710
908.256	16687
908.372	16717
908.488	16565
908.604	16599
908.72	16466
908.836	16417
908.952	16474
909.068	16459
909.184	16672
909.3	16360
909.415	16485
909.531	16440
909.647	16207
909.762	16207
909.878	16188
909.993	16230
910.108	16051
910.224	16147
910.339	16154
910.454	16044
910.57	15899
910.685	15892
910.8	16166
910.915	16093
911.03	15956
911.145	15854
911.259	15903
911.374	15869
911.489	15625
911.604	15732
911.718	15466
911.833	15572
911.947	15507
912.062	15359
912.176	15545
912.291	15458
912.405	15553
912.519	15633
912.633	15732
912.748	15576
912.862	15485
912.976	15416
913.09	15222
913.204	15260
913.318	15329
913.431	15496
913.545	15412
913.659	15477
913.772	15226
913.886	15108
914	15066
914.113	15249
914.226	15226
914.34	15089
914.453	15093
914.566	15192
914.68	15066
914.793	15066
914.906	14834
915.019	14754
915.132	14781
915.245	14724
915.358	14785
915.47	14811
915.583	14651
915.696	14739
915.809	14868
915.921	14830
916.034	14689
916.146	14655
916.259	14659
916.371	14788
916.483	14727
916.595	14583
916.708	14610
916.82	14545
916.932	14568
917.044	14537
917.156	14454
917.268	14343
917.38	14511
917.491	14450
917.603	14404
917.715	14492
917.826	14556
917.938	14339
918.049	14332
918.161	14294
918.272	14522
918.384	14533
918.495	14412
918.606	14176
918.717	14218
918.828	14233
918.939	14248
919.05	14161
919.161	14259
919.272	13959
919.383	14054
919.494	14115
919.604	14396
919.715	14153
919.826	14119
919.936	14187
920.047	14240
920.157	14187
920.267	14298
920.378	14218
920.488	14088
920.598	14317
920.708	14507
920.818	14290
920.928	14377
921.038	14465
921.148	14381
921.258	14107
921.368	14012
921.477	13883
921.587	13898
921.697	13761
921.806	13887
921.916	13772
922.025	13559
922.134	13552
922.244	13483
922.353	13563
922.462	13400
922.571	13396
922.68	13297
922.789	13061
922.898	13187
923.007	13171
923.116	13236
923.224	13228
923.333	13244
923.442	13034
923.55	13080
923.659	13038
923.767	13118
923.876	13061
923.984	13053
924.092	12954
924.201	12958
924.309	12962
924.417	12981
924.525	12909
924.633	12833
924.741	13632
924.849	12692
924.956	12768
925.064	12635
925.172	12627
925.279	12654
925.387	12578
925.494	12684
925.602	12768
925.709	12662
925.816	12532
925.924	12612
926.031	12711
926.138	12525
926.245	12616
926.352	12452
926.459	12639
926.566	12620
926.673	12517
926.779	12441
926.886	12422
926.993	12254
927.099	12296
927.206	12239
927.312	12194
927.419	12243
927.525	12186
927.631	12235
927.737	12121
927.843	12068
927.95	12019
928.056	12038
928.162	11973
928.267	12083
928.373	12692
928.479	12125
928.585	11958
928.69	11984
928.796	12038
928.901	11969
929.007	11745
929.112	11878
929.218	11889
929.323	11832
929.428	11710
929.533	11920
929.638	11710
929.743	11707
929.848	11809
929.953	11661
930.058	11589
930.163	11509
930.267	11467
930.372	11657
930.477	11391
930.581	11634
930.685	11577
930.79	11391
930.894	11364
930.998	11288
931.103	11497
931.207	11121
931.311	11067
931.415	10927
931.519	10835
931.623	10759
