Data from test_V78500241_301.txt Node
Date: Fri Mar 25 15:43:53 CST 2022
User: usil
Spectrometer: V785-0024
Trigger mode: 0
Integration Time (sec): 4.000000E-1
Scans to average: 1
Nonlinearity correction enabled: false
Boxcar width: 0
Storing dark spectrum: false
XAxis mode: Wavelengths
Number of Pixels in Spectrum: 1024
>>>>>Begin Spectral Data<<<<<
801.071	29037
801.214	28953
801.356	28816
801.499	28771
801.641	28626
801.783	28812
801.926	28854
802.068	28557
802.211	28664
802.353	28512
802.496	28303
802.638	28341
802.78	28329
802.923	28303
803.065	28219
803.208	28268
803.35	28318
803.492	28398
803.635	28577
803.777	28341
803.919	28466
804.061	28740
804.204	28382
804.346	28360
804.488	28344
804.63	28424
804.773	28379
804.915	28428
805.057	28516
805.199	28504
805.341	28489
805.483	28565
805.626	28401
805.768	28390
805.91	28375
806.052	28557
806.194	28386
806.336	28733
806.478	28519
806.62	28459
806.762	28687
806.904	28949
807.046	29140
807.188	28915
807.33	29018
807.472	29018
807.614	28877
807.756	28869
807.898	28793
808.04	28782
808.182	28763
808.324	28733
808.465	28763
808.607	28984
808.749	29140
808.891	29280
809.033	29254
809.174	29143
809.316	29067
809.458	29098
809.6	28976
809.741	29098
809.883	29269
810.025	29512
810.166	29425
810.308	29372
810.45	29239
810.591	29273
810.733	29159
810.875	29006
811.016	29022
811.158	29003
811.299	29140
811.441	29128
811.582	29345
811.724	28991
811.865	28995
812.007	29052
812.148	29071
812.29	29064
812.431	29296
812.573	29459
812.714	29356
812.855	29417
812.997	29687
813.138	29745
813.279	29805
813.421	29543
813.562	29512
813.703	29387
813.845	29143
813.986	28892
814.127	28831
814.268	28706
814.41	28713
814.551	28888
814.692	28812
814.833	28546
814.974	28653
815.115	28759
815.256	28527
815.397	28569
815.539	28637
815.68	28580
815.821	28493
815.962	28455
816.103	28405
816.244	28398
816.385	28295
816.526	28242
816.666	28013
816.807	27975
816.948	28002
817.089	28101
817.23	28025
817.371	27884
817.512	27899
817.653	27835
817.793	27914
817.934	27956
818.075	27987
818.216	27895
818.356	27690
818.497	27778
818.638	27701
818.778	27606
818.919	27572
819.06	27816
819.2	27766
819.341	27979
819.481	27804
819.622	27991
819.762	28265
819.903	28177
820.043	28124
820.184	28021
820.324	28006
820.465	27983
820.605	28017
820.746	27926
820.886	27873
821.026	28017
821.167	27835
821.307	27983
821.447	28025
821.588	27759
821.728	27663
821.868	27481
822.008	27526
822.149	27264
822.289	27344
822.429	27077
822.569	27123
822.709	26891
822.849	26811
822.99	26838
823.13	26769
823.27	26724
823.41	26613
823.55	26393
823.69	26648
823.83	26632
823.97	26522
824.11	26438
824.25	26294
824.389	26358
824.529	26514
824.669	26336
824.809	26495
824.949	26590
825.089	26492
825.228	26453
825.368	26328
825.508	26332
825.648	26202
825.787	26267
825.927	26339
826.067	26225
826.206	26183
826.346	26339
826.485	26248
826.625	26358
826.765	26419
826.904	26229
827.044	25993
827.183	26016
827.323	25875
827.462	26077
827.601	25959
827.741	25833
827.88	26111
828.02	25708
828.159	25849
828.298	25913
828.437	25928
828.577	25837
828.716	25856
828.855	25784
828.994	25609
829.134	25666
829.273	25795
829.412	25567
829.551	25590
829.69	25499
829.829	25586
829.968	25685
830.107	25624
830.246	25601
830.385	25521
830.524	25491
830.663	25217
830.802	25198
830.941	25221
831.08	25114
831.219	25274
831.357	25122
831.496	25483
831.635	25198
831.774	25194
831.913	24970
832.051	24985
832.19	24871
832.329	24882
832.467	24924
832.606	24810
832.744	24642
832.883	24810
833.022	24806
833.16	24711
833.299	24863
833.437	24787
833.576	24962
833.714	24829
833.852	24890
833.991	24840
834.129	24875
834.267	24837
834.406	24913
834.544	24875
834.682	24867
834.821	24791
834.959	24932
835.097	24856
835.235	24928
835.373	24821
835.511	24817
835.65	24578
835.788	24582
835.926	24551
836.064	24452
836.202	24418
836.34	24525
836.478	24753
836.615	24597
836.753	24692
836.891	24658
837.029	24696
837.167	24544
837.305	24566
837.443	24665
837.58	24540
837.718	24547
837.856	24490
837.993	24528
838.131	24639
838.269	24224
838.406	24273
838.544	24308
838.681	24136
838.819	24053
838.956	23813
839.094	23916
839.231	23859
839.369	23931
839.506	24289
839.643	24045
839.781	23878
839.918	23786
840.055	23870
840.193	23893
840.33	23741
840.467	23866
840.604	23916
840.742	24083
840.879	23680
841.016	23870
841.153	23707
841.29	23828
841.427	23813
841.564	23821
841.701	23809
841.838	23783
841.975	23596
842.112	23695
842.249	23680
842.385	23608
842.522	23836
842.659	23676
842.796	23570
842.933	23558
843.069	23345
843.206	23391
843.343	23455
843.479	23444
843.616	23452
843.752	23334
843.889	23288
844.025	23383
844.162	23356
844.298	23360
844.435	23330
844.571	23231
844.708	23204
844.844	23505
844.98	23307
845.117	23349
845.253	23124
845.389	23083
845.525	23239
845.661	23079
845.798	22919
845.934	23109
846.07	23014
846.206	23121
846.342	22987
846.478	22953
846.614	22637
846.75	22748
846.886	22713
847.022	22683
847.158	22645
847.294	22668
847.429	22691
847.565	22603
847.701	22889
847.837	22421
847.972	22360
848.108	22455
848.244	22500
848.379	22280
848.515	22363
848.65	22154
848.786	22181
848.921	22322
849.057	22352
849.192	22352
849.328	22268
849.463	22196
849.598	22158
849.734	22196
849.869	22116
850.004	22070
850.14	21979
850.275	22070
850.41	21937
850.545	21937
850.68	21899
850.815	22044
850.95	21926
851.085	22131
851.22	22013
851.355	22032
851.49	21956
851.625	22040
851.76	21930
851.895	21937
852.03	21838
852.165	21956
852.299	21994
852.434	22090
852.569	21922
852.703	21934
852.838	22188
852.973	22036
853.107	21998
853.242	21895
853.376	21762
853.511	21694
853.645	21739
853.78	21861
853.914	21660
854.048	21644
854.183	21618
854.317	21759
854.451	21861
854.585	21747
854.72	21739
854.854	21781
854.988	21641
855.122	21781
855.256	21561
855.39	21755
855.524	21698
855.658	21793
855.792	21800
855.926	21762
856.06	21694
856.194	21880
856.327	21774
856.461	21679
856.595	21675
856.729	21781
856.862	21918
856.996	21724
857.13	21713
857.263	21846
857.397	21797
857.53	21686
857.664	21770
857.797	21808
857.931	21903
858.064	21800
858.197	21907
858.331	21736
858.464	21835
858.597	21599
858.731	21644
858.864	21686
858.997	21675
859.13	21808
859.263	21698
859.396	21762
859.529	21751
859.662	21690
859.795	21583
859.928	21751
860.061	21812
860.194	21918
860.327	21701
860.46	21701
860.592	21778
860.725	21915
860.858	21899
860.99	21625
861.123	21614
861.256	21713
861.388	21743
861.521	22481
861.653	21648
861.786	21580
861.918	21511
862.05	21675
862.183	21667
862.315	21713
862.447	21797
862.58	21633
862.712	21435
862.844	21321
862.976	21561
863.108	21435
863.24	21774
863.372	21317
863.504	21492
863.636	21447
863.768	21355
863.9	21298
864.032	21321
864.164	21329
864.296	21412
864.428	21500
864.559	21507
864.691	21458
864.823	21382
864.954	21443
865.086	21260
865.217	21469
865.349	21252
865.48	21317
865.612	21321
865.743	21340
865.875	21298
866.006	21264
866.137	21230
866.269	21370
866.4	21386
866.531	21348
866.662	21233
866.793	21154
866.924	21245
867.055	21287
867.186	21264
867.317	21241
867.448	21237
867.579	21249
867.71	21077
867.841	21051
867.972	21249
868.103	21230
868.233	21096
868.364	21218
868.495	21264
868.625	21466
868.756	21614
868.886	21325
869.017	21363
869.147	21622
869.278	21469
869.408	21553
869.539	21370
869.669	21591
869.799	21431
869.929	21610
870.06	21530
870.19	21717
870.32	21732
870.45	21880
870.58	21953
870.71	21960
870.84	22044
870.97	21911
871.1	21953
871.23	22032
871.36	22116
871.489	21930
871.619	22139
871.749	22048
871.879	22109
872.008	22116
872.138	22040
872.267	22090
872.397	21994
872.526	21854
872.656	21850
872.785	21869
872.915	21975
873.044	22105
873.173	22211
873.303	22215
873.432	22036
873.561	22128
873.69	22036
873.819	22059
873.948	22090
874.077	22166
874.206	22055
874.335	22158
874.464	22177
874.593	22341
874.722	22322
874.851	22344
874.979	22303
875.108	22382
875.237	22230
875.365	22215
875.494	22325
875.623	22284
875.751	22265
875.88	22413
876.008	22382
876.136	22474
876.265	22679
876.393	22816
876.521	22854
876.65	22698
876.778	22691
876.906	22618
877.034	22607
877.162	22611
877.29	22653
877.418	22736
877.546	22603
877.674	22668
877.802	22596
877.93	22645
878.058	22577
878.185	22561
878.313	22653
878.441	22672
878.568	22561
878.696	22565
878.824	22736
878.951	22748
879.079	22793
879.206	22984
879.333	22759
879.461	22653
879.588	22824
879.715	22729
879.842	22927
879.97	22702
880.097	22451
880.224	22466
880.351	22504
880.478	22546
880.605	22360
880.732	22451
880.859	22649
880.986	22481
881.112	22474
881.239	22367
881.366	22166
881.493	22204
881.619	21991
881.746	22040
881.872	22097
881.999	21956
882.125	21880
882.252	22044
882.378	22032
882.505	22074
882.631	21926
882.757	21781
882.883	21945
883.01	21816
883.136	21679
883.262	21724
883.388	21553
883.514	21816
883.64	21751
883.766	21679
883.892	21538
884.018	21500
884.143	21774
884.269	21819
884.395	21450
884.52	21458
884.646	21469
884.772	21363
884.897	21321
885.023	21382
885.148	21481
885.274	21488
885.399	21500
885.524	21454
885.65	21355
885.775	21329
885.9	21401
886.025	21485
886.15	21374
886.275	21298
886.4	21081
886.525	21329
886.65	21348
886.775	21252
886.9	21428
887.025	21542
887.149	21222
887.274	21203
887.399	21051
887.523	21154
887.648	21176
887.773	21070
887.897	21150
888.021	21252
888.146	21180
888.27	21207
888.395	21146
888.519	21188
888.643	21039
888.767	21173
888.891	21043
889.015	20963
889.139	21020
889.263	20853
889.387	20986
889.511	21081
889.635	21001
889.759	20876
889.883	20868
890.006	20864
890.13	20918
890.254	20773
890.377	20754
890.501	20693
890.624	20674
890.748	20670
890.871	20613
890.995	20476
891.118	20381
891.241	20522
891.364	20530
891.488	20590
891.611	20511
891.734	20442
891.857	20629
891.98	20499
892.103	20469
892.226	20533
892.349	20275
892.471	20301
892.594	20400
892.717	20408
892.839	20328
892.962	20351
893.085	20381
893.207	20442
893.33	20278
893.452	20305
893.575	20381
893.697	20336
893.819	20484
893.941	20590
894.064	20457
894.186	20286
894.308	20332
894.43	20484
894.552	20590
894.674	20427
894.796	20229
894.918	20309
895.04	20389
895.161	20339
895.283	20461
895.405	20377
895.526	20476
895.648	20355
895.769	20332
895.891	20446
896.012	20511
896.134	20457
896.255	20461
896.376	20374
896.498	20278
896.619	20431
896.74	20366
896.861	20438
896.982	20842
897.103	20925
897.224	20724
897.345	20651
897.466	20522
897.587	20667
897.708	20788
897.828	20632
897.949	20579
898.07	20454
898.19	20488
898.311	20609
898.431	20507
898.552	20564
898.672	20659
898.792	20590
898.913	20549
899.033	20541
899.153	20347
899.273	20298
899.393	20412
899.513	20362
899.633	20298
899.753	20305
899.873	20389
899.993	20298
900.113	20172
900.232	20282
900.352	20218
900.472	20210
900.591	20084
900.711	20088
900.83	20027
900.95	20122
901.069	20191
901.189	19928
901.308	19723
901.427	19628
901.546	19856
901.665	19635
901.784	19651
901.904	19533
902.023	19445
902.141	19263
902.26	19232
902.379	19255
902.498	19202
902.617	19103
902.735	19206
902.854	19137
902.973	19091
903.091	18806
903.21	18905
903.328	18768
903.446	18764
903.565	18696
903.683	18692
903.801	18589
903.919	18677
904.038	18601
904.156	18414
904.274	18445
904.392	18361
904.51	18426
904.627	18357
904.745	18380
904.863	18479
904.981	18209
905.098	17999
905.216	18079
905.334	18038
905.451	18076
905.569	17996
905.686	18140
905.803	17992
905.921	17828
906.038	18007
906.155	17802
906.272	17657
906.389	17817
906.506	17699
906.623	17608
906.74	17596
906.857	17471
906.974	17410
907.091	17680
907.208	17737
907.324	17558
907.441	17414
907.557	17269
907.674	17318
907.79	17208
907.907	17227
908.023	17364
908.139	17197
908.256	17235
908.372	17200
908.488	17121
908.604	17086
908.72	16999
908.836	16904
908.952	16881
909.068	17003
909.184	16999
909.3	16908
909.415	17033
909.531	17003
909.647	16698
909.762	16641
909.878	16694
909.993	16653
910.108	16611
910.224	16668
910.339	16668
910.454	16550
910.57	16512
910.685	16447
910.8	16660
910.915	16573
911.03	16462
911.145	16356
911.259	16257
911.374	16314
911.489	16135
911.604	16139
911.718	15956
911.833	15979
911.947	15911
912.062	15770
912.176	16082
912.291	16059
912.405	15934
912.519	16246
912.633	16063
912.748	16059
912.862	15956
912.976	15884
913.09	15667
913.204	15732
913.318	15819
913.431	15922
913.545	15873
913.659	15949
913.772	15804
913.886	15637
914	15526
914.113	15679
914.226	15835
914.34	15766
914.453	15405
914.566	15637
914.68	15519
914.793	15477
914.906	15336
915.019	15150
915.132	15192
915.245	15222
915.358	15260
915.47	15108
915.583	15154
915.696	15237
915.809	15336
915.921	15245
916.034	15085
916.146	15097
916.259	15055
916.371	15188
916.483	15119
916.595	15043
916.708	14960
916.82	15020
916.932	14868
917.044	14853
917.156	15020
917.268	14963
917.38	14914
917.491	14868
917.603	14750
917.715	14929
917.826	14910
917.938	14823
918.049	14667
918.161	14834
918.272	15009
918.384	14845
918.495	14868
918.606	14610
918.717	14533
918.828	14621
918.939	14693
919.05	14461
919.161	14488
919.272	14309
919.383	14393
919.494	14686
919.604	14773
919.715	14655
919.826	14396
919.936	14598
920.047	14545
920.157	14629
920.267	14765
920.378	14507
920.488	14507
920.598	14682
920.708	14750
920.818	14667
920.928	14617
921.038	14819
921.148	14830
921.258	14511
921.368	14476
921.477	14229
921.587	14313
921.697	14115
921.806	14183
921.916	14077
922.025	13978
922.134	13898
922.244	13864
922.353	14058
922.462	13814
922.571	13696
922.68	13658
922.789	13464
922.898	13552
923.007	13483
923.116	13575
923.224	13472
923.333	13514
923.442	13400
923.55	13285
923.659	13403
923.767	13400
923.876	13278
923.984	13358
924.092	13232
924.201	13324
924.309	13343
924.417	13217
924.525	13190
924.633	13221
924.741	14145
924.849	13031
924.956	13122
925.064	12924
925.172	12973
925.279	13012
925.387	12886
925.494	13027
925.602	12996
925.709	13110
925.816	12867
925.924	12947
926.031	13008
926.138	12932
926.245	12810
926.352	12848
926.459	12848
926.566	12932
926.673	12829
926.779	12688
926.886	12715
926.993	12559
927.099	12574
927.206	12445
927.312	12467
927.419	12490
927.525	12528
927.631	12521
927.737	12426
927.843	12380
927.95	12296
928.056	12311
928.162	12391
928.267	12445
928.373	13050
928.479	12448
928.585	12110
928.69	12338
928.796	12330
928.901	12152
929.007	12087
929.112	12194
929.218	12133
929.323	12167
929.428	11999
929.533	12228
929.638	12049
929.743	12007
929.848	12019
929.953	11992
930.058	11863
930.163	11718
930.267	11688
930.372	12003
930.477	11756
930.581	11931
930.685	11802
930.79	11589
930.894	11688
930.998	11516
931.103	11824
931.207	11345
931.311	11250
931.415	11235
931.519	11022
931.623	11022
