Data from test_V78500241_1110.txt Node
Date: Fri Mar 25 15:49:29 CST 2022
User: usil
Spectrometer: V785-0024
Trigger mode: 0
Integration Time (sec): 4.000000E-1
Scans to average: 1
Nonlinearity correction enabled: false
Boxcar width: 0
Storing dark spectrum: false
XAxis mode: Wavelengths
Number of Pixels in Spectrum: 1024
>>>>>Begin Spectral Data<<<<<
801.071	28470
801.214	28470
801.356	28162
801.499	28223
801.641	28070
801.783	27972
801.926	28025
802.068	28097
802.211	27998
802.353	27975
802.496	27819
802.638	27747
802.78	27778
802.923	27793
803.065	27698
803.208	27778
803.35	27774
803.492	27888
803.635	27914
803.777	27774
803.919	27914
804.061	28291
804.204	28101
804.346	27892
804.488	27846
804.63	27926
804.773	27865
804.915	28059
805.057	28074
805.199	27953
805.341	27983
805.483	28120
805.626	28200
805.768	28040
805.91	28128
806.052	28040
806.194	28177
806.336	28386
806.478	28124
806.62	28207
806.762	28234
806.904	28401
807.046	28672
807.188	28504
807.33	28447
807.472	28603
807.614	28618
807.756	28588
807.898	28401
808.04	28379
808.182	28481
808.324	28554
808.465	28531
808.607	28752
808.749	28946
808.891	29083
809.033	28953
809.174	28930
809.316	28835
809.458	28786
809.6	28805
809.741	28938
809.883	28919
810.025	29140
810.166	29204
810.308	29212
810.45	29079
810.591	28995
810.733	28984
810.875	28790
811.016	28634
811.158	28675
811.299	29006
811.441	28877
811.582	28972
811.724	28991
811.865	28843
812.007	28812
812.148	28900
812.29	28930
812.431	28991
812.573	29220
812.714	29223
812.855	29440
812.997	29330
813.138	29448
813.279	29360
813.421	29448
813.562	29596
813.703	29273
813.845	29189
813.986	28809
814.127	28759
814.268	28618
814.41	28573
814.551	28603
814.692	28637
814.833	28398
814.974	28641
815.115	28550
815.256	28413
815.397	28398
815.539	28390
815.68	28371
815.821	28230
815.962	28360
816.103	28337
816.244	28344
816.385	28196
816.526	28177
816.666	27895
816.807	27835
816.948	27975
817.089	27956
817.23	27968
817.371	27888
817.512	27895
817.653	27762
817.793	27873
817.934	27880
818.075	27854
818.216	27797
818.356	27880
818.497	27755
818.638	27583
818.778	27625
818.919	27694
819.06	27701
819.2	27819
819.341	27823
819.481	27892
819.622	28169
819.762	28120
819.903	28200
820.043	28147
820.184	27975
820.324	28082
820.465	28105
820.605	27899
820.746	27964
820.886	27846
821.026	28040
821.167	28021
821.307	28055
821.447	27918
821.588	27865
821.728	27808
821.868	27534
822.008	27447
822.149	27412
822.289	27427
822.429	27055
822.569	27123
822.709	26902
822.849	26815
822.99	26940
823.13	26807
823.27	26906
823.41	26598
823.55	26598
823.69	26762
823.83	26701
823.97	26602
824.11	26385
824.25	26461
824.389	26461
824.529	26431
824.669	26499
824.809	26670
824.949	26590
825.089	26602
825.228	26530
825.368	26351
825.508	26442
825.648	26351
825.787	26408
825.927	26484
826.067	26423
826.206	26381
826.346	26415
826.485	26514
826.625	26404
826.765	26568
826.904	26476
827.044	26237
827.183	26248
827.323	26008
827.462	26252
827.601	26180
827.741	26024
827.88	26084
828.02	25830
828.159	26138
828.298	26183
828.437	26168
828.577	26084
828.716	26199
828.855	26012
828.994	25921
829.134	25917
829.273	25917
829.412	25833
829.551	25868
829.69	25738
829.829	25803
829.968	25887
830.107	25746
830.246	25871
830.385	25731
830.524	25738
830.663	25529
830.802	25483
830.941	25415
831.08	25373
831.219	25453
831.357	25396
831.496	25597
831.635	25445
831.774	25187
831.913	25312
832.051	25217
832.19	25198
832.329	25236
832.467	25084
832.606	25076
832.744	24951
832.883	25050
833.022	25015
833.16	25129
833.299	25065
833.437	25069
833.576	25183
833.714	25057
833.852	25259
833.991	25164
834.129	25187
834.267	25244
834.406	25122
834.544	24996
834.682	25194
834.821	25122
834.959	25251
835.097	25076
835.235	25126
835.373	25065
835.511	25080
835.65	24951
835.788	25023
835.926	24833
836.064	24738
836.202	24814
836.34	24928
836.478	24989
836.615	24916
836.753	24867
836.891	25000
837.029	24947
837.167	24810
837.305	24661
837.443	24810
837.58	24776
837.718	24890
837.856	24700
837.993	24749
838.131	24810
838.269	24639
838.406	24566
838.544	24593
838.681	24350
838.819	24350
838.956	24182
839.094	24163
839.231	24262
839.369	24418
839.506	24521
839.643	24445
839.781	24171
839.918	24155
840.055	24254
840.193	24110
840.33	24178
840.467	24148
840.604	24323
840.742	24391
840.879	24095
841.016	24068
841.153	24060
841.29	24034
841.427	24098
841.564	24190
841.701	24133
841.838	24098
841.975	23988
842.112	23973
842.249	23942
842.385	23904
842.522	24045
842.659	23992
842.796	23950
842.933	23885
843.069	23824
843.206	23798
843.343	24011
843.479	24068
843.616	23977
843.752	23699
843.889	23661
844.025	23954
844.162	23543
844.298	23832
844.435	23714
844.571	23767
844.708	23672
844.844	23794
844.98	23942
845.117	23764
845.253	23699
845.389	23630
845.525	23581
845.661	23577
845.798	23436
845.934	23433
846.07	23429
846.206	23402
846.342	23516
846.478	23448
846.614	23223
846.75	23029
846.886	23083
847.022	23208
847.158	23208
847.294	23083
847.429	23250
847.565	23121
847.701	23349
847.837	22866
847.972	22778
848.108	22881
848.244	22995
848.379	22816
848.515	22691
848.65	22668
848.786	22797
848.921	22767
849.057	22839
849.192	22820
849.328	22645
849.463	22645
849.598	22790
849.734	22512
849.869	22611
850.004	22462
850.14	22485
850.275	22497
850.41	22428
850.545	22424
850.68	22360
850.815	22478
850.95	22371
851.085	22656
851.22	22569
851.355	22500
851.49	22459
851.625	22474
851.76	22531
851.895	22409
852.03	22516
852.165	22478
852.299	22402
852.434	22554
852.569	22500
852.703	22394
852.838	22493
852.973	22622
853.107	22485
853.242	22409
853.376	22424
853.511	22253
853.645	22246
853.78	22386
853.914	22261
854.048	22230
854.183	22246
854.317	22375
854.451	22592
854.585	22265
854.72	22196
854.854	22352
854.988	22211
855.122	22421
855.256	22185
855.39	22299
855.524	22246
855.658	22284
855.792	22299
855.926	22329
856.06	22367
856.194	22432
856.327	22337
856.461	22207
856.595	22200
856.729	22405
856.862	22481
856.996	22348
857.13	22421
857.263	22291
857.397	22402
857.53	22325
857.664	22455
857.797	22314
857.931	22424
858.064	22379
858.197	22390
858.331	22287
858.464	22379
858.597	22177
858.731	22379
858.864	22086
858.997	22314
859.13	22272
859.263	22333
859.396	22337
859.529	22192
859.662	22249
859.795	22226
859.928	22265
860.061	22398
860.194	22390
860.327	22333
860.46	22432
860.592	22428
860.725	22538
860.858	22329
860.99	22188
861.123	22257
861.256	22162
861.388	22211
861.521	23041
861.653	22177
861.786	22173
861.918	22040
862.05	22181
862.183	22158
862.315	22276
862.447	22333
862.58	22185
862.712	21937
862.844	21979
862.976	22090
863.108	22067
863.24	22531
863.372	21861
863.504	21975
863.636	21983
863.768	22131
863.9	22040
864.032	21949
864.164	21922
864.296	22112
864.428	22090
864.559	22078
864.691	22048
864.823	21945
864.954	21930
865.086	21987
865.217	21876
865.349	21808
865.48	21903
865.612	21899
865.743	22093
865.875	21945
866.006	21888
866.137	21857
866.269	21945
866.4	21934
866.531	21846
866.662	21736
866.793	21823
866.924	21770
867.055	21842
867.186	21827
867.317	21778
867.448	21686
867.579	21835
867.71	21705
867.841	21698
867.972	21679
868.103	21778
868.233	21797
868.364	21800
868.495	22063
868.625	21975
868.756	22082
868.886	21983
869.017	22048
869.147	22192
869.278	22082
869.408	22040
869.539	21998
869.669	22154
869.799	22131
869.929	22112
870.06	22200
870.19	22318
870.32	22375
870.45	22375
870.58	22421
870.71	22470
870.84	22554
870.97	22500
871.1	22428
871.23	22592
871.36	22656
871.489	22565
871.619	22615
871.749	22588
871.879	22729
872.008	22820
872.138	22706
872.267	22668
872.397	22500
872.526	22470
872.656	22554
872.785	22462
872.915	22634
873.044	22839
873.173	22752
873.303	22793
873.432	22801
873.561	22679
873.69	22736
873.819	22694
873.948	22767
874.077	22740
874.206	22656
874.335	22706
874.464	22691
874.593	22957
874.722	22839
874.851	22896
874.979	22915
875.108	22786
875.237	22816
875.365	22767
875.494	22862
875.623	22793
875.751	22828
875.88	23022
876.008	22892
876.136	23151
876.265	23273
876.393	23296
876.521	23353
876.65	23425
876.778	23296
876.906	23250
877.034	23216
877.162	23277
877.29	23174
877.418	23280
877.546	23288
877.674	23140
877.802	23216
877.93	23258
878.058	23246
878.185	23147
878.313	23185
878.441	23064
878.568	23124
878.696	23296
878.824	23280
878.951	23284
879.079	23414
879.206	23554
879.333	23395
879.461	23322
879.588	23349
879.715	23421
879.842	23497
879.97	23189
880.097	23067
880.224	22987
880.351	23064
880.478	23105
880.605	23018
880.732	23006
880.859	23311
880.986	23014
881.112	23086
881.239	23003
881.366	22786
881.493	22809
881.619	22691
881.746	22626
881.872	22653
881.999	22550
882.125	22561
882.252	22622
882.378	22523
882.505	22721
882.631	22504
882.757	22344
882.883	22447
883.01	22276
883.136	22230
883.262	22226
883.388	22029
883.514	22287
883.64	22352
883.766	22169
883.892	22044
884.018	22101
884.143	22238
884.269	22367
884.395	21949
884.52	21945
884.646	21911
884.772	21831
884.897	21755
885.023	21873
885.148	21964
885.274	22025
885.399	21983
885.524	21945
885.65	21907
885.775	21998
885.9	21846
886.025	21911
886.15	21975
886.275	21831
886.4	21915
886.525	21835
886.65	21895
886.775	21857
886.9	22006
887.025	22143
887.149	22002
887.274	21633
887.399	21724
887.523	21694
887.648	21660
887.773	21610
887.897	21736
888.021	21759
888.146	21682
888.27	21797
888.395	21751
888.519	21728
888.643	21766
888.767	21698
888.891	21500
889.015	21686
889.139	21534
889.263	21458
889.387	21652
889.511	21660
889.635	21561
889.759	21443
889.883	21435
890.006	21599
890.13	21542
890.254	21355
890.377	21317
890.501	21154
890.624	21176
890.748	21302
890.871	21077
890.995	21001
891.118	20914
891.241	21093
891.364	20994
891.488	21150
891.611	21020
891.734	20990
891.857	21100
891.98	21100
892.103	21005
892.226	21055
892.349	20982
892.471	20804
892.594	20937
892.717	20857
892.839	20933
892.962	20845
893.085	20975
893.207	20899
893.33	20834
893.452	20785
893.575	20967
893.697	20800
893.819	20918
893.941	21123
894.064	20921
894.186	20792
894.308	20845
894.43	21074
894.552	21184
894.674	20990
894.796	20716
894.918	20899
895.04	20826
895.161	20944
895.283	20849
895.405	20853
895.526	20792
895.648	20891
895.769	20921
895.891	20788
896.012	20864
896.134	20944
896.255	20880
896.376	20754
896.498	20956
896.619	20929
896.74	20864
896.861	20963
896.982	21226
897.103	21283
897.224	21161
897.345	21165
897.466	21108
897.587	20990
897.708	21283
897.828	20914
897.949	20982
898.07	20990
898.19	21001
898.311	21218
898.431	21112
898.552	21058
898.672	21135
898.792	21074
898.913	21039
899.033	20986
899.153	20944
899.273	20735
899.393	20670
899.513	20876
899.633	20811
899.753	20849
899.873	20819
899.993	20845
900.113	20697
900.232	20743
900.352	20705
900.472	20636
900.591	20571
900.711	20644
900.83	20575
900.95	20727
901.069	20781
901.189	20537
901.308	20229
901.427	20126
901.546	20225
901.665	20244
901.784	20214
901.904	20138
902.023	19936
902.141	19814
902.26	19674
902.379	19765
902.498	19628
902.617	19472
902.735	19719
902.854	19624
902.973	19567
903.091	19419
903.21	19358
903.328	19365
903.446	19213
903.565	19103
903.683	19194
903.801	19084
903.919	19080
904.038	19114
904.156	18943
904.274	19019
904.392	18886
904.51	18833
904.627	19034
904.745	18882
904.863	19023
904.981	18749
905.098	18654
905.216	18578
905.334	18658
905.451	18665
905.569	18631
905.686	18525
905.803	18547
905.921	18441
906.038	18464
906.155	18403
906.272	18220
906.389	18350
906.506	18114
906.623	18095
906.74	18091
906.857	18041
906.974	18064
907.091	18258
907.208	18258
907.324	18083
907.441	18076
907.557	17908
907.674	17901
907.79	17798
907.907	17870
908.023	17939
908.139	17836
908.256	17870
908.372	17775
908.488	17634
908.604	17630
908.72	17402
908.836	17585
908.952	17512
909.068	17414
909.184	17649
909.3	17509
909.415	17474
909.531	17509
909.647	17383
909.762	17185
909.878	17140
909.993	17189
910.108	17197
910.224	17246
910.339	17277
910.454	17060
910.57	17075
910.685	17010
910.8	17181
910.915	17212
911.03	17033
911.145	16831
911.259	16828
911.374	16828
911.489	16733
911.604	16748
911.718	16622
911.833	16546
911.947	16440
912.062	16455
912.176	16611
912.291	16698
912.405	16558
912.519	16702
912.633	16710
912.748	16611
912.862	16618
912.976	16409
913.09	16280
913.204	16371
913.318	16436
913.431	16447
913.545	16493
913.659	16451
913.772	16284
913.886	16215
914	16204
914.113	16238
914.226	16219
914.34	16265
914.453	16143
914.566	16211
914.68	16006
914.793	16017
914.906	15850
915.019	15781
915.132	15648
915.245	15660
915.358	15728
915.47	15724
915.583	15739
915.696	15701
915.809	15857
915.921	15922
916.034	15682
916.146	15671
916.259	15686
916.371	15709
916.483	15641
916.595	15545
916.708	15542
916.82	15504
916.932	15545
917.044	15568
917.156	15488
917.268	15386
917.38	15439
917.491	15298
917.603	15397
917.715	15473
917.826	15511
917.938	15374
918.049	15329
918.161	15321
918.272	15405
918.384	15431
918.495	15355
918.606	15222
918.717	15116
918.828	15252
918.939	15218
919.05	15047
919.161	15237
919.272	14971
919.383	14944
919.494	15097
919.604	15260
919.715	15055
919.826	15097
919.936	15051
920.047	15142
920.157	15077
920.267	15348
920.378	15165
920.488	15047
920.598	15230
920.708	15344
920.818	15222
920.928	15108
921.038	15405
921.148	15367
921.258	15062
921.368	14880
921.477	14826
921.587	14811
921.697	14640
921.806	14815
921.916	14674
922.025	14590
922.134	14499
922.244	14423
922.353	14511
922.462	14339
922.571	14271
922.68	14126
922.789	14084
922.898	14142
923.007	13989
923.116	14123
923.224	14012
923.333	14008
923.442	13963
923.55	13921
923.659	13951
923.767	13936
923.876	13902
923.984	13963
924.092	13837
924.201	13845
924.309	13761
924.417	13811
924.525	13799
924.633	13826
924.741	14412
924.849	13521
924.956	13738
925.064	13605
925.172	13396
925.279	13586
925.387	13419
925.494	13468
925.602	13460
925.709	13365
925.816	13400
925.924	13468
926.031	13537
926.138	13285
926.245	13415
926.352	13270
926.459	13381
926.566	13464
926.673	13400
926.779	13221
926.886	13221
926.993	13053
927.099	13042
927.206	12951
927.312	12977
927.419	13072
927.525	12939
927.631	13069
927.737	12935
927.843	12871
927.95	12719
928.056	12810
928.162	12745
928.267	12916
928.373	13415
928.479	12875
928.585	12696
928.69	12745
928.796	12856
928.901	12658
929.007	12528
929.112	12715
929.218	12642
929.323	12631
929.428	12506
929.533	12677
929.638	12521
929.743	12452
929.848	12582
929.953	12460
930.058	12437
930.163	12232
930.267	12205
930.372	12380
930.477	12152
930.581	12357
930.685	12319
930.79	12083
930.894	12068
930.998	12030
931.103	12144
931.207	11840
931.311	11764
931.415	11684
931.519	11474
931.623	11520
