Data from test_V78500241_1838.txt Node
Date: Fri Mar 25 15:54:32 CST 2022
User: usil
Spectrometer: V785-0024
Trigger mode: 0
Integration Time (sec): 4.000000E-1
Scans to average: 1
Nonlinearity correction enabled: false
Boxcar width: 0
Storing dark spectrum: false
XAxis mode: Wavelengths
Number of Pixels in Spectrum: 1024
>>>>>Begin Spectral Data<<<<<
801.071	28478
801.214	28508
801.356	28192
801.499	28200
801.641	27975
801.783	28226
801.926	28181
802.068	28093
802.211	28006
802.353	28006
802.496	27793
802.638	27880
802.78	27827
802.923	27854
803.065	27644
803.208	27625
803.35	27732
803.492	28013
803.635	27949
803.777	27865
803.919	27953
804.061	28226
804.204	28021
804.346	27880
804.488	27876
804.63	28040
804.773	27945
804.915	28112
805.057	28246
805.199	27972
805.341	28040
805.483	28246
805.626	28150
805.768	28059
805.91	28051
806.052	28074
806.194	28086
806.336	28188
806.478	28196
806.62	28143
806.762	28188
806.904	28474
807.046	28679
807.188	28637
807.33	28554
807.472	28618
807.614	28519
807.756	28702
807.898	28546
808.04	28352
808.182	28508
808.324	28367
808.465	28550
808.607	28645
808.749	28721
808.891	28881
809.033	29010
809.174	28888
809.316	28866
809.458	28809
809.6	28740
809.741	28972
809.883	28843
810.025	29113
810.166	29094
810.308	29227
810.45	28968
810.591	28961
810.733	28733
810.875	28774
811.016	28793
811.158	28664
811.299	28999
811.441	28984
811.582	28991
811.724	28847
811.865	28721
812.007	28809
812.148	28786
812.29	28706
812.431	28953
812.573	29083
812.714	29204
812.855	29391
812.997	29474
813.138	29691
813.279	29444
813.421	29345
813.562	29216
813.703	29044
813.845	29056
813.986	28767
814.127	28622
814.268	28546
814.41	28451
814.551	28382
814.692	28596
814.833	28500
814.974	28443
815.115	28470
815.256	28405
815.397	28413
815.539	28371
815.68	28242
815.821	28306
815.962	28462
816.103	28360
816.244	28150
816.385	28040
816.526	28196
816.666	27686
816.807	27835
816.948	27888
817.089	28032
817.23	27800
817.371	27823
817.512	27793
817.653	27778
817.793	27561
817.934	27827
818.075	27907
818.216	27797
818.356	27850
818.497	27614
818.638	27526
818.778	27545
818.919	27625
819.06	27629
819.2	27778
819.341	27854
819.481	27835
819.622	27914
819.762	28070
819.903	28025
820.043	28059
820.184	27941
820.324	28002
820.465	27945
820.605	28097
820.746	27949
820.886	27945
821.026	27914
821.167	27854
821.307	28036
821.447	27781
821.588	27819
821.728	27686
821.868	27389
822.008	27340
822.149	27310
822.289	27340
822.429	27138
822.569	26933
822.709	26998
822.849	26880
822.99	26918
823.13	26743
823.27	26712
823.41	26746
823.55	26617
823.69	26655
823.83	26617
823.97	26678
824.11	26339
824.25	26438
824.389	26549
824.529	26473
824.669	26526
824.809	26617
824.949	26590
825.089	26434
825.228	26488
825.368	26355
825.508	26400
825.648	26446
825.787	26404
825.927	26446
826.067	26305
826.206	26320
826.346	26404
826.485	26400
826.625	26393
826.765	26358
826.904	26317
827.044	26096
827.183	26077
827.323	25974
827.462	26130
827.601	26054
827.741	25974
827.88	25997
828.02	25860
828.159	26218
828.298	26073
828.437	26172
828.577	25936
828.716	26240
828.855	25909
828.994	25795
829.134	25833
829.273	25727
829.412	25635
829.551	25727
829.69	25765
829.829	25776
829.968	25674
830.107	25708
830.246	25715
830.385	25689
830.524	25609
830.663	25529
830.802	25479
830.941	25362
831.08	25285
831.219	25521
831.357	25491
831.496	25567
831.635	25187
831.774	25312
831.913	25266
832.051	25042
832.19	25225
832.329	25091
832.467	25004
832.606	24871
832.744	24962
832.883	25057
833.022	24985
833.16	25027
833.299	24981
833.437	25042
833.576	25065
833.714	24985
833.852	25152
833.991	25038
834.129	25156
834.267	25080
834.406	25042
834.544	25072
834.682	25042
834.821	25008
834.959	25312
835.097	25095
835.235	25076
835.373	25004
835.511	25114
835.65	24920
835.788	24958
835.926	24837
836.064	24741
836.202	24711
836.34	24916
836.478	24981
836.615	24905
836.753	24859
836.891	25065
837.029	24958
837.167	24848
837.305	24806
837.443	24764
837.58	24745
837.718	24829
837.856	24772
837.993	24635
838.131	24711
838.269	24551
838.406	24627
838.544	24578
838.681	24403
838.819	24300
838.956	24163
839.094	24129
839.231	24213
839.369	24410
839.506	24639
839.643	24597
839.781	24243
839.918	24182
840.055	24136
840.193	24144
840.33	24159
840.467	24182
840.604	24117
840.742	24311
840.879	24007
841.016	24072
841.153	23950
841.29	24163
841.427	24106
841.564	24095
841.701	23980
841.838	23988
841.975	24022
842.112	23977
842.249	24007
842.385	23866
842.522	24167
842.659	23866
842.796	23874
842.933	23882
843.069	23718
843.206	23805
843.343	23939
843.479	23843
843.616	23908
843.752	23615
843.889	23573
844.025	23863
844.162	23509
844.298	23653
844.435	23558
844.571	23596
844.708	23752
844.844	23783
844.98	23756
845.117	23737
845.253	23516
845.389	23509
845.525	23539
845.661	23463
845.798	23326
845.934	23395
846.07	23509
846.206	23292
846.342	23395
846.478	23136
846.614	23231
846.75	23006
846.886	23052
847.022	23105
847.158	23064
847.294	23181
847.429	23094
847.565	23105
847.701	23345
847.837	22820
847.972	22889
848.108	22892
848.244	22881
848.379	22755
848.515	22641
848.65	22664
848.786	22649
848.921	22618
849.057	22805
849.192	22634
849.328	22744
849.463	22569
849.598	22675
849.734	22493
849.869	22481
850.004	22421
850.14	22451
850.275	22557
850.41	22402
850.545	22440
850.68	22481
850.815	22565
850.95	22363
851.085	22645
851.22	22615
851.355	22424
851.49	22478
851.625	22287
851.76	22382
851.895	22432
852.03	22280
852.165	22508
852.299	22428
852.434	22409
852.569	22538
852.703	22360
852.838	22497
852.973	22596
853.107	22554
853.242	22409
853.376	22257
853.511	22097
853.645	22291
853.78	22379
853.914	22322
854.048	22284
854.183	22181
854.317	22257
854.451	22367
854.585	22261
854.72	22272
854.854	22386
854.988	22230
855.122	22268
855.256	22124
855.39	22261
855.524	22348
855.658	22322
855.792	22253
855.926	22360
856.06	22344
856.194	22306
856.327	22249
856.461	22169
856.595	22154
856.729	22223
856.862	22478
856.996	22356
857.13	22333
857.263	22436
857.397	22318
857.53	22223
857.664	22242
857.797	22363
857.931	22360
858.064	22162
858.197	22276
858.331	22310
858.464	22044
858.597	22112
858.731	22303
858.864	22291
858.997	22226
859.13	22379
859.263	22265
859.396	22261
859.529	22158
859.662	22257
859.795	22173
859.928	22223
860.061	22413
860.194	22462
860.327	22428
860.46	22348
860.592	22432
860.725	22493
860.858	22352
860.99	22265
861.123	22192
861.256	22169
861.388	22352
861.521	23041
861.653	22086
861.786	22139
861.918	22169
862.05	22044
862.183	22101
862.315	22200
862.447	22128
862.58	22185
862.712	21998
862.844	21922
862.976	22112
863.108	22109
863.24	22440
863.372	21842
863.504	21968
863.636	22101
863.768	22036
863.9	21800
864.032	21903
864.164	21937
864.296	22017
864.428	22006
864.559	22025
864.691	21937
864.823	21953
864.954	21949
865.086	21968
865.217	21838
865.349	21861
865.48	21797
865.612	21850
865.743	21979
865.875	21869
866.006	21812
866.137	21956
866.269	21759
866.4	21838
866.531	21899
866.662	21857
866.793	21876
866.924	21690
867.055	21831
867.186	21842
867.317	21854
867.448	21698
867.579	21759
867.71	21774
867.841	21694
867.972	21861
868.103	21835
868.233	21797
868.364	21899
868.495	21880
868.625	22017
868.756	22067
868.886	21930
869.017	22059
869.147	22074
869.278	22040
869.408	22067
869.539	22051
869.669	22131
869.799	22166
869.929	22032
870.06	22101
870.19	22348
870.32	22344
870.45	22322
870.58	22398
870.71	22508
870.84	22436
870.97	22375
871.1	22394
871.23	22618
871.36	22615
871.489	22523
871.619	22622
871.749	22767
871.879	22778
872.008	22569
872.138	22485
872.267	22618
872.397	22432
872.526	22432
872.656	22531
872.785	22493
872.915	22706
873.044	22729
873.173	22645
873.303	22603
873.432	22630
873.561	22900
873.69	22767
873.819	22668
873.948	22683
874.077	22611
874.206	22573
874.335	22603
874.464	22793
874.593	22858
874.722	22919
874.851	22858
874.979	23018
875.108	22869
875.237	22820
875.365	22721
875.494	22774
875.623	22953
875.751	22820
875.88	22892
876.008	22995
876.136	22995
876.265	23246
876.393	23223
876.521	23151
876.65	23254
876.778	23128
876.906	23105
877.034	23254
877.162	23208
877.29	23223
877.418	23113
877.546	23178
877.674	23181
877.802	22991
877.93	23200
878.058	23037
878.185	23143
878.313	23159
878.441	23174
878.568	22923
878.696	23155
878.824	23246
878.951	23280
879.079	23410
879.206	23406
879.333	23311
879.461	23185
879.588	23273
879.715	23284
879.842	23474
879.97	23288
880.097	23033
880.224	23003
880.351	23292
880.478	23003
880.605	22972
880.732	23117
880.859	23258
880.986	23220
881.112	22980
881.239	22923
881.366	22873
881.493	22523
881.619	22493
881.746	22546
881.872	22478
881.999	22455
882.125	22683
882.252	22596
882.378	22424
882.505	22626
882.631	22402
882.757	22230
882.883	22268
883.01	22310
883.136	22200
883.262	22185
883.388	22105
883.514	22230
883.64	22287
883.766	22169
883.892	22048
884.018	22086
884.143	22204
884.269	22257
884.395	22044
884.52	21972
884.646	21892
884.772	21899
884.897	21755
885.023	21907
885.148	21956
885.274	22029
885.399	22017
885.524	21884
885.65	21899
885.775	21861
885.9	21827
886.025	22082
886.15	21903
886.275	21873
886.4	21747
886.525	21842
886.65	21819
886.775	21899
886.9	21964
887.025	22131
887.149	21876
887.274	21701
887.399	21724
887.523	21701
887.648	21511
887.773	21553
887.897	21705
888.021	21637
888.146	21462
888.27	21713
888.395	21663
888.519	21785
888.643	21564
888.767	21728
888.891	21618
889.015	21507
889.139	21405
889.263	21424
889.387	21618
889.511	21648
889.635	21603
889.759	21389
889.883	21408
890.006	21462
890.13	21507
890.254	21466
890.377	21359
890.501	21142
890.624	21142
890.748	21287
890.871	20990
890.995	21055
891.118	20929
891.241	21028
891.364	20925
891.488	21127
891.611	21032
891.734	21051
891.857	21013
891.98	20941
892.103	20902
892.226	21024
892.349	20963
892.471	20842
892.594	20887
892.717	20975
892.839	20819
892.962	20887
893.085	21005
893.207	20861
893.33	20758
893.452	20781
893.575	21005
893.697	20807
893.819	20998
893.941	21085
894.064	20986
894.186	20724
894.308	20842
894.43	20941
894.552	21039
894.674	20914
894.796	20773
894.918	20990
895.04	20880
895.161	20994
895.283	20914
895.405	20804
895.526	20849
895.648	20853
895.769	20804
895.891	20910
896.012	20918
896.134	20861
896.255	20906
896.376	20727
896.498	20788
896.619	20910
896.74	20826
896.861	20967
896.982	21116
897.103	21340
897.224	21135
897.345	20960
897.466	21024
897.587	21135
897.708	21298
897.828	21100
897.949	20963
898.07	20960
898.19	20937
898.311	21123
898.431	21017
898.552	20990
898.672	21237
898.792	21100
898.913	21119
899.033	21017
899.153	20804
899.273	20868
899.393	20853
899.513	20891
899.633	20796
899.753	20838
899.873	20880
899.993	20861
900.113	20716
900.232	20781
900.352	20594
900.472	20682
900.591	20602
900.711	20495
900.83	20499
900.95	20693
901.069	20629
901.189	20423
901.308	20210
901.427	20134
901.546	20008
901.665	20218
901.784	20168
901.904	20016
902.023	19909
902.141	19818
902.26	19860
902.379	19696
902.498	19677
902.617	19620
902.735	19620
902.854	19491
902.973	19571
903.091	19301
903.21	19449
903.328	19358
903.446	19304
903.565	19240
903.683	19202
903.801	19050
903.919	19107
904.038	19099
904.156	18935
904.274	18848
904.392	18905
904.51	18913
904.627	18958
904.745	18875
904.863	18814
904.981	18738
905.098	18608
905.216	18429
905.334	18578
905.451	18486
905.569	18410
905.686	18509
905.803	18486
905.921	18311
906.038	18365
906.155	18319
906.272	18220
906.389	18296
906.506	18186
906.623	18083
906.74	18102
906.857	17980
906.974	18038
907.091	18117
907.208	18258
907.324	17984
907.441	17824
907.557	17794
907.674	17722
907.79	17745
907.907	17767
908.023	17771
908.139	17786
908.256	17722
908.372	17668
908.488	17668
908.604	17482
908.72	17497
908.836	17490
908.952	17592
909.068	17490
909.184	17573
909.3	17448
909.415	17558
909.531	17452
909.647	17185
909.762	17117
909.878	17140
909.993	17140
910.108	17174
910.224	17181
910.339	17223
910.454	16972
910.57	17064
910.685	16900
910.8	17181
910.915	17079
911.03	16953
911.145	16797
911.259	16797
911.374	16782
911.489	16767
911.604	16592
911.718	16474
911.833	16561
911.947	16398
912.062	16432
912.176	16508
912.291	16523
912.405	16447
912.519	16649
912.633	16698
912.748	16470
912.862	16512
912.976	16265
913.09	16276
913.204	16360
913.318	16314
913.431	16417
913.545	16394
913.659	16360
913.772	16287
913.886	16139
914	16109
914.113	16234
914.226	16295
914.34	16120
914.453	16010
914.566	16097
914.68	15968
914.793	15987
914.906	15766
915.019	15682
915.132	15694
915.245	15705
915.358	15819
915.47	15762
915.583	15679
915.696	15724
915.809	15679
915.921	15743
916.034	15717
916.146	15538
916.259	15542
916.371	15679
916.483	15667
916.595	15595
916.708	15450
916.82	15511
916.932	15447
917.044	15473
917.156	15504
917.268	15302
917.38	15393
917.491	15313
917.603	15252
917.715	15416
917.826	15386
917.938	15287
918.049	15233
918.161	15291
918.272	15370
918.384	15363
918.495	15207
918.606	15119
918.717	15108
918.828	15116
918.939	15100
919.05	15020
919.161	15020
919.272	14845
919.383	14998
919.494	15077
919.604	15275
919.715	14986
919.826	14956
919.936	15074
920.047	15032
920.157	14948
920.267	15195
920.378	15097
920.488	15020
920.598	15237
920.708	15363
920.818	15207
920.928	15135
921.038	15363
921.148	15287
921.258	14967
921.368	14925
921.477	14720
921.587	14720
921.697	14602
921.806	14769
921.916	14594
922.025	14465
922.134	14476
922.244	14434
922.353	14408
922.462	14263
922.571	14195
922.68	14168
922.789	14043
922.898	14092
923.007	13955
923.116	13997
923.224	13997
923.333	13982
923.442	13959
923.55	13837
923.659	13928
923.767	13940
923.876	13803
923.984	13841
924.092	13765
924.201	13761
924.309	13753
924.417	13780
924.525	13750
924.633	13632
924.741	14408
924.849	13571
924.956	13590
925.064	13521
925.172	13377
925.279	13392
925.387	13483
925.494	13426
925.602	13605
925.709	13449
925.816	13331
925.924	13384
926.031	13548
926.138	13354
926.245	13430
926.352	13301
926.459	13362
926.566	13430
926.673	13384
926.779	13251
926.886	13164
926.993	13091
927.099	12920
927.206	12932
927.312	12928
927.419	13034
927.525	12977
927.631	12958
927.737	12863
927.843	12924
927.95	12696
928.056	12817
928.162	12791
928.267	12776
928.373	13403
928.479	12901
928.585	12601
928.69	12734
928.796	12749
928.901	12642
929.007	12536
929.112	12696
929.218	12563
929.323	12627
929.428	12563
929.533	12612
929.638	12414
929.743	12494
929.848	12429
929.953	12456
930.058	12346
930.163	12171
930.267	12220
930.372	12414
930.477	12110
930.581	12327
930.685	12175
930.79	12015
930.894	12121
930.998	12053
931.103	12163
931.207	11916
931.311	11718
931.415	11661
931.519	11410
931.623	11398
