Data from test_V78500241_2975.txt Node
Date: Fri Mar 25 16:02:24 CST 2022
User: usil
Spectrometer: V785-0024
Trigger mode: 0
Integration Time (sec): 4.000000E-1
Scans to average: 1
Nonlinearity correction enabled: false
Boxcar width: 0
Storing dark spectrum: false
XAxis mode: Wavelengths
Number of Pixels in Spectrum: 1024
>>>>>Begin Spectral Data<<<<<
801.071	27416
801.214	27424
801.356	27226
801.499	27176
801.641	27039
801.783	27047
801.926	27093
802.068	27036
802.211	27028
802.353	26994
802.496	26629
802.638	26708
802.78	26636
802.923	26533
803.065	26423
803.208	26522
803.35	26651
803.492	26815
803.635	26819
803.777	26815
803.919	26819
804.061	27043
804.204	26773
804.346	26887
804.488	26674
804.63	26872
804.773	26693
804.915	26887
805.057	27017
805.199	26956
805.341	26963
805.483	27123
805.626	26887
805.768	26937
805.91	26880
806.052	27051
806.194	26914
806.336	27085
806.478	26963
806.62	26883
806.762	27070
806.904	27256
807.046	27325
807.188	27386
807.33	27355
807.472	27427
807.614	27283
807.756	27401
807.898	27291
808.04	27028
808.182	27131
808.324	27233
808.465	27195
808.607	27447
808.749	27534
808.891	27614
809.033	27724
809.174	27606
809.316	27595
809.458	27618
809.6	27523
809.741	27637
809.883	27816
810.025	27865
810.166	27854
810.308	27865
810.45	27918
810.591	27641
810.733	27709
810.875	27599
811.016	27450
811.158	27519
811.299	27644
811.441	27679
811.582	27739
811.724	27648
811.865	27557
812.007	27652
812.148	27675
812.29	27724
812.431	27759
812.573	27975
812.714	28017
812.855	28010
812.997	28116
813.138	28428
813.279	28192
813.421	28029
813.562	28013
813.703	27701
813.845	27831
813.986	27561
814.127	27332
814.268	27306
814.41	27260
814.551	27230
814.692	27393
814.833	27150
814.974	27104
815.115	27378
815.256	27207
815.397	27051
815.539	27047
815.68	27062
815.821	27077
815.962	27028
816.103	26971
816.244	26899
816.385	26952
816.526	26735
816.666	26667
816.807	26492
816.948	26693
817.089	26754
817.23	26609
817.371	26499
817.512	26545
817.653	26571
817.793	26499
817.934	26434
818.075	26598
818.216	26549
818.356	26313
818.497	26343
818.638	26240
818.778	26332
818.919	26176
819.06	26396
819.2	26423
819.341	26503
819.481	26465
819.622	26705
819.762	26826
819.903	26785
820.043	26678
820.184	26674
820.324	26560
820.465	26678
820.605	26655
820.746	26575
820.886	26507
821.026	26590
821.167	26533
821.307	26724
821.447	26579
821.588	26408
821.728	26336
821.868	26138
822.008	25982
822.149	25913
822.289	25928
822.429	25552
822.569	25578
822.709	25704
822.849	25422
822.99	25552
823.13	25499
823.27	25499
823.41	25270
823.55	25076
823.69	25289
823.83	25324
823.97	25274
824.11	25095
824.25	25004
824.389	25061
824.529	25228
824.669	25122
824.809	25316
824.949	25236
825.089	25179
825.228	25217
825.368	24916
825.508	24916
825.648	24943
825.787	25042
825.927	25031
826.067	24905
826.206	24973
826.346	24924
826.485	24951
826.625	25012
826.765	25095
826.904	24905
827.044	24825
827.183	24646
827.323	24639
827.462	24859
827.601	24677
827.741	24623
827.88	24669
828.02	24570
828.159	24642
828.298	24776
828.437	24677
828.577	24612
828.716	24776
828.855	24570
828.994	24422
829.134	24357
829.273	24418
829.412	24338
829.551	24330
829.69	24311
829.829	24315
829.968	24486
830.107	24521
830.246	24289
830.385	24315
830.524	24239
830.663	24098
830.802	24152
830.941	23912
831.08	23969
831.219	24140
831.357	24087
831.496	24235
831.635	23904
831.774	23931
831.913	23805
832.051	23824
832.19	23828
832.329	23813
832.467	23676
832.606	23668
832.744	23543
832.883	23638
833.022	23684
833.16	23707
833.299	23722
833.437	23627
833.576	23752
833.714	23661
833.852	23756
833.991	23836
834.129	23722
834.267	23859
834.406	23775
834.544	23794
834.682	23722
834.821	23638
834.959	23882
835.097	23627
835.235	23722
835.373	23665
835.511	23630
835.65	23577
835.788	23596
835.926	23410
836.064	23330
836.202	23421
836.34	23444
836.478	23638
836.615	23623
836.753	23581
836.891	23577
837.029	23589
837.167	23440
837.305	23429
837.443	23398
837.58	23261
837.718	23524
837.856	23440
837.993	23387
838.131	23307
838.269	23337
838.406	23299
838.544	23258
838.681	23022
838.819	23052
838.956	22942
839.094	22896
839.231	22869
839.369	23060
839.506	23239
839.643	23189
839.781	22877
839.918	22934
840.055	22873
840.193	22805
840.33	22866
840.467	22771
840.604	22908
840.742	23006
840.879	22763
841.016	22641
841.153	22691
841.29	22957
841.427	22679
841.564	22835
841.701	22850
841.838	22683
841.975	22725
842.112	22649
842.249	22546
842.385	22596
842.522	22752
842.659	22694
842.796	22596
842.933	22588
843.069	22466
843.206	22402
843.343	22508
843.479	22462
843.616	22641
843.752	22276
843.889	22375
844.025	22535
844.162	22371
844.298	22348
844.435	22261
844.571	22261
844.708	22280
844.844	22538
844.98	22459
845.117	22451
845.253	22219
845.389	22344
845.525	22204
845.661	22177
845.798	22017
845.934	22135
846.07	22078
846.206	21937
846.342	22150
846.478	22044
846.614	21869
846.75	21694
846.886	21888
847.022	21861
847.158	21888
847.294	21831
847.429	21846
847.565	21816
847.701	21998
847.837	21488
847.972	21428
848.108	21583
848.244	21557
848.379	21466
848.515	21329
848.65	21507
848.786	21336
848.921	21428
849.057	21431
849.192	21435
849.328	21332
849.463	21344
849.598	21393
849.734	21294
849.869	21363
850.004	21184
850.14	21256
850.275	21150
850.41	21058
850.545	21096
850.68	21108
850.815	21245
850.95	21093
851.085	21431
851.22	21154
851.355	21032
851.49	21138
851.625	21028
851.76	21081
851.895	21169
852.03	21119
852.165	21100
852.299	21070
852.434	21256
852.569	21192
852.703	21165
852.838	21135
852.973	21184
853.107	21332
853.242	21077
853.376	20956
853.511	20853
853.645	20941
853.78	21036
853.914	21039
854.048	20971
854.183	20918
854.317	20925
854.451	21142
854.585	20994
854.72	20971
854.854	21127
854.988	20975
855.122	20982
855.256	20883
855.39	21005
855.524	21070
855.658	21009
855.792	21062
855.926	21028
856.06	21024
856.194	20982
856.327	20941
856.461	20872
856.595	20960
856.729	21074
856.862	21036
856.996	20941
857.13	21047
857.263	21165
857.397	21062
857.53	20963
857.664	20963
857.797	20933
857.931	21142
858.064	21028
858.197	21070
858.331	20998
858.464	20971
858.597	20948
858.731	20971
858.864	20887
858.997	20891
859.13	20994
859.263	21062
859.396	21180
859.529	20998
859.662	20967
859.795	20944
859.928	20975
860.061	21161
860.194	21157
860.327	20944
860.46	21013
860.592	21066
860.725	21165
860.858	21104
860.99	20910
861.123	20975
861.256	20899
861.388	21051
861.521	21686
861.653	20838
861.786	20754
861.918	20739
862.05	20883
862.183	21001
862.315	20971
862.447	20952
862.58	20785
862.712	20785
862.844	20632
862.976	20815
863.108	20731
863.24	21237
863.372	20644
863.504	20689
863.636	20731
863.768	20781
863.9	20560
864.032	20632
864.164	20712
864.296	20705
864.428	20872
864.559	20883
864.691	20838
864.823	20804
864.954	20765
865.086	20674
865.217	20602
865.349	20583
865.48	20632
865.612	20651
865.743	20686
865.875	20693
866.006	20625
866.137	20613
866.269	20640
866.4	20655
866.531	20594
866.662	20564
866.793	20606
866.924	20492
867.055	20621
867.186	20518
867.317	20644
867.448	20480
867.579	20568
867.71	20503
867.841	20358
867.972	20571
868.103	20613
868.233	20560
868.364	20583
868.495	20632
868.625	20826
868.756	20941
868.886	20739
869.017	20739
869.147	21001
869.278	20944
869.408	20823
869.539	20864
869.669	20941
869.799	20807
869.929	20956
870.06	20929
870.19	21146
870.32	21138
870.45	21096
870.58	21188
870.71	21325
870.84	21294
870.97	21203
871.1	21260
871.23	21382
871.36	21332
871.489	21233
871.619	21325
871.749	21401
871.879	21439
872.008	21473
872.138	21412
872.267	21507
872.397	21230
872.526	21188
872.656	21264
872.785	21245
872.915	21420
873.044	21583
873.173	21542
873.303	21447
873.432	21526
873.561	21473
873.69	21485
873.819	21431
873.948	21538
874.077	21572
874.206	21523
874.335	21439
874.464	21629
874.593	21648
874.722	21778
874.851	21850
874.979	21694
875.108	21709
875.237	21553
875.365	21538
875.494	21618
875.623	21614
875.751	21553
875.88	21728
876.008	21823
876.136	21884
876.265	22044
876.393	22150
876.521	22204
876.65	22181
876.778	22067
876.906	21937
877.034	21922
877.162	21945
877.29	21968
877.418	21998
877.546	22116
877.674	22082
877.802	22067
877.93	22006
878.058	22017
878.185	21869
878.313	21991
878.441	22048
878.568	21873
878.696	21861
878.824	22093
878.951	22055
879.079	22207
879.206	22196
879.333	22200
879.461	21922
879.588	22169
879.715	22215
879.842	22356
879.97	22169
880.097	21949
880.224	21865
880.351	21823
880.478	21857
880.605	21835
880.732	21804
880.859	22063
880.986	21823
881.112	21949
881.239	21686
881.366	21679
881.493	21416
881.619	21298
881.746	21500
881.872	21488
881.999	21507
882.125	21363
882.252	21321
882.378	21363
882.505	21485
882.631	21283
882.757	21203
882.883	21351
883.01	21081
883.136	21104
883.262	20857
883.388	20944
883.514	21256
883.64	21195
883.766	20929
883.892	20861
884.018	20891
884.143	21036
884.269	21218
884.395	20902
884.52	20712
884.646	20823
884.772	20697
884.897	20590
885.023	20758
885.148	20864
885.274	20952
885.399	20769
885.524	20815
885.65	20853
885.775	20857
885.9	20800
886.025	20857
886.15	20826
886.275	20758
886.4	20686
886.525	20640
886.65	20674
886.775	20686
886.9	20921
887.025	20849
887.149	20750
887.274	20602
887.399	20495
887.523	20484
887.648	20454
887.773	20507
887.897	20564
888.021	20526
888.146	20412
888.27	20708
888.395	20674
888.519	20594
888.643	20511
888.767	20579
888.891	20461
889.015	20377
889.139	20419
889.263	20400
889.387	20404
889.511	20571
889.635	20461
889.759	20450
889.883	20389
890.006	20385
890.13	20446
890.254	20210
890.377	20351
890.501	20119
890.624	20088
890.748	20138
890.871	19974
890.995	19814
891.118	19974
891.241	19879
891.364	19947
891.488	20096
891.611	19811
891.734	19883
891.857	19955
891.98	19875
892.103	19921
892.226	19951
892.349	19841
892.471	19708
892.594	19803
892.717	19902
892.839	19814
892.962	19731
893.085	19959
893.207	19772
893.33	19769
893.452	19677
893.575	19860
893.697	19791
893.819	20005
893.941	19967
894.064	19982
894.186	19928
894.308	19776
894.43	19890
894.552	19917
894.674	19989
894.796	19666
894.918	19795
895.04	19746
895.161	19909
895.283	19940
895.405	19921
895.526	19799
895.648	19936
895.769	19932
895.891	19944
896.012	19868
896.134	19871
896.255	19970
896.376	19731
896.498	19841
896.619	19921
896.74	19967
896.861	19932
896.982	20256
897.103	20362
897.224	20130
897.345	20046
897.466	20024
897.587	20096
897.708	20221
897.828	20111
897.949	20043
898.07	19879
898.19	20039
898.311	20210
898.431	20069
898.552	20012
898.672	20103
898.792	20153
898.913	20039
899.033	20092
899.153	19883
899.273	19757
899.393	19959
899.513	19936
899.633	19871
899.753	19906
899.873	19769
899.993	19871
900.113	19784
900.232	19769
900.352	19765
900.472	19734
900.591	19666
900.711	19696
900.83	19609
900.95	19791
901.069	19696
901.189	19681
901.308	19304
901.427	19190
901.546	19247
901.665	19183
901.784	19187
901.904	19031
902.023	18989
902.141	18901
902.26	18730
902.379	18779
902.498	18757
902.617	18631
902.735	18722
902.854	18711
902.973	18677
903.091	18334
903.21	18418
903.328	18311
903.446	18315
903.565	18201
903.683	18224
903.801	18030
903.919	18365
904.038	18136
904.156	18034
904.274	18026
904.392	17923
904.51	17927
904.627	17942
904.745	17996
904.863	17999
904.981	17798
905.098	17630
905.216	17589
905.334	17668
905.451	17672
905.569	17596
905.686	17699
905.803	17646
905.921	17398
906.038	17524
906.155	17520
906.272	17307
906.389	17220
906.506	17178
906.623	17220
906.74	17147
906.857	17113
906.974	17166
907.091	17277
907.208	17330
907.324	17162
907.441	16980
907.557	16999
907.674	16892
907.79	16858
907.907	16980
908.023	16930
908.139	16793
908.256	16824
908.372	16748
908.488	16824
908.604	16599
908.72	16637
908.836	16554
908.952	16656
909.068	16694
909.184	16672
909.3	16565
909.415	16554
909.531	16588
909.647	16276
909.762	16238
909.878	16303
909.993	16303
910.108	16272
910.224	16196
910.339	16272
910.454	16246
910.57	16086
910.685	16010
910.8	16295
910.915	16375
911.03	16169
911.145	15991
911.259	15895
911.374	15937
911.489	15778
911.604	15797
911.718	15580
911.833	15606
911.947	15576
912.062	15515
912.176	15637
912.291	15610
912.405	15785
912.519	15797
912.633	15945
912.748	15671
912.862	15663
912.976	15534
913.09	15401
913.204	15355
913.318	15454
913.431	15526
913.545	15603
913.659	15629
913.772	15393
913.886	15435
914	15245
914.113	15245
914.226	15507
914.34	15332
914.453	15176
914.566	15325
914.68	15203
914.793	15135
914.906	14941
915.019	14944
915.132	14811
915.245	14842
915.358	14849
915.47	14883
915.583	14834
915.696	14887
915.809	14952
915.921	15066
916.034	14823
916.146	14830
916.259	14731
916.371	14842
916.483	14754
916.595	14739
916.708	14720
916.82	14750
916.932	14720
917.044	14712
917.156	14648
917.268	14556
917.38	14644
917.491	14545
917.603	14602
917.715	14632
917.826	14598
917.938	14518
918.049	14377
918.161	14457
918.272	14602
918.384	14590
918.495	14476
918.606	14309
918.717	14301
918.828	14309
918.939	14267
919.05	14256
919.161	14309
919.272	14096
919.383	14142
919.494	14336
919.604	14427
919.715	14358
919.826	14214
919.936	14313
920.047	14267
920.157	14412
920.267	14484
920.378	14313
920.488	14237
920.598	14492
920.708	14514
920.818	14434
920.928	14389
921.038	14640
921.148	14564
921.258	14263
921.368	14180
921.477	14183
921.587	14073
921.697	13928
921.806	14020
921.916	13879
922.025	13734
922.134	13738
922.244	13734
922.353	13761
922.462	13533
922.571	13529
922.68	13460
922.789	13289
922.898	13274
923.007	13259
923.116	13392
923.224	13362
923.333	13289
923.442	13137
923.55	13137
923.659	13156
923.767	13152
923.876	13133
923.984	13149
924.092	13046
924.201	13156
924.309	13046
924.417	13091
924.525	12962
924.633	12935
924.741	13727
924.849	12837
924.956	12882
925.064	12817
925.172	12726
925.279	12768
925.387	12817
925.494	12692
925.602	12859
925.709	12711
925.816	12684
925.924	12817
926.031	12810
926.138	12726
926.245	12760
926.352	12528
926.459	12753
926.566	12681
926.673	12700
926.779	12555
926.886	12441
926.993	12346
927.099	12346
927.206	12376
927.312	12235
927.419	12376
927.525	12346
927.631	12365
927.737	12296
927.843	12232
927.95	12045
928.056	12140
928.162	12117
928.267	12258
928.373	12848
928.479	12209
928.585	11927
928.69	12030
928.796	12152
928.901	12007
929.007	11878
929.112	12030
929.218	11923
929.323	11923
929.428	11901
929.533	11958
929.638	11889
929.743	11817
929.848	11965
929.953	11775
930.058	11779
930.163	11562
930.267	11577
930.372	11668
930.477	11585
930.581	11805
930.685	11615
930.79	11455
930.894	11459
930.998	11425
931.103	11490
931.207	11227
931.311	11113
931.415	11098
931.519	10900
931.623	10930
