Data from test_V78500241_107.txt Node
Date: Fri Mar 25 15:42:32 CST 2022
User: usil
Spectrometer: V785-0024
Trigger mode: 0
Integration Time (sec): 4.000000E-1
Scans to average: 1
Nonlinearity correction enabled: false
Boxcar width: 0
Storing dark spectrum: false
XAxis mode: Wavelengths
Number of Pixels in Spectrum: 1024
>>>>>Begin Spectral Data<<<<<
801.071	29155
801.214	29109
801.356	28927
801.499	28847
801.641	28618
801.783	28603
801.926	28748
802.068	28538
802.211	28527
802.353	28466
802.496	28356
802.638	28253
802.78	28131
802.923	28257
803.065	28036
803.208	28177
803.35	28177
803.492	28470
803.635	28512
803.777	28363
803.919	28341
804.061	28729
804.204	28428
804.346	28249
804.488	28303
804.63	28337
804.773	28173
804.915	28211
805.057	28432
805.199	28265
805.341	28379
805.483	28474
805.626	28451
805.768	28287
805.91	28371
806.052	28440
806.194	28375
806.336	28580
806.478	28390
806.62	28436
806.762	28432
806.904	28599
807.046	28942
807.188	28786
807.33	28683
807.472	28820
807.614	28740
807.756	28733
807.898	28554
808.04	28405
808.182	28622
808.324	28523
808.465	28637
808.607	28786
808.749	28873
808.891	28965
809.033	29064
809.174	28927
809.316	28923
809.458	28965
809.6	28984
809.741	28984
809.883	29033
810.025	29083
810.166	29079
810.308	29147
810.45	29105
810.591	28995
810.733	28812
810.875	28957
811.016	28824
811.158	28767
811.299	28984
811.441	29052
811.582	28968
811.724	28824
811.865	28767
812.007	28702
812.148	28820
812.29	28816
812.431	29014
812.573	29216
812.714	29429
812.855	29330
812.997	29444
813.138	29573
813.279	29509
813.421	29455
813.562	29330
813.703	29151
813.845	28923
813.986	28649
814.127	28653
814.268	28527
814.41	28542
814.551	28443
814.692	28451
814.833	28344
814.974	28516
815.115	28531
815.256	28322
815.397	28246
815.539	28249
815.68	28223
815.821	27975
815.962	28169
816.103	28109
816.244	28010
816.385	27762
816.526	27903
816.666	27618
816.807	27663
816.948	27580
817.089	27698
817.23	27637
817.371	27603
817.512	27583
817.653	27439
817.793	27618
817.934	27553
818.075	27568
818.216	27667
818.356	27481
818.497	27389
818.638	27287
818.778	27283
818.919	27317
819.06	27188
819.2	27321
819.341	27462
819.481	27359
819.622	27553
819.762	27762
819.903	27724
820.043	27618
820.184	27606
820.324	27572
820.465	27443
820.605	27496
820.746	27431
820.886	27264
821.026	27625
821.167	27515
821.307	27488
821.447	27367
821.588	27252
821.728	27340
821.868	27009
822.008	26933
822.149	26701
822.289	26819
822.429	26659
822.569	26438
822.709	26533
822.849	26309
822.99	26278
823.13	26275
823.27	26305
823.41	26122
823.55	26092
823.69	26027
823.83	26096
823.97	26035
824.11	25932
824.25	25940
824.389	25993
824.529	25974
824.669	25837
824.809	25997
824.949	25814
825.089	26016
825.228	25970
825.368	25674
825.508	25776
825.648	25677
825.787	25799
825.927	25689
826.067	25719
826.206	25578
826.346	25700
826.485	25704
826.625	25731
826.765	25772
826.904	25681
827.044	25468
827.183	25346
827.323	25373
827.462	25403
827.601	25285
827.741	25297
827.88	25331
828.02	25152
828.159	25202
828.298	25316
828.437	25426
828.577	25274
828.716	25510
828.855	25175
828.994	25012
829.134	25000
829.273	25076
829.412	25000
829.551	25046
829.69	25019
829.829	24966
829.968	25103
830.107	24935
830.246	25065
830.385	24970
830.524	24913
830.663	24863
830.802	24658
830.941	24521
831.08	24578
831.219	24684
831.357	24486
831.496	24753
831.635	24479
831.774	24327
831.913	24346
832.051	24311
832.19	24205
832.329	24350
832.467	24167
832.606	24133
832.744	24068
832.883	24171
833.022	24041
833.16	24140
833.299	24228
833.437	24323
833.576	24095
833.714	24087
833.852	24194
833.991	24270
834.129	24273
834.267	24235
834.406	24144
834.544	24091
834.682	24045
834.821	24213
834.959	24289
835.097	24182
835.235	24247
835.373	24053
835.511	23969
835.65	23851
835.788	23950
835.926	23813
836.064	23718
836.202	23859
836.34	23992
836.478	24003
836.615	23931
836.753	23809
836.891	24064
837.029	24072
837.167	23916
837.305	23882
837.443	23775
837.58	23619
837.718	23756
837.856	23824
837.993	23764
838.131	23760
838.269	23577
838.406	23699
838.544	23608
838.681	23391
838.819	23353
838.956	23303
839.094	23162
839.231	23280
839.369	23326
839.506	23520
839.643	23376
839.781	23178
839.918	23155
840.055	23044
840.193	23124
840.33	23079
840.467	23037
840.604	23113
840.742	23383
840.879	22942
841.016	22999
841.153	22873
841.29	23162
841.427	22980
841.564	23010
841.701	23037
841.838	23064
841.975	22911
842.112	22991
842.249	22881
842.385	22774
842.522	23060
842.659	22949
842.796	22828
842.933	22721
843.069	22599
843.206	22634
843.343	22710
843.479	22797
843.616	22668
843.752	22561
843.889	22615
844.025	22660
844.162	22447
844.298	22512
844.435	22432
844.571	22508
844.708	22497
844.844	22596
844.98	22645
845.117	22538
845.253	22371
845.389	22268
845.525	22344
845.661	22196
845.798	22173
845.934	22223
846.07	22166
846.206	22196
846.342	22246
846.478	22211
846.614	22010
846.75	21876
846.886	21934
847.022	21975
847.158	21850
847.294	21766
847.429	21983
847.565	21831
847.701	22147
847.837	21542
847.972	21462
848.108	21633
848.244	21686
848.379	21595
848.515	21393
848.65	21374
848.786	21473
848.921	21587
849.057	21603
849.192	21454
849.328	21439
849.463	21386
849.598	21310
849.734	21355
849.869	21317
850.004	21272
850.14	21154
850.275	21131
850.41	21100
850.545	21131
850.68	21131
850.815	21211
850.95	21047
851.085	21283
851.22	21260
851.355	21207
851.49	21135
851.625	21051
851.76	21055
851.895	21047
852.03	21077
852.165	21039
852.299	21256
852.434	21165
852.569	21252
852.703	21291
852.838	21256
852.973	21188
853.107	21074
853.242	21207
853.376	20937
853.511	20902
853.645	20914
853.78	20990
853.914	20902
854.048	20887
854.183	21058
854.317	20952
854.451	21074
854.585	20994
854.72	20868
854.854	21077
854.988	20975
855.122	20902
855.256	20781
855.39	20887
855.524	21001
855.658	20876
855.792	20960
855.926	21028
856.06	21009
856.194	21036
856.327	21001
856.461	20857
856.595	20887
856.729	20921
856.862	21127
856.996	21028
857.13	21005
857.263	21081
857.397	20918
857.53	20918
857.664	20990
857.797	21036
857.931	21108
858.064	20986
858.197	20960
858.331	20902
858.464	20853
858.597	20864
858.731	20811
858.864	20960
858.997	20800
859.13	20929
859.263	20872
859.396	20819
859.529	20804
859.662	20902
859.795	20686
859.928	20864
860.061	21005
860.194	21013
860.327	20891
860.46	20891
860.592	21043
860.725	21051
860.858	20823
860.99	20891
861.123	20724
861.256	20739
861.388	20880
861.521	21397
861.653	20689
861.786	20651
861.918	20712
862.05	20750
862.183	20918
862.315	20807
862.447	20883
862.58	20956
862.712	20689
862.844	20651
862.976	20667
863.108	20575
863.24	20925
863.372	20571
863.504	20571
863.636	20659
863.768	20682
863.9	20625
864.032	20385
864.164	20446
864.296	20461
864.428	20549
864.559	20541
864.691	20644
864.823	20473
864.954	20625
865.086	20568
865.217	20537
865.349	20355
865.48	20400
865.612	20488
865.743	20560
865.875	20434
866.006	20507
866.137	20412
866.269	20594
866.4	20438
866.531	20556
866.662	20530
866.793	20347
866.924	20450
867.055	20583
867.186	20419
867.317	20370
867.448	20320
867.579	20446
867.71	20278
867.841	20259
867.972	20256
868.103	20393
868.233	20541
868.364	20419
868.495	20427
868.625	20571
868.756	20834
868.886	20530
869.017	20575
869.147	20667
869.278	20807
869.408	20663
869.539	20678
869.669	20834
869.799	20674
869.929	20697
870.06	20667
870.19	21043
870.32	20902
870.45	20861
870.58	21036
870.71	21199
870.84	21169
870.97	21017
871.1	21093
871.23	21291
871.36	21184
871.489	21230
871.619	21237
871.749	21256
871.879	21306
872.008	21424
872.138	21241
872.267	21203
872.397	21226
872.526	21074
872.656	21096
872.785	21112
872.915	21226
873.044	21336
873.173	21252
873.303	21291
873.432	21424
873.561	21481
873.69	21298
873.819	21260
873.948	21317
874.077	21256
874.206	21180
874.335	21241
874.464	21408
874.593	21523
874.722	21496
874.851	21595
874.979	21610
875.108	21690
875.237	21363
875.365	21481
875.494	21466
875.623	21492
875.751	21378
875.88	21526
876.008	21641
876.136	21842
876.265	21907
876.393	22150
876.521	22093
876.65	21941
876.778	21876
876.906	21812
877.034	21770
877.162	21819
877.29	21812
877.418	21854
877.546	21819
877.674	21888
877.802	21797
877.93	21869
878.058	21876
878.185	21717
878.313	21850
878.441	21888
878.568	21724
878.696	21736
878.824	21937
878.951	21956
879.079	22101
879.206	22185
879.333	22025
879.461	21945
879.588	21949
879.715	22063
879.842	22196
879.97	21911
880.097	21603
880.224	21587
880.351	21625
880.478	21698
880.605	21587
880.732	21637
880.859	21899
880.986	21705
881.112	21553
881.239	21724
881.366	21530
881.493	21287
881.619	21344
881.746	21268
881.872	21294
881.999	21382
882.125	21264
882.252	21313
882.378	21321
882.505	21351
882.631	21173
882.757	21058
882.883	21001
883.01	21062
883.136	20891
883.262	20914
883.388	20834
883.514	21043
883.64	21047
883.766	21142
883.892	20807
884.018	20849
884.143	20845
884.269	20971
884.395	20815
884.52	20705
884.646	20678
884.772	20473
884.897	20492
885.023	20667
885.148	20705
885.274	20743
885.399	20800
885.524	20686
885.65	20701
885.775	20590
885.9	20716
886.025	20667
886.15	20644
886.275	20598
886.4	20583
886.525	20609
886.65	20518
886.775	20503
886.9	20708
887.025	20804
887.149	20526
887.274	20556
887.399	20450
887.523	20400
887.648	20362
887.773	20233
887.897	20488
888.021	20480
888.146	20221
888.27	20408
888.395	20454
888.519	20473
888.643	20408
888.767	20461
888.891	20351
889.015	20221
889.139	20199
889.263	20229
889.387	20244
889.511	20351
889.635	20377
889.759	20122
889.883	20126
890.006	20244
890.13	20271
890.254	20062
890.377	20096
890.501	19932
890.624	19959
890.748	19974
890.871	19864
890.995	19613
891.118	19719
891.241	19719
891.364	19791
891.488	19871
891.611	19826
891.734	19742
891.857	19746
891.98	19723
892.103	19788
892.226	19807
892.349	19658
892.471	19506
892.594	19750
892.717	19780
892.839	19734
892.962	19662
893.085	19712
893.207	19571
893.33	19662
893.452	19647
893.575	19704
893.697	19537
893.819	19662
893.941	19845
894.064	19830
894.186	19620
894.308	19616
894.43	19731
894.552	19841
894.674	19776
894.796	19567
894.918	19734
895.04	19582
895.161	19780
895.283	19795
895.405	19605
895.526	19681
895.648	19700
895.769	19757
895.891	19696
896.012	19769
896.134	19788
896.255	19696
896.376	19628
896.498	19674
896.619	19788
896.74	19769
896.861	19772
896.982	20069
897.103	20161
897.224	20077
897.345	19974
897.466	19932
897.587	20020
897.708	20058
897.828	19967
897.949	19963
898.07	19734
898.19	19830
898.311	19982
898.431	19868
898.552	19932
898.672	19875
898.792	19959
898.913	19841
899.033	19677
899.153	19715
899.273	19590
899.393	19525
899.513	19696
899.633	19616
899.753	19575
899.873	19529
899.993	19727
900.113	19651
900.232	19533
900.352	19544
900.472	19381
900.591	19350
900.711	19441
900.83	19411
900.95	19518
901.069	19502
901.189	19320
901.308	19145
901.427	19065
901.546	18996
901.665	19031
901.784	19050
901.904	18760
902.023	18772
902.141	18604
902.26	18479
902.379	18547
902.498	18574
902.617	18502
902.735	18536
902.854	18414
902.973	18445
903.091	18178
903.21	18171
903.328	18201
903.446	18091
903.565	18022
903.683	17973
903.801	17935
903.919	17920
904.038	17908
904.156	17752
904.274	17836
904.392	17642
904.51	17657
904.627	17684
904.745	17703
904.863	17752
904.981	17615
905.098	17444
905.216	17433
905.334	17349
905.451	17368
905.569	17379
905.686	17455
905.803	17387
905.921	17204
906.038	17277
906.155	17197
906.272	17018
906.389	17185
906.506	16942
906.623	16949
906.74	16797
906.857	16725
906.974	16835
907.091	16972
907.208	16980
907.324	16957
907.441	16847
907.557	16599
907.674	16653
907.79	16546
907.907	16573
908.023	16607
908.139	16603
908.256	16535
908.372	16481
908.488	16573
908.604	16352
908.72	16253
908.836	16379
908.952	16310
909.068	16394
909.184	16421
909.3	16352
909.415	16287
909.531	16360
909.647	15979
909.762	15972
909.878	16010
909.993	15972
910.108	16025
910.224	15956
910.339	15983
910.454	15846
910.57	15854
910.685	15797
910.8	16059
910.915	15956
911.03	15800
911.145	15557
911.259	15618
911.374	15519
911.489	15644
911.604	15435
911.718	15298
911.833	15325
911.947	15241
912.062	15199
912.176	15367
912.291	15386
912.405	15306
912.519	15477
912.633	15420
912.748	15416
912.862	15264
912.976	15066
913.09	15058
913.204	15169
913.318	15066
913.431	15218
913.545	15157
913.659	15298
913.772	15112
913.886	15074
914	14925
914.113	15043
914.226	15119
914.34	14990
914.453	14811
914.566	15032
914.68	14830
914.793	14819
914.906	14606
915.019	14648
915.132	14537
915.245	14545
915.358	14541
915.47	14545
915.583	14537
915.696	14651
915.809	14598
915.921	14667
916.034	14476
916.146	14454
916.259	14454
916.371	14617
916.483	14473
916.595	14427
916.708	14358
916.82	14419
916.932	14301
917.044	14336
917.156	14412
917.268	14103
917.38	14259
917.491	14320
917.603	14168
917.715	14237
917.826	14195
917.938	14149
918.049	14100
918.161	14180
918.272	14248
918.384	14240
918.495	14119
918.606	14107
918.717	13936
918.828	14027
918.939	14054
919.05	13917
919.161	13970
919.272	13723
919.383	13803
919.494	13947
919.604	14252
919.715	13860
919.826	13868
919.936	13906
920.047	13940
920.157	13879
920.267	14126
920.378	13932
920.488	13826
920.598	14187
920.708	14134
920.818	14103
920.928	14035
921.038	14225
921.148	14180
921.258	13902
921.368	13814
921.477	13655
921.587	13693
921.697	13590
921.806	13666
921.916	13518
922.025	13400
922.134	13228
922.244	13301
922.353	13468
922.462	13137
922.571	13137
922.68	12958
922.789	12939
922.898	12863
923.007	12798
923.116	13023
923.224	12867
923.333	12966
923.442	12741
923.55	12795
923.659	12719
923.767	12920
923.876	12684
923.984	12806
924.092	12601
924.201	12757
924.309	12722
924.417	12650
924.525	12730
924.633	12616
924.741	13392
924.849	12376
924.956	12593
925.064	12433
925.172	12281
925.279	12357
925.387	12399
925.494	12380
925.602	12509
925.709	12391
925.816	12365
925.924	12445
926.031	12486
926.138	12304
926.245	12490
926.352	12247
926.459	12353
926.566	12418
926.673	12330
926.779	12220
926.886	12175
926.993	12038
927.099	12064
927.206	11923
927.312	11893
927.419	12022
927.525	12015
927.631	12030
927.737	11874
927.843	11832
927.95	11672
928.056	11805
928.162	11863
928.267	11775
928.373	12410
928.479	11893
928.585	11672
928.69	11707
928.796	11729
928.901	11691
929.007	11528
929.112	11668
929.218	11649
929.323	11558
929.428	11478
929.533	11592
929.638	11474
929.743	11501
929.848	11505
929.953	11528
930.058	11349
930.163	11193
930.267	11220
930.372	11353
930.477	11235
930.581	11356
930.685	11288
930.79	11174
930.894	11105
930.998	11018
931.103	11258
931.207	10904
931.311	10831
931.415	10733
931.519	10447
931.623	10413
