Data from test_V78500241_799.txt Node
Date: Fri Mar 25 15:47:20 CST 2022
User: usil
Spectrometer: V785-0024
Trigger mode: 0
Integration Time (sec): 4.000000E-1
Scans to average: 1
Nonlinearity correction enabled: false
Boxcar width: 0
Storing dark spectrum: false
XAxis mode: Wavelengths
Number of Pixels in Spectrum: 1024
>>>>>Begin Spectral Data<<<<<
801.071	28135
801.214	27949
801.356	27762
801.499	27671
801.641	27420
801.783	27774
801.926	27633
802.068	27561
802.211	27561
802.353	27408
802.496	27359
802.638	27302
802.78	27188
802.923	27306
803.065	27146
803.208	27287
803.35	27393
803.492	27340
803.635	27496
803.777	27348
803.919	27481
804.061	27770
804.204	27458
804.346	27363
804.488	27344
804.63	27435
804.773	27287
804.915	27553
805.057	27576
805.199	27599
805.341	27595
805.483	27568
805.626	27500
805.768	27420
805.91	27603
806.052	27717
806.194	27549
806.336	27755
806.478	27774
806.62	27610
806.762	27762
806.904	27968
807.046	28067
807.188	27926
807.33	27907
807.472	28002
807.614	28025
807.756	27983
807.898	27922
808.04	27857
808.182	27823
808.324	27823
808.465	27892
808.607	28120
808.749	28154
808.891	28413
809.033	28375
809.174	28230
809.316	28207
809.458	28386
809.6	28280
809.741	28523
809.883	28554
810.025	28664
810.166	28519
810.308	28554
810.45	28459
810.591	28512
810.733	28291
810.875	28257
811.016	28048
811.158	28173
811.299	28432
811.441	28398
811.582	28481
811.724	28306
811.865	28363
812.007	28185
812.148	28337
812.29	28348
812.431	28451
812.573	28588
812.714	28641
812.855	28892
812.997	28869
813.138	28987
813.279	28930
813.421	28923
813.562	28858
813.703	28641
813.845	28611
813.986	28124
814.127	28143
814.268	27934
814.41	28063
814.551	27907
814.692	28181
814.833	27991
814.974	27812
815.115	28082
815.256	27717
815.397	27960
815.539	27804
815.68	27751
815.821	27644
815.962	27880
816.103	27778
816.244	27637
816.385	27530
816.526	27576
816.666	27466
816.807	27230
816.948	27275
817.089	27329
817.23	27302
817.371	27264
817.512	27325
817.653	27405
817.793	27252
817.934	27435
818.075	27226
818.216	27252
818.356	27272
818.497	27176
818.638	27024
818.778	27043
818.919	26948
819.06	27062
819.2	27077
819.341	27241
819.481	27279
819.622	27401
819.762	27515
819.903	27500
820.043	27283
820.184	27351
820.324	27386
820.465	27488
820.605	27313
820.746	27329
820.886	27287
821.026	27336
821.167	27340
821.307	27329
821.447	27260
821.588	27252
821.728	27100
821.868	26815
822.008	26781
822.149	26750
822.289	26861
822.429	26473
822.569	26476
822.709	26419
822.849	26377
822.99	26355
823.13	26263
823.27	26244
823.41	26001
823.55	26054
823.69	26119
823.83	26058
823.97	26096
824.11	25966
824.25	25845
824.389	26005
824.529	25951
824.669	25986
824.809	26039
824.949	26043
825.089	25959
825.228	26008
825.368	25742
825.508	25784
825.648	25856
825.787	25898
825.927	25875
826.067	25719
826.206	25689
826.346	25860
826.485	25795
826.625	25674
826.765	25925
826.904	25727
827.044	25396
827.183	25533
827.323	25407
827.462	25479
827.601	25479
827.741	25575
827.88	25468
828.02	25400
828.159	25502
828.298	25377
828.437	25525
828.577	25400
828.716	25628
828.855	25457
828.994	25187
829.134	25274
829.273	25289
829.412	25110
829.551	25179
829.69	25240
829.829	25259
829.968	25331
830.107	25282
830.246	25251
830.385	25065
830.524	24897
830.663	24954
830.802	25015
830.941	24738
831.08	24711
831.219	24852
831.357	24829
831.496	25042
831.635	24745
831.774	24787
831.913	24658
832.051	24650
832.19	24597
832.329	24669
832.467	24532
832.606	24532
832.744	24483
832.883	24563
833.022	24505
833.16	24513
833.299	24486
833.437	24494
833.576	24502
833.714	24574
833.852	24631
833.991	24528
834.129	24700
834.267	24540
834.406	24517
834.544	24612
834.682	24486
834.821	24544
834.959	24631
835.097	24350
835.235	24544
835.373	24471
835.511	24566
835.65	24464
835.788	24391
835.926	24346
836.064	24072
836.202	24308
836.34	24300
836.478	24384
836.615	24350
836.753	24407
836.891	24540
837.029	24350
837.167	24350
837.305	24467
837.443	24270
837.58	23984
837.718	24285
837.856	24327
837.993	24148
838.131	24220
838.269	24083
838.406	24049
838.544	23999
838.681	23748
838.819	23764
838.956	23687
839.094	23649
839.231	23691
839.369	23771
839.506	24026
839.643	23935
839.781	23710
839.918	23585
840.055	23649
840.193	23653
840.33	23505
840.467	23596
840.604	23646
840.742	23878
840.879	23398
841.016	23501
841.153	23554
841.29	23646
841.427	23615
841.564	23718
841.701	23581
841.838	23615
841.975	23471
842.112	23539
842.249	23349
842.385	23417
842.522	23539
842.659	23372
842.796	23349
842.933	23417
843.069	23353
843.206	23280
843.343	23512
843.479	23284
843.616	23337
843.752	22980
843.889	23090
844.025	23261
844.162	23025
844.298	23181
844.435	23086
844.571	23220
844.708	23067
844.844	23204
844.98	23136
845.117	23166
845.253	23044
845.389	23014
845.525	22953
845.661	22999
845.798	22923
845.934	22946
846.07	22809
846.206	22713
846.342	22938
846.478	22847
846.614	22519
846.75	22523
846.886	22668
847.022	22557
847.158	22523
847.294	22637
847.429	22611
847.565	22462
847.701	22774
847.837	22268
847.972	22314
848.108	22261
848.244	22371
848.379	22265
848.515	22116
848.65	22109
848.786	22124
848.921	22188
849.057	22204
849.192	22162
849.328	22226
849.463	22082
849.598	22059
849.734	22078
849.869	22067
850.004	21903
850.14	21827
850.275	22078
850.41	21869
850.545	21797
850.68	21880
850.815	21873
850.95	22029
851.085	22109
851.22	22040
851.355	21994
851.49	21861
851.625	21941
851.76	21888
851.895	21876
852.03	21865
852.165	21892
852.299	21911
852.434	22021
852.569	21975
852.703	21941
852.838	21934
852.973	22124
853.107	21953
853.242	21903
853.376	21766
853.511	21717
853.645	21671
853.78	21759
853.914	21755
854.048	21736
854.183	21736
854.317	21736
854.451	21876
854.585	21671
854.72	21720
854.854	21759
854.988	21618
855.122	21759
855.256	21606
855.39	21781
855.524	21808
855.658	21675
855.792	21663
855.926	21846
856.06	21861
856.194	21728
856.327	21717
856.461	21660
856.595	21770
856.729	21675
856.862	21994
856.996	21785
857.13	21770
857.263	21888
857.397	21861
857.53	21606
857.664	21720
857.797	21842
857.931	21869
858.064	21812
858.197	21926
858.331	21766
858.464	21671
858.597	21682
858.731	21774
858.864	21675
858.997	21568
859.13	21774
859.263	21800
859.396	21759
859.529	21808
859.662	21793
859.795	21831
859.928	21713
860.061	21876
860.194	21911
860.327	21755
860.46	21789
860.592	21850
860.725	21918
860.858	21846
860.99	21785
861.123	21576
861.256	21644
861.388	21713
861.521	22512
861.653	21553
861.786	21618
861.918	21507
862.05	21538
862.183	21755
862.315	21686
862.447	21747
862.58	21561
862.712	21393
862.844	21378
862.976	21488
863.108	21401
863.24	21842
863.372	21481
863.504	21450
863.636	21530
863.768	21412
863.9	21393
864.032	21363
864.164	21367
864.296	21500
864.428	21424
864.559	21564
864.691	21549
864.823	21496
864.954	21408
865.086	21454
865.217	21473
865.349	21161
865.48	21359
865.612	21351
865.743	21481
865.875	21310
866.006	21325
866.137	21218
866.269	21370
866.4	21351
866.531	21256
866.662	21237
866.793	21291
866.924	21287
867.055	21275
867.186	21306
867.317	21135
867.448	21066
867.579	21340
867.71	21260
867.841	21150
867.972	21142
868.103	21169
868.233	21283
868.364	21291
868.495	21306
868.625	21454
868.756	21595
868.886	21504
869.017	21530
869.147	21515
869.278	21641
869.408	21549
869.539	21564
869.669	21568
869.799	21606
869.929	21633
870.06	21603
870.19	21667
870.32	21724
870.45	21831
870.58	21972
870.71	22010
870.84	22131
870.97	21842
871.1	21789
871.23	22055
871.36	22207
871.489	21979
871.619	22078
871.749	22105
871.879	22051
872.008	22234
872.138	22169
872.267	22204
872.397	22086
872.526	21937
872.656	21979
872.785	21964
872.915	22162
873.044	22185
873.173	22109
873.303	22143
873.432	22188
873.561	22265
873.69	22044
873.819	22147
873.948	22131
874.077	22143
874.206	22162
874.335	22116
874.464	22295
874.593	22379
874.722	22382
874.851	22493
874.979	22462
875.108	22478
875.237	22322
875.365	22204
875.494	22329
875.623	22352
875.751	22367
875.88	22386
876.008	22478
876.136	22569
876.265	22683
876.393	22790
876.521	22824
876.65	22820
876.778	22736
876.906	22691
877.034	22538
877.162	22725
877.29	22630
877.418	22694
877.546	22672
877.674	22740
877.802	22717
877.93	22588
878.058	22630
878.185	22527
878.313	22649
878.441	22793
878.568	22584
878.696	22733
878.824	22577
878.951	22725
879.079	22816
879.206	22991
879.333	23014
879.461	22752
879.588	22881
879.715	22858
879.842	22877
879.97	22740
880.097	22462
880.224	22550
880.351	22489
880.478	22504
880.605	22363
880.732	22516
880.859	22664
880.986	22470
881.112	22535
881.239	22337
881.366	22325
881.493	22234
881.619	22150
881.746	22097
881.872	22135
881.999	21983
882.125	22131
882.252	22124
882.378	22036
882.505	22112
882.631	21911
882.757	21869
882.883	21873
883.01	21663
883.136	21675
883.262	21568
883.388	21637
883.514	21831
883.64	21835
883.766	21743
883.892	21431
884.018	21587
884.143	21770
884.269	21778
884.395	21485
884.52	21298
884.646	21412
884.772	21355
884.897	21192
885.023	21454
885.148	21447
885.274	21469
885.399	21447
885.524	21447
885.65	21405
885.775	21408
885.9	21378
886.025	21488
886.15	21466
886.275	21355
886.4	21340
886.525	21317
886.65	21287
886.775	21348
886.9	21466
887.025	21641
887.149	21382
887.274	21230
887.399	21230
887.523	21188
887.648	21116
887.773	21203
887.897	21348
888.021	21135
888.146	21055
888.27	21249
888.395	21325
888.519	21157
888.643	21249
888.767	21108
888.891	21089
889.015	20883
889.139	21001
889.263	21062
889.387	21214
889.511	21100
889.635	21119
889.759	20853
889.883	21066
890.006	21058
890.13	20967
890.254	20842
890.377	20941
890.501	20689
890.624	20746
890.748	20731
890.871	20568
890.995	20434
891.118	20499
891.241	20587
891.364	20480
891.488	20693
891.611	20609
891.734	20469
891.857	20708
891.98	20530
892.103	20568
892.226	20613
892.349	20526
892.471	20320
892.594	20518
892.717	20450
892.839	20275
892.962	20377
893.085	20450
893.207	20454
893.33	20431
893.452	20374
893.575	20446
893.697	20423
893.819	20526
893.941	20674
894.064	20514
894.186	20374
894.308	20218
894.43	20408
894.552	20514
894.674	20613
894.796	20313
894.918	20396
895.04	20381
895.161	20469
895.283	20377
895.405	20427
895.526	20450
895.648	20427
895.769	20465
895.891	20450
896.012	20613
896.134	20442
896.255	20317
896.376	20351
896.498	20465
896.619	20419
896.74	20454
896.861	20492
896.982	20823
897.103	20941
897.224	20712
897.345	20731
897.466	20613
897.587	20686
897.708	20788
897.828	20754
897.949	20495
898.07	20594
898.19	20537
898.311	20583
898.431	20716
898.552	20739
898.672	20663
898.792	20724
898.913	20708
899.033	20488
899.153	20404
899.273	20309
899.393	20450
899.513	20370
899.633	20324
899.753	20305
899.873	20256
899.993	20511
900.113	20256
900.232	20377
900.352	20225
900.472	20157
900.591	20176
900.711	20317
900.83	20168
900.95	20305
901.069	20275
901.189	20065
901.308	19822
901.427	19685
901.546	19750
901.665	19757
901.784	19845
901.904	19601
902.023	19582
902.141	19369
902.26	19320
902.379	19274
902.498	19320
902.617	19175
902.735	19206
902.854	19331
902.973	19183
903.091	19042
903.21	18993
903.328	18871
903.446	18859
903.565	18730
903.683	18795
903.801	18597
903.919	18608
904.038	18585
904.156	18494
904.274	18635
904.392	18456
904.51	18422
904.627	18460
904.745	18433
904.863	18536
904.981	18289
905.098	18190
905.216	18224
905.334	18079
905.451	18083
905.569	18213
905.686	18220
905.803	18152
905.921	17977
906.038	18019
906.155	17927
906.272	17961
906.389	17824
906.506	17703
906.623	17733
906.74	17775
906.857	17623
906.974	17585
907.091	17726
907.208	17863
907.324	17760
907.441	17535
907.557	17398
907.674	17395
907.79	17303
907.907	17436
908.023	17440
908.139	17395
908.256	17368
908.372	17261
908.488	17200
908.604	17204
908.72	17025
908.836	17094
908.952	17102
909.068	17189
909.184	17318
909.3	17212
909.415	17197
909.531	17086
909.647	16828
909.762	16812
909.878	16759
909.993	16801
910.108	16774
910.224	16763
910.339	16710
910.454	16626
910.57	16584
910.685	16687
910.8	16790
910.915	16793
911.03	16615
911.145	16402
911.259	16382
911.374	16417
911.489	16344
911.604	16257
911.718	16207
911.833	16147
911.947	16200
912.062	16048
912.176	16150
912.291	16166
912.405	16246
912.519	16398
912.633	16367
912.748	16242
912.862	16055
912.976	16055
913.09	15823
913.204	15937
913.318	15964
913.431	16074
913.545	16105
913.659	16101
913.772	15903
913.886	15732
914	15781
914.113	15888
914.226	15823
914.34	15713
914.453	15622
914.566	15819
914.68	15701
914.793	15553
914.906	15408
915.019	15355
915.132	15336
915.245	15310
915.358	15458
915.47	15386
915.583	15302
915.696	15348
915.809	15530
915.921	15584
916.034	15230
916.146	15237
916.259	15184
916.371	15256
916.483	15264
916.595	15180
916.708	15165
916.82	15302
916.932	15127
917.044	15047
917.156	15138
917.268	15127
917.38	15074
917.491	15020
917.603	15020
917.715	15108
917.826	15214
917.938	14941
918.049	14842
918.161	14914
918.272	15085
918.384	15112
918.495	14956
918.606	14861
918.717	14640
918.828	14842
918.939	14731
919.05	14648
919.161	14655
919.272	14514
919.383	14629
919.494	14712
919.604	14933
919.715	14788
919.826	14670
919.936	14689
920.047	14811
920.157	14651
920.267	14830
920.378	14735
920.488	14712
920.598	14937
920.708	15051
920.818	14845
920.928	14853
921.038	14975
921.148	14971
921.258	14720
921.368	14629
921.477	14522
921.587	14454
921.697	14225
921.806	14583
921.916	14259
922.025	14199
922.134	14088
922.244	14062
922.353	14130
922.462	13993
922.571	13940
922.68	13795
922.789	13658
922.898	13738
923.007	13677
923.116	13772
923.224	13700
923.333	13639
923.442	13491
923.55	13601
923.659	13613
923.767	13624
923.876	13487
923.984	13582
924.092	13426
924.201	13495
924.309	13358
924.417	13365
924.525	13400
924.633	13510
924.741	14385
924.849	13240
924.956	13331
925.064	13232
925.172	13050
925.279	13145
925.387	13164
925.494	13145
925.602	13209
925.709	13156
925.816	13107
925.924	13145
926.031	13156
926.138	13156
926.245	13171
926.352	12932
926.459	13137
926.566	13080
926.673	13061
926.779	12924
926.886	12821
926.993	12707
927.099	12760
927.206	12646
927.312	12662
927.419	12711
927.525	12726
927.631	12745
927.737	12570
927.843	12521
927.95	12452
928.056	12547
928.162	12479
928.267	12521
928.373	13133
928.479	12620
928.585	12365
928.69	12422
928.796	12460
928.901	12380
929.007	12243
929.112	12330
929.218	12334
929.323	12292
929.428	12258
929.533	12384
929.638	12194
929.743	12167
929.848	12247
929.953	12129
930.058	12003
930.163	11882
930.267	11927
930.372	12129
930.477	11847
930.581	12038
930.685	11961
930.79	11840
930.894	11798
930.998	11790
931.103	11889
931.207	11558
931.311	11455
931.415	11372
931.519	11143
931.623	11166
