Data from test_V78500241_593.txt Node
Date: Fri Mar 25 15:45:54 CST 2022
User: usil
Spectrometer: V785-0024
Trigger mode: 0
Integration Time (sec): 4.000000E-1
Scans to average: 1
Nonlinearity correction enabled: false
Boxcar width: 0
Storing dark spectrum: false
XAxis mode: Wavelengths
Number of Pixels in Spectrum: 1024
>>>>>Begin Spectral Data<<<<<
801.071	27443
801.214	27447
801.356	27146
801.499	27203
801.641	26956
801.783	26933
801.926	27150
802.068	27077
802.211	26937
802.353	26944
802.496	26682
802.638	26716
802.78	26705
802.923	26606
803.065	26613
803.208	26663
803.35	26720
803.492	26743
803.635	26857
803.777	26758
803.919	26864
804.061	27131
804.204	26868
804.346	26724
804.488	26705
804.63	26781
804.773	26708
804.915	26883
805.057	26979
805.199	26819
805.341	26910
805.483	27089
805.626	26895
805.768	26735
805.91	26960
806.052	26902
806.194	26921
806.336	27207
806.478	26975
806.62	26937
806.762	27066
806.904	27233
807.046	27325
807.188	27389
807.33	27382
807.472	27355
807.614	27340
807.756	27233
807.898	27047
808.04	27135
808.182	27192
808.324	27332
808.465	27188
808.607	27321
808.749	27466
808.891	27656
809.033	27797
809.174	27686
809.316	27625
809.458	27545
809.6	27694
809.741	27816
809.883	27709
810.025	27956
810.166	27770
810.308	27762
810.45	27778
810.591	27724
810.733	27511
810.875	27595
811.016	27401
811.158	27538
811.299	27720
811.441	27698
811.582	27724
811.724	27618
811.865	27408
812.007	27542
812.148	27625
812.29	27656
812.431	27774
812.573	27975
812.714	28116
812.855	28070
812.997	28284
813.138	28173
813.279	28116
813.421	28128
813.562	27899
813.703	27960
813.845	27652
813.986	27610
814.127	27298
814.268	27275
814.41	27359
814.551	27211
814.692	27275
814.833	27188
814.974	27211
815.115	27154
815.256	27043
815.397	27146
815.539	27165
815.68	27135
815.821	26952
815.962	26952
816.103	27116
816.244	26918
816.385	26842
816.526	26788
816.666	26632
816.807	26552
816.948	26549
817.089	26667
817.23	26575
817.371	26571
817.512	26594
817.653	26461
817.793	26446
817.934	26473
818.075	26484
818.216	26370
818.356	26427
818.497	26336
818.638	26282
818.778	26267
818.919	26126
819.06	26377
819.2	26480
819.341	26480
819.481	26328
819.622	26609
819.762	26933
819.903	26796
820.043	26727
820.184	26606
820.324	26549
820.465	26625
820.605	26705
820.746	26636
820.886	26503
821.026	26526
821.167	26556
821.307	26583
821.447	26587
821.588	26476
821.728	26259
821.868	26142
822.008	25940
822.149	25966
822.289	25928
822.429	25696
822.569	25529
822.709	25761
822.849	25460
822.99	25445
823.13	25358
823.27	25388
823.41	25354
823.55	25057
823.69	25346
823.83	25343
823.97	25251
824.11	25042
824.25	25038
824.389	25088
824.529	25091
824.669	25103
824.809	25217
824.949	25217
825.089	25080
825.228	25202
825.368	24992
825.508	24970
825.648	24989
825.787	25137
825.927	25050
826.067	24875
826.206	24878
826.346	25053
826.485	24977
826.625	24897
826.765	24939
826.904	25095
827.044	24734
827.183	24757
827.323	24692
827.462	24692
827.601	24570
827.741	24509
827.88	24722
828.02	24665
828.159	24722
828.298	24597
828.437	24783
828.577	24635
828.716	24787
828.855	24566
828.994	24426
829.134	24410
829.273	24418
829.412	24342
829.551	24437
829.69	24254
829.829	24391
829.968	24540
830.107	24414
830.246	24338
830.385	24361
830.524	24281
830.663	24186
830.802	24087
830.941	23988
831.08	23859
831.219	23996
831.357	23996
831.496	24186
831.635	23954
831.774	23863
831.913	23752
832.051	23889
832.19	23710
832.329	23897
832.467	23646
832.606	23585
832.744	23604
832.883	23608
833.022	23665
833.16	23733
833.299	23798
833.437	23634
833.576	23703
833.714	23760
833.852	23726
833.991	23710
834.129	23729
834.267	23912
834.406	23718
834.544	23771
834.682	23805
834.821	23760
834.959	23726
835.097	23653
835.235	23813
835.373	23729
835.511	23646
835.65	23482
835.788	23570
835.926	23417
836.064	23341
836.202	23326
836.34	23551
836.478	23665
836.615	23562
836.753	23512
836.891	23668
837.029	23505
837.167	23516
837.305	23516
837.443	23429
837.58	23391
837.718	23509
837.856	23269
837.993	23402
838.131	23478
838.269	23288
838.406	23303
838.544	23185
838.681	23022
838.819	23052
838.956	22847
839.094	22915
839.231	22896
839.369	23025
839.506	23337
839.643	23170
839.781	22812
839.918	22820
840.055	22869
840.193	22862
840.33	22687
840.467	22835
840.604	22866
840.742	23136
840.879	22706
841.016	22736
841.153	22797
841.29	22854
841.427	22820
841.564	22957
841.701	22717
841.838	22687
841.975	22618
842.112	22809
842.249	22554
842.385	22645
842.522	22706
842.659	22683
842.796	22466
842.933	22519
843.069	22451
843.206	22455
843.343	22736
843.479	22504
843.616	22584
843.752	22333
843.889	22188
844.025	22519
844.162	22352
844.298	22265
844.435	22421
844.571	22287
844.708	22363
844.844	22360
844.98	22402
845.117	22352
845.253	22310
845.389	22185
845.525	22109
845.661	22181
845.798	22021
845.934	22116
846.07	21987
846.206	22131
846.342	22143
846.478	22051
846.614	21876
846.75	21816
846.886	21819
847.022	21892
847.158	21823
847.294	21755
847.429	21953
847.565	21759
847.701	22067
847.837	21568
847.972	21515
848.108	21625
848.244	21511
848.379	21504
848.515	21336
848.65	21264
848.786	21420
848.921	21481
849.057	21511
849.192	21454
849.328	21363
849.463	21325
849.598	21233
849.734	21279
849.869	21192
850.004	21070
850.14	21268
850.275	21127
850.41	21020
850.545	21108
850.68	21066
850.815	21264
850.95	21058
851.085	21302
851.22	21192
851.355	21230
851.49	21066
851.625	21165
851.76	21096
851.895	21020
852.03	21013
852.165	21142
852.299	21279
852.434	21161
852.569	21154
852.703	21058
852.838	21195
852.973	21351
853.107	21321
853.242	21108
853.376	20975
853.511	20861
853.645	20902
853.78	21195
853.914	20925
854.048	20895
854.183	20948
854.317	21058
854.451	21096
854.585	20963
854.72	20967
854.854	21051
854.988	20880
855.122	20921
855.256	20849
855.39	20876
855.524	21039
855.658	20990
855.792	20990
855.926	20956
856.06	20994
856.194	21165
856.327	20963
856.461	20910
856.595	20937
856.729	20971
856.862	21047
856.996	21062
857.13	20910
857.263	21150
857.397	21123
857.53	20918
857.664	20994
857.797	20967
857.931	21074
858.064	21119
858.197	21085
858.331	20857
858.464	20963
858.597	20796
858.731	20963
858.864	20872
858.997	20902
859.13	20891
859.263	21077
859.396	21070
859.529	20986
859.662	21043
859.795	20967
859.928	20902
860.061	20967
860.194	21226
860.327	20933
860.46	20971
860.592	21104
860.725	21074
860.858	21024
860.99	20811
861.123	20902
861.256	20849
861.388	20994
861.521	21492
861.653	20853
861.786	20815
861.918	20754
862.05	20811
862.183	20811
862.315	20883
862.447	20994
862.58	20849
862.712	20621
862.844	20583
862.976	20705
863.108	20720
863.24	21192
863.372	20590
863.504	20651
863.636	20765
863.768	20667
863.9	20693
864.032	20590
864.164	20594
864.296	20674
864.428	20910
864.559	20823
864.691	20739
864.823	20670
864.954	20594
865.086	20727
865.217	20609
865.349	20625
865.48	20594
865.612	20648
865.743	20697
865.875	20499
866.006	20579
866.137	20739
866.269	20655
866.4	20590
866.531	20598
866.662	20396
866.793	20564
866.924	20533
867.055	20533
867.186	20438
867.317	20480
867.448	20370
867.579	20488
867.71	20351
867.841	20423
867.972	20461
868.103	20480
868.233	20556
868.364	20613
868.495	20689
868.625	20712
868.756	20979
868.886	20682
869.017	20746
869.147	20933
869.278	20963
869.408	20838
869.539	20693
869.669	20849
869.799	20823
869.929	20868
870.06	20868
870.19	21017
870.32	20994
870.45	21127
870.58	21108
870.71	21355
870.84	21241
870.97	21032
871.1	21222
871.23	21351
871.36	21397
871.489	21291
871.619	21351
871.749	21367
871.879	21382
872.008	21435
872.138	21386
872.267	21237
872.397	21199
872.526	21154
872.656	21272
872.785	21226
872.915	21488
873.044	21420
873.173	21302
873.303	21382
873.432	21412
873.561	21294
873.69	21416
873.819	21317
873.948	21458
874.077	21393
874.206	21260
874.335	21340
874.464	21549
874.593	21526
874.722	21542
874.851	21591
874.979	21682
875.108	21595
875.237	21545
875.365	21488
875.494	21545
875.623	21793
875.751	21568
875.88	21595
876.008	21686
876.136	21804
876.265	21899
876.393	22143
876.521	22048
876.65	22036
876.778	22036
876.906	22029
877.034	22029
877.162	21926
877.29	21903
877.418	22010
877.546	21960
877.674	21892
877.802	21861
877.93	21998
878.058	21964
878.185	21827
878.313	21941
878.441	21930
878.568	21804
878.696	21831
878.824	21892
878.951	22051
879.079	22086
879.206	22249
879.333	22169
879.461	22063
879.588	22025
879.715	22177
879.842	22086
879.97	22051
880.097	21705
880.224	21827
880.351	21755
880.478	21960
880.605	21812
880.732	21720
880.859	22021
880.986	21835
881.112	21831
881.239	21728
881.366	21576
881.493	21447
881.619	21279
881.746	21443
881.872	21355
881.999	21332
882.125	21302
882.252	21203
882.378	21351
882.505	21420
882.631	21241
882.757	21135
882.883	21116
883.01	21028
883.136	21032
883.262	20944
883.388	20883
883.514	21081
883.64	21036
883.766	20971
883.892	20823
884.018	20914
884.143	20960
884.269	21165
884.395	20834
884.52	20800
884.646	20682
884.772	20560
884.897	20568
885.023	20758
885.148	20762
885.274	20853
885.399	20845
885.524	20807
885.65	20720
885.775	20693
885.9	20632
886.025	20811
886.15	20845
886.275	20663
886.4	20705
886.525	20689
886.65	20625
886.775	20705
886.9	20743
887.025	20864
887.149	20686
887.274	20431
887.399	20488
887.523	20431
887.648	20587
887.773	20374
887.897	20575
888.021	20503
888.146	20442
888.27	20545
888.395	20609
888.519	20602
888.643	20537
888.767	20488
888.891	20396
889.015	20339
889.139	20362
889.263	20248
889.387	20385
889.511	20438
889.635	20366
889.759	20256
889.883	20240
890.006	20431
890.13	20343
890.254	20161
890.377	20191
890.501	20058
890.624	20005
890.748	20176
890.871	19898
890.995	19940
891.118	19909
891.241	19898
891.364	19967
891.488	19921
891.611	19955
891.734	19784
891.857	19989
891.98	19928
892.103	19989
892.226	19864
892.349	19871
892.471	19639
892.594	19795
892.717	19784
892.839	19731
892.962	19738
893.085	19826
893.207	19791
893.33	19731
893.452	19693
893.575	19772
893.697	19677
893.819	19849
893.941	19955
894.064	19947
894.186	19871
894.308	19586
894.43	19917
894.552	19841
894.674	19849
894.796	19753
894.918	19784
895.04	19765
895.161	19784
895.283	19784
895.405	19769
895.526	19852
895.648	19765
895.769	19963
895.891	19906
896.012	19932
896.134	19887
896.255	19693
896.376	19772
896.498	19807
896.619	19883
896.74	19753
896.861	19803
896.982	20069
897.103	20271
897.224	20039
897.345	19955
897.466	19947
897.587	20027
897.708	20180
897.828	19955
897.949	19993
898.07	19906
898.19	20035
898.311	20100
898.431	19925
898.552	19989
898.672	20054
898.792	20161
898.913	20054
899.033	19818
899.153	19753
899.273	19780
899.393	19727
899.513	19830
899.633	19708
899.753	19860
899.873	19761
899.993	19807
900.113	19712
900.232	19723
900.352	19647
900.472	19582
900.591	19544
900.711	19586
900.83	19518
900.95	19708
901.069	19594
901.189	19460
901.308	19232
901.427	19133
901.546	19187
901.665	19103
901.784	19225
901.904	19080
902.023	18958
902.141	18745
902.26	18669
902.379	18856
902.498	18490
902.617	18589
902.735	18696
902.854	18646
902.973	18658
903.091	18353
903.21	18426
903.328	18395
903.446	18232
903.565	18148
903.683	18148
903.801	18110
903.919	18114
904.038	18064
904.156	17901
904.274	18083
904.392	17794
904.51	17828
904.627	17836
904.745	17927
904.863	18038
904.981	17699
905.098	17680
905.216	17516
905.334	17623
905.451	17570
905.569	17512
905.686	17707
905.803	17653
905.921	17398
906.038	17410
906.155	17391
906.272	17288
906.389	17330
906.506	17185
906.623	17178
906.74	17109
906.857	16984
906.974	17048
907.091	17208
907.208	17185
907.324	17033
907.441	17022
907.557	16831
907.674	16919
907.79	16847
907.907	16824
908.023	16972
908.139	16835
908.256	16869
908.372	16736
908.488	16740
908.604	16622
908.72	16493
908.836	16497
908.952	16641
909.068	16599
909.184	16691
909.3	16504
909.415	16580
909.531	16577
909.647	16306
909.762	16261
909.878	16185
909.993	16299
910.108	16211
910.224	16158
910.339	16154
910.454	16036
910.57	16036
910.685	15918
910.8	16181
910.915	16242
911.03	16135
911.145	15861
911.259	15888
911.374	15918
911.489	15751
911.604	15667
911.718	15679
911.833	15652
911.947	15542
912.062	15473
912.176	15663
912.291	15618
912.405	15690
912.519	15842
912.633	15838
912.748	15675
912.862	15538
912.976	15466
913.09	15363
913.204	15424
913.318	15431
913.431	15481
913.545	15485
913.659	15584
913.772	15355
913.886	15272
914	15291
914.113	15329
914.226	15359
914.34	15283
914.453	15108
914.566	15321
914.68	15138
914.793	15058
914.906	14956
915.019	14777
915.132	14853
915.245	14830
915.358	14720
915.47	14849
915.583	14906
915.696	14781
915.809	14998
915.921	14887
916.034	14781
916.146	14830
916.259	14724
916.371	14796
916.483	14746
916.595	14731
916.708	14674
916.82	14632
916.932	14629
917.044	14651
917.156	14625
917.268	14545
917.38	14499
917.491	14522
917.603	14488
917.715	14621
917.826	14648
917.938	14488
918.049	14404
918.161	14522
918.272	14594
918.384	14583
918.495	14450
918.606	14309
918.717	14172
918.828	14347
918.939	14328
919.05	14138
919.161	14176
919.272	14050
919.383	14138
919.494	14336
919.604	14423
919.715	14290
919.826	14149
919.936	14214
920.047	14317
920.157	14229
920.267	14431
920.378	14233
920.488	14183
920.598	14400
920.708	14537
920.818	14366
920.928	14362
921.038	14571
921.148	14511
921.258	14248
921.368	14161
921.477	14073
921.587	14012
921.697	13947
921.806	13970
921.916	13894
922.025	13708
922.134	13639
922.244	13708
922.353	13731
922.462	13616
922.571	13540
922.68	13407
922.789	13179
922.898	13331
923.007	13266
923.116	13331
923.224	13270
923.333	13236
923.442	13133
923.55	13141
923.659	13160
923.767	13228
923.876	13076
923.984	13171
924.092	12920
924.201	13053
924.309	13057
924.417	13118
924.525	12924
924.633	12966
924.741	13925
924.849	12783
924.956	12954
925.064	12795
925.172	12631
925.279	12673
925.387	12719
925.494	12627
925.602	12859
925.709	12837
925.816	12574
925.924	12711
926.031	12806
926.138	12673
926.245	12673
926.352	12612
926.459	12734
926.566	12738
926.673	12631
926.779	12464
926.886	12509
926.993	12353
927.099	12350
927.206	12239
927.312	12281
927.419	12251
927.525	12251
927.631	12209
927.737	12194
927.843	12148
927.95	11992
928.056	12083
928.162	12155
928.267	12171
928.373	12833
928.479	12277
928.585	12026
928.69	11988
928.796	12110
928.901	11965
929.007	11779
929.112	11984
929.218	12038
929.323	11863
929.428	11843
929.533	11920
929.638	11771
929.743	11760
929.848	11817
929.953	11798
930.058	11691
930.163	11535
930.267	11600
930.372	11688
930.477	11463
930.581	11779
930.685	11657
930.79	11387
930.894	11471
930.998	11467
931.103	11600
931.207	11258
931.311	11105
931.415	10957
931.519	10805
931.623	10782
