Data from test_V78500241_2701.txt Node
Date: Fri Mar 25 16:00:30 CST 2022
User: usil
Spectrometer: V785-0024
Trigger mode: 0
Integration Time (sec): 4.000000E-1
Scans to average: 1
Nonlinearity correction enabled: false
Boxcar width: 0
Storing dark spectrum: false
XAxis mode: Wavelengths
Number of Pixels in Spectrum: 1024
>>>>>Begin Spectral Data<<<<<
801.071	28675
801.214	28679
801.356	28436
801.499	28333
801.641	28295
801.783	28257
801.926	28409
802.068	28261
802.211	28219
802.353	28337
802.496	27998
802.638	27949
802.78	27983
802.923	27842
803.065	27934
803.208	27918
803.35	28074
803.492	28059
803.635	28192
803.777	28116
803.919	28421
804.061	28596
804.204	28329
804.346	28070
804.488	28078
804.63	28135
804.773	28093
804.915	28265
805.057	28356
805.199	28276
805.341	28306
805.483	28299
805.626	28341
805.768	28284
805.91	28341
806.052	28493
806.194	28261
806.336	28584
806.478	28432
806.62	28493
806.762	28504
806.904	28679
807.046	28938
807.188	28847
807.33	28828
807.472	28847
807.614	28786
807.756	28820
807.898	28797
808.04	28702
808.182	28569
808.324	28706
808.465	28710
808.607	29041
808.749	29086
808.891	29242
809.033	29254
809.174	29132
809.316	29147
809.458	28900
809.6	28858
809.741	29117
809.883	29258
810.025	29436
810.166	29303
810.308	29436
810.45	29220
810.591	29242
810.733	29124
810.875	29109
811.016	29067
811.158	28953
811.299	29105
811.441	29197
811.582	29258
811.724	29079
811.865	28942
812.007	29155
812.148	28934
812.29	29060
812.431	29216
812.573	29455
812.714	29414
812.855	29615
812.997	29627
813.138	29798
813.279	29722
813.421	29600
813.562	29531
813.703	29436
813.845	29356
813.986	28987
814.127	28858
814.268	28691
814.41	28626
814.551	28675
814.692	28953
814.833	28721
814.974	28656
815.115	28911
815.256	28656
815.397	28580
815.539	28675
815.68	28687
815.821	28462
815.962	28618
816.103	28527
816.244	28481
816.385	28455
816.526	28417
816.666	28246
816.807	28059
816.948	28036
817.089	28109
817.23	28185
817.371	28070
817.512	28067
817.653	28063
817.793	28124
817.934	28185
818.075	28139
818.216	28013
818.356	28154
818.497	27983
818.638	27888
818.778	27846
818.919	27888
819.06	27964
819.2	27934
819.341	27956
819.481	28238
819.622	28291
819.762	28417
819.903	28215
820.043	28341
820.184	28177
820.324	28238
820.465	28287
820.605	28287
820.746	28147
820.886	28112
821.026	28230
821.167	28207
821.307	28112
821.447	28253
821.588	28048
821.728	27934
821.868	27816
822.008	27542
822.149	27458
822.289	27568
822.429	27462
822.569	27260
822.709	27203
822.849	26933
822.99	27161
823.13	27047
823.27	26952
823.41	26952
823.55	26815
823.69	26845
823.83	26845
823.97	26830
824.11	26659
824.25	26724
824.389	26693
824.529	26773
824.669	26659
824.809	26686
824.949	26792
825.089	26777
825.228	26872
825.368	26511
825.508	26526
825.648	26621
825.787	26541
825.927	26659
826.067	26606
826.206	26629
826.346	26765
826.485	26727
826.625	26583
826.765	26705
826.904	26716
827.044	26343
827.183	26431
827.323	26305
827.462	26389
827.601	26271
827.741	26282
827.88	26240
828.02	26267
828.159	26309
828.298	26305
828.437	26453
828.577	26126
828.716	26476
828.855	26278
828.994	26100
829.134	26031
829.273	26020
829.412	26035
829.551	25944
829.69	26016
829.829	26145
829.968	26092
830.107	25906
830.246	26122
830.385	25959
830.524	25860
830.663	25940
830.802	25723
830.941	25571
831.08	25499
831.219	25677
831.357	25620
831.496	25807
831.635	25723
831.774	25613
831.913	25445
832.051	25422
832.19	25377
832.329	25491
832.467	25179
832.606	25217
832.744	25133
832.883	25285
833.022	25297
833.16	25175
833.299	25278
833.437	25327
833.576	25415
833.714	25343
833.852	25457
833.991	25297
834.129	25343
834.267	25487
834.406	25476
834.544	25327
834.682	25453
834.821	25415
834.959	25464
835.097	25308
835.235	25350
835.373	25259
835.511	25232
835.65	25141
835.788	25133
835.926	25080
836.064	24989
836.202	24973
836.34	25168
836.478	25168
836.615	25095
836.753	25129
836.891	25228
837.029	25050
837.167	25133
837.305	25137
837.443	25038
837.58	25008
837.718	25118
837.856	24985
837.993	25004
838.131	24951
838.269	24848
838.406	24825
838.544	24791
838.681	24722
838.819	24620
838.956	24551
839.094	24471
839.231	24475
839.369	24642
839.506	24943
839.643	24612
839.781	24475
839.918	24361
840.055	24464
840.193	24330
840.33	24361
840.467	24350
840.604	24426
840.742	24688
840.879	24216
841.016	24273
841.153	24281
841.29	24319
841.427	24330
841.564	24334
841.701	24228
841.838	24285
841.975	24171
842.112	24216
842.249	24178
842.385	24079
842.522	24319
842.659	24171
842.796	24133
842.933	24136
843.069	24159
843.206	24205
843.343	24133
843.479	24102
843.616	24159
843.752	23912
843.889	23961
844.025	24018
844.162	23737
844.298	23961
844.435	23870
844.571	23889
844.708	23901
844.844	24045
844.98	24087
845.117	23912
845.253	23764
845.389	23779
845.525	23889
845.661	23710
845.798	23547
845.934	23680
846.07	23634
846.206	23611
846.342	23748
846.478	23710
846.614	23395
846.75	23242
846.886	23364
847.022	23429
847.158	23376
847.294	23277
847.429	23440
847.565	23410
847.701	23554
847.837	22991
847.972	23075
848.108	23094
848.244	23242
848.379	22866
848.515	23033
848.65	22824
848.786	23033
848.921	22835
849.057	23006
849.192	22930
849.328	23033
849.463	23037
849.598	22835
849.734	22748
849.869	22809
850.004	22641
850.14	22866
850.275	22801
850.41	22656
850.545	22561
850.68	22622
850.815	22752
850.95	22641
851.085	22843
851.22	22782
851.355	22687
851.49	22664
851.625	22702
851.76	22664
851.895	22527
852.03	22637
852.165	22702
852.299	22698
852.434	22744
852.569	22892
852.703	22733
852.838	22672
852.973	22801
853.107	22702
853.242	22561
853.376	22485
853.511	22394
853.645	22504
853.78	22645
853.914	22470
854.048	22561
854.183	22432
854.317	22554
854.451	22687
854.585	22447
854.72	22550
854.854	22577
854.988	22523
855.122	22512
855.256	22314
855.39	22424
855.524	22485
855.658	22519
855.792	22436
855.926	22481
856.06	22603
856.194	22508
856.327	22577
856.461	22527
856.595	22409
856.729	22367
856.862	22596
856.996	22588
857.13	22561
857.263	22588
857.397	22542
857.53	22504
857.664	22694
857.797	22615
857.931	22557
858.064	22455
858.197	22561
858.331	22443
858.464	22436
858.597	22344
858.731	22337
858.864	22451
858.997	22466
859.13	22523
859.263	22516
859.396	22535
859.529	22577
859.662	22478
859.795	22424
859.928	22531
860.061	22592
860.194	22812
860.327	22451
860.46	22565
860.592	22630
860.725	22679
860.858	22679
860.99	22527
861.123	22466
861.256	22421
861.388	22516
861.521	23166
861.653	22356
861.786	22154
861.918	22329
862.05	22413
862.183	22371
862.315	22561
862.447	22504
862.58	22462
862.712	22249
862.844	22158
862.976	22253
863.108	22318
863.24	22752
863.372	22276
863.504	22234
863.636	22242
863.768	22268
863.9	22246
864.032	22150
864.164	22204
864.296	22265
864.428	22238
864.559	22261
864.691	22097
864.823	22257
864.954	22181
865.086	22150
865.217	22078
865.349	22051
865.48	22086
865.612	22055
865.743	22211
865.875	22200
866.006	22086
866.137	22036
866.269	22128
866.4	21960
866.531	22105
866.662	22044
866.793	22025
866.924	21987
867.055	22010
867.186	22032
867.317	22021
867.448	22013
867.579	21968
867.71	22082
867.841	21854
867.972	22032
868.103	21994
868.233	22032
868.364	22017
868.495	22120
868.625	22158
868.756	22234
868.886	22276
869.017	22211
869.147	22329
869.278	22413
869.408	22242
869.539	22188
869.669	22181
869.799	22367
869.929	22386
870.06	22242
870.19	22702
870.32	22527
870.45	22573
870.58	22527
870.71	22596
870.84	22637
870.97	22687
871.1	22538
871.23	22843
871.36	22755
871.489	22721
871.619	22900
871.749	22809
871.879	22889
872.008	23064
872.138	22881
872.267	22873
872.397	22691
872.526	22653
872.656	22721
872.785	22603
872.915	22831
873.044	22900
873.173	23022
873.303	22847
873.432	22896
873.561	22896
873.69	22999
873.819	22839
873.948	22957
874.077	22919
874.206	22824
874.335	22904
874.464	22923
874.593	23006
874.722	23227
874.851	23098
874.979	23102
875.108	23132
875.237	23075
875.365	22915
875.494	23075
875.623	23147
875.751	23113
875.88	23216
876.008	23254
876.136	23193
876.265	23421
876.393	23577
876.521	23444
876.65	23554
876.778	23505
876.906	23459
877.034	23436
877.162	23440
877.29	23402
877.418	23474
877.546	23471
877.674	23554
877.802	23356
877.93	23379
878.058	23353
878.185	23349
878.313	23334
878.441	23353
878.568	23296
878.696	23391
878.824	23551
878.951	23558
879.079	23646
879.206	23733
879.333	23600
879.461	23474
879.588	23493
879.715	23608
879.842	23813
879.97	23478
880.097	23417
880.224	23189
880.351	23189
880.478	23216
880.605	23242
880.732	23064
880.859	23452
880.986	23235
881.112	23265
881.239	23121
881.366	22858
881.493	22908
881.619	22949
881.746	22866
881.872	22930
881.999	22790
882.125	22850
882.252	22797
882.378	22767
882.505	22934
882.631	22588
882.757	22569
882.883	22538
883.01	22516
883.136	22443
883.262	22382
883.388	22405
883.514	22500
883.64	22459
883.766	22291
883.892	22207
884.018	22314
884.143	22398
884.269	22485
884.395	22154
884.52	22109
884.646	22150
884.772	22013
884.897	22013
885.023	22200
885.148	22200
885.274	22265
885.399	22226
885.524	22105
885.65	22169
885.775	22124
885.9	22128
886.025	22219
886.15	22204
886.275	22097
886.4	21998
886.525	22120
886.65	21964
886.775	22032
886.9	22276
887.025	22177
887.149	22105
887.274	21869
887.399	21873
887.523	21987
887.648	21846
887.773	21789
887.897	22013
888.021	21861
888.146	21857
888.27	21903
888.395	21892
888.519	21808
888.643	21884
888.767	21857
888.891	21751
889.015	21606
889.139	21747
889.263	21622
889.387	21743
889.511	21873
889.635	21808
889.759	21526
889.883	21736
890.006	21625
890.13	21831
890.254	21618
890.377	21606
890.501	21450
890.624	21340
890.748	21397
890.871	21306
890.995	21336
891.118	21093
891.241	21180
891.364	21104
891.488	21264
891.611	21138
891.734	21241
891.857	21157
891.98	21264
892.103	21226
892.226	21184
892.349	21157
892.471	21013
892.594	21108
892.717	21161
892.839	21116
892.962	21138
893.085	21245
893.207	21161
893.33	20861
893.452	21028
893.575	21169
893.697	21070
893.819	21195
893.941	21367
894.064	21249
894.186	21123
894.308	21051
894.43	21123
894.552	21287
894.674	21123
894.796	20982
894.918	21047
895.04	21096
895.161	21169
895.283	21020
895.405	21009
895.526	21001
895.648	21047
895.769	21085
895.891	21161
896.012	21119
896.134	21089
896.255	21085
896.376	20929
896.498	21062
896.619	21066
896.74	21180
896.861	21070
896.982	21485
897.103	21637
897.224	21359
897.345	21226
897.466	21249
897.587	21241
897.708	21325
897.828	21336
897.949	21135
898.07	21199
898.19	21310
898.311	21458
898.431	21325
898.552	21222
898.672	21424
898.792	21317
898.913	21199
899.033	21165
899.153	21150
899.273	20975
899.393	21043
899.513	21077
899.633	21055
899.753	21020
899.873	20960
899.993	20918
900.113	20842
900.232	20982
900.352	20921
900.472	20731
900.591	20849
900.711	21017
900.83	20743
900.95	20842
901.069	20876
901.189	20495
901.308	20381
901.427	20419
901.546	20377
901.665	20442
901.784	20419
901.904	20153
902.023	20195
902.141	19849
902.26	19845
902.379	19974
902.498	19898
902.617	19765
902.735	19913
902.854	19909
902.973	19746
903.091	19502
903.21	19537
903.328	19324
903.446	19362
903.565	19312
903.683	19335
903.801	19217
903.919	19285
904.038	19259
904.156	19076
904.274	19110
904.392	19099
904.51	19000
904.627	18981
904.745	19129
904.863	19008
904.981	18837
905.098	18707
905.216	18688
905.334	18711
905.451	18654
905.569	18589
905.686	18677
905.803	18722
905.921	18521
906.038	18574
906.155	18513
906.272	18441
906.389	18483
906.506	18197
906.623	18296
906.74	18334
906.857	18144
906.974	18216
907.091	18380
907.208	18384
907.324	18251
907.441	18155
907.557	17996
907.674	18007
907.79	17923
907.907	17942
908.023	17984
908.139	17984
908.256	17870
908.372	17923
908.488	17779
908.604	17726
908.72	17611
908.836	17714
908.952	17501
909.068	17684
909.184	17684
909.3	17649
909.415	17699
909.531	17634
909.647	17421
909.762	17444
909.878	17284
909.993	17303
910.108	17421
910.224	17360
910.339	17261
910.454	17181
910.57	17254
910.685	17109
910.8	17421
910.915	17178
911.03	17330
911.145	17098
911.259	16965
911.374	16930
911.489	16889
911.604	16778
911.718	16729
911.833	16793
911.947	16675
912.062	16512
912.176	16664
912.291	16679
912.405	16672
912.519	16839
912.633	16900
912.748	16793
912.862	16713
912.976	16584
913.09	16318
913.204	16512
913.318	16500
913.431	16584
913.545	16596
913.659	16675
913.772	16504
913.886	16185
914	16299
914.113	16329
914.226	16440
914.34	16367
914.453	16192
914.566	16341
914.68	16295
914.793	16185
914.906	15888
915.019	15945
915.132	15717
915.245	15865
915.358	15884
915.47	15968
915.583	15808
915.696	15895
915.809	16032
915.921	16010
916.034	15827
916.146	15713
916.259	15698
916.371	15778
916.483	15873
916.595	15694
916.708	15663
916.82	15679
916.932	15743
917.044	15698
917.156	15637
917.268	15477
917.38	15595
917.491	15405
917.603	15534
917.715	15599
917.826	15584
917.938	15473
918.049	15241
918.161	15439
918.272	15500
918.384	15507
918.495	15321
918.606	15386
918.717	15100
918.828	15230
918.939	15264
919.05	15138
919.161	15184
919.272	15066
919.383	15146
919.494	15237
919.604	15397
919.715	15165
919.826	15150
919.936	15287
920.047	15188
920.157	15055
920.267	15363
920.378	15211
920.488	15173
920.598	15336
920.708	15439
920.818	15416
920.928	15317
921.038	15534
921.148	15340
921.258	15081
921.368	15039
921.477	14986
921.587	14861
921.697	14769
921.806	14948
921.916	14765
922.025	14667
922.134	14537
922.244	14396
922.353	14552
922.462	14457
922.571	14320
922.68	14256
922.789	14142
922.898	14271
923.007	14149
923.116	14199
923.224	14225
923.333	14183
923.442	14100
923.55	14046
923.659	14069
923.767	14134
923.876	13909
923.984	14020
924.092	13909
924.201	13906
924.309	13925
924.417	13951
924.525	13887
924.633	13841
924.741	14792
924.849	13662
924.956	13814
925.064	13578
925.172	13586
925.279	13563
925.387	13537
925.494	13533
925.602	13689
925.709	13594
925.816	13453
925.924	13476
926.031	13578
926.138	13434
926.245	13521
926.352	13464
926.459	13476
926.566	13616
926.673	13426
926.779	13175
926.886	13358
926.993	13168
927.099	13164
927.206	13107
927.312	13095
927.419	13118
927.525	13027
927.631	13118
927.737	12951
927.843	12951
927.95	12939
928.056	12993
928.162	12966
928.267	12966
928.373	13464
928.479	13080
928.585	12677
928.69	12882
928.796	12897
928.901	12768
929.007	12589
929.112	12734
929.218	12768
929.323	12642
929.428	12566
929.533	12814
929.638	12479
929.743	12578
929.848	12498
929.953	12620
930.058	12399
930.163	12190
930.267	12342
930.372	12395
930.477	12213
930.581	12464
930.685	12315
930.79	12201
930.894	12209
930.998	12201
931.103	12273
931.207	11882
931.311	11764
931.415	11695
931.519	11589
931.623	11547
