Data from test_V78500241_2387.txt Node
Date: Fri Mar 25 15:58:20 CST 2022
User: usil
Spectrometer: V785-0024
Trigger mode: 0
Integration Time (sec): 4.000000E-1
Scans to average: 1
Nonlinearity correction enabled: false
Boxcar width: 0
Storing dark spectrum: false
XAxis mode: Wavelengths
Number of Pixels in Spectrum: 1024
>>>>>Begin Spectral Data<<<<<
801.071	28710
801.214	28672
801.356	28493
801.499	28421
801.641	28333
801.783	28337
801.926	28325
802.068	28356
802.211	28226
802.353	28192
802.496	28029
802.638	28086
802.78	27987
802.923	27781
803.065	28051
803.208	27918
803.35	28112
803.492	28051
803.635	28291
803.777	28181
803.919	28272
804.061	28424
804.204	28329
804.346	28272
804.488	28086
804.63	28147
804.773	28280
804.915	28352
805.057	28390
805.199	28200
805.341	28440
805.483	28303
805.626	28276
805.768	28223
805.91	28306
806.052	28512
806.194	28306
806.336	28557
806.478	28451
806.62	28447
806.762	28668
806.904	28645
807.046	28828
807.188	28729
807.33	28805
807.472	28965
807.614	28839
807.756	28961
807.898	28869
808.04	28740
808.182	28839
808.324	28805
808.465	28797
808.607	28858
808.749	29109
808.891	29170
809.033	29341
809.174	29140
809.316	29143
809.458	29189
809.6	29071
809.741	29204
809.883	29299
810.025	29360
810.166	29360
810.308	29417
810.45	29315
810.591	29349
810.733	29181
810.875	29121
811.016	29044
811.158	29098
811.299	29132
811.441	29269
811.582	29296
811.724	29174
811.865	29200
812.007	29083
812.148	29155
812.29	29140
812.431	29208
812.573	29448
812.714	29554
812.855	29600
812.997	29752
813.138	29741
813.279	29889
813.421	29657
813.562	29482
813.703	29543
813.845	29421
813.986	29105
814.127	28881
814.268	28793
814.41	28869
814.551	28694
814.692	28930
814.833	28717
814.974	28782
815.115	28888
815.256	28706
815.397	28660
815.539	28573
815.68	28603
815.821	28470
815.962	28599
816.103	28679
816.244	28485
816.385	28531
816.526	28299
816.666	28162
816.807	28200
816.948	28215
817.089	28272
817.23	28173
817.371	28131
817.512	28147
817.653	28124
817.793	28109
817.934	28105
818.075	28105
818.216	28246
818.356	27983
818.497	28124
818.638	27861
818.778	27770
818.919	27895
819.06	28048
819.2	28029
819.341	28204
819.481	28105
819.622	28284
819.762	28470
819.903	28333
820.043	28360
820.184	28181
820.324	28200
820.465	28424
820.605	28382
820.746	28257
820.886	28059
821.026	28371
821.167	28314
821.307	28341
821.447	28295
821.588	28131
821.728	28032
821.868	27880
822.008	27675
822.149	27724
822.289	27622
822.429	27443
822.569	27283
822.709	27397
822.849	27233
822.99	27207
823.13	27233
823.27	26982
823.41	26940
823.55	26750
823.69	26967
823.83	26967
823.97	26845
824.11	26826
824.25	26678
824.389	26788
824.529	26864
824.669	26807
824.809	26849
824.949	26659
825.089	26895
825.228	26895
825.368	26712
825.508	26590
825.648	26712
825.787	26773
825.927	26670
826.067	26720
826.206	26636
826.346	26621
826.485	26712
826.625	26530
826.765	26693
826.904	26640
827.044	26434
827.183	26476
827.323	26374
827.462	26457
827.601	26355
827.741	26324
827.88	26396
828.02	26305
828.159	26385
828.298	26408
828.437	26389
828.577	26275
828.716	26511
828.855	26358
828.994	26081
829.134	26153
829.273	26020
829.412	25993
829.551	26027
829.69	26172
829.829	26027
829.968	26138
830.107	26027
830.246	26073
830.385	25989
830.524	26050
830.663	25845
830.802	25875
830.941	25715
831.08	25731
831.219	25696
831.357	25940
831.496	25795
831.635	25715
831.774	25499
831.913	25483
832.051	25365
832.19	25430
832.329	25483
832.467	25247
832.606	25362
832.744	25221
832.883	25274
833.022	25225
833.16	25358
833.299	25369
833.437	25346
833.576	25358
833.714	25266
833.852	25548
833.991	25449
834.129	25510
834.267	25346
834.406	25449
834.544	25472
834.682	25388
834.821	25255
834.959	25483
835.097	25213
835.235	25396
835.373	25411
835.511	25301
835.65	25358
835.788	25168
835.926	25046
836.064	25065
836.202	25027
836.34	25194
836.478	25316
836.615	25240
836.753	25126
836.891	25160
837.029	25263
837.167	25099
837.305	24996
837.443	25129
837.58	25076
837.718	25164
837.856	25141
837.993	25015
838.131	25118
838.269	24901
838.406	24970
838.544	24837
838.681	24715
838.819	24707
838.956	24494
839.094	24544
839.231	24688
839.369	24734
839.506	24768
839.643	24745
839.781	24452
839.918	24433
840.055	24486
840.193	24361
840.33	24479
840.467	24471
840.604	24460
840.742	24601
840.879	24220
841.016	24353
841.153	24232
841.29	24376
841.427	24418
841.564	24445
841.701	24273
841.838	24327
841.975	24270
842.112	24277
842.249	24239
842.385	24163
842.522	24502
842.659	24251
842.796	24110
842.933	24243
843.069	24209
843.206	24152
843.343	24262
843.479	24197
843.616	24152
843.752	23935
843.889	23923
844.025	24167
844.162	23958
844.298	23980
844.435	23992
844.571	23893
844.708	24049
844.844	24007
844.98	24129
845.117	24053
845.253	23828
845.389	23775
845.525	23775
845.661	23809
845.798	23642
845.934	23707
846.07	23718
846.206	23646
846.342	23790
846.478	23714
846.614	23471
846.75	23387
846.886	23478
847.022	23410
847.158	23410
847.294	23372
847.429	23406
847.565	23372
847.701	23623
847.837	23235
847.972	23067
848.108	23178
848.244	23265
848.379	22987
848.515	23029
848.65	22984
848.786	23029
848.921	23140
849.057	23052
849.192	23178
849.328	23014
849.463	22919
849.598	22927
849.734	22949
849.869	22866
850.004	22809
850.14	22809
850.275	22953
850.41	22615
850.545	22683
850.68	22793
850.815	22618
850.95	22771
851.085	22854
851.22	22877
851.355	22763
851.49	22691
851.625	22630
851.76	22831
851.895	22698
852.03	22683
852.165	22755
852.299	22744
852.434	22744
852.569	22729
852.703	22733
852.838	22866
852.973	22869
853.107	22991
853.242	22675
853.376	22577
853.511	22527
853.645	22478
853.78	22698
853.914	22573
854.048	22596
854.183	22561
854.317	22561
854.451	22774
854.585	22485
854.72	22615
854.854	22577
854.988	22459
855.122	22592
855.256	22489
855.39	22470
855.524	22717
855.658	22649
855.792	22573
855.926	22656
856.06	22618
856.194	22687
856.327	22565
856.461	22504
856.595	22542
856.729	22516
856.862	22706
856.996	22577
857.13	22546
857.263	22687
857.397	22660
857.53	22637
857.664	22550
857.797	22554
857.931	22649
858.064	22508
858.197	22634
858.331	22599
858.464	22405
858.597	22535
858.731	22443
858.864	22481
858.997	22516
859.13	22618
859.263	22630
859.396	22523
859.529	22554
859.662	22481
859.795	22489
859.928	22516
860.061	22588
860.194	22679
860.327	22615
860.46	22668
860.592	22622
860.725	22774
860.858	22835
860.99	22573
861.123	22493
861.256	22519
861.388	22527
861.521	23246
861.653	22413
861.786	22489
861.918	22390
862.05	22523
862.183	22432
862.315	22603
862.447	22664
862.58	22523
862.712	22310
862.844	22166
862.976	22424
863.108	22394
863.24	22645
863.372	22162
863.504	22207
863.636	22318
863.768	22287
863.9	22268
864.032	22284
864.164	22303
864.296	22272
864.428	22398
864.559	22371
864.691	22322
864.823	22322
864.954	22230
865.086	22242
865.217	22242
865.349	22116
865.48	22192
865.612	22120
865.743	22276
865.875	22112
866.006	22181
866.137	22234
866.269	22192
866.4	22158
866.531	21994
866.662	22158
866.793	22029
866.924	22131
867.055	22128
867.186	22128
867.317	21975
867.448	22032
867.579	22097
867.71	21991
867.841	22105
867.972	22013
868.103	22124
868.233	22040
868.364	22097
868.495	22162
868.625	22322
868.756	22436
868.886	22284
869.017	22322
869.147	22481
869.278	22516
869.408	22295
869.539	22333
869.669	22333
869.799	22363
869.929	22546
870.06	22451
870.19	22664
870.32	22649
870.45	22603
870.58	22622
870.71	22896
870.84	22809
870.97	22843
871.1	22820
871.23	22805
871.36	23006
871.489	22702
871.619	22949
871.749	22801
871.879	22900
872.008	23006
872.138	23014
872.267	22942
872.397	22831
872.526	22812
872.656	22763
872.785	22634
872.915	22858
873.044	23052
873.173	22835
873.303	23060
873.432	23060
873.561	22957
873.69	22942
873.819	22866
873.948	23117
874.077	22972
874.206	22869
874.335	22953
874.464	22995
874.593	23166
874.722	23109
874.851	23216
874.979	23208
875.108	23102
875.237	23151
875.365	23048
875.494	23037
875.623	23193
875.751	23067
875.88	23181
876.008	23345
876.136	23341
876.265	23668
876.393	23741
876.521	23623
876.65	23592
876.778	23528
876.906	23417
877.034	23581
877.162	23448
877.29	23421
877.418	23535
877.546	23444
877.674	23509
877.802	23554
877.93	23459
878.058	23395
878.185	23273
878.313	23467
878.441	23345
878.568	23242
878.696	23341
878.824	23433
878.951	23630
879.079	23718
879.206	23726
879.333	23710
879.461	23505
879.588	23535
879.715	23608
879.842	23779
879.97	23512
880.097	23383
880.224	23216
880.351	23334
880.478	23200
880.605	23227
880.732	23254
880.859	23463
880.986	23037
881.112	23360
881.239	23174
881.366	23090
881.493	22942
881.619	22980
881.746	22847
881.872	22873
881.999	22801
882.125	22797
882.252	22866
882.378	22824
882.505	22995
882.631	22733
882.757	22569
882.883	22550
883.01	22603
883.136	22603
883.262	22402
883.388	22306
883.514	22485
883.64	22531
883.766	22424
883.892	22337
884.018	22424
884.143	22337
884.269	22603
884.395	22341
884.52	22135
884.646	22234
884.772	22147
884.897	22013
885.023	22238
885.148	22257
885.274	22341
885.399	22246
885.524	22204
885.65	22166
885.775	22120
885.9	22158
886.025	22272
886.15	22147
886.275	22162
886.4	22021
886.525	22177
886.65	22086
886.775	22070
886.9	22219
887.025	22257
887.149	22207
887.274	22013
887.399	21941
887.523	21842
887.648	21915
887.773	21915
887.897	21941
888.021	22124
888.146	21816
888.27	22032
888.395	22051
888.519	21994
888.643	21869
888.767	21960
888.891	21751
889.015	21736
889.139	21698
889.263	21637
889.387	21800
889.511	21922
889.635	21850
889.759	21759
889.883	21717
890.006	21637
890.13	21679
890.254	21663
890.377	21736
890.501	21454
890.624	21477
890.748	21504
890.871	21283
890.995	21230
891.118	21306
891.241	21310
891.364	21169
891.488	21439
891.611	21298
891.734	21329
891.857	21249
891.98	21180
892.103	21363
892.226	21093
892.349	21180
892.471	21009
892.594	21249
892.717	21256
892.839	21108
892.962	21226
893.085	21154
893.207	21237
893.33	21112
893.452	21150
893.575	21116
893.697	21077
893.819	21355
893.941	21252
894.064	21393
894.186	21093
894.308	21150
894.43	21203
894.552	21317
894.674	21218
894.796	21043
894.918	21146
895.04	21154
895.161	21272
895.283	21218
895.405	21032
895.526	21249
895.648	21138
895.769	21116
895.891	21272
896.012	21268
896.134	21233
896.255	21081
896.376	21207
896.498	21195
896.619	21184
896.74	20967
896.861	21260
896.982	21439
897.103	21637
897.224	21310
897.345	21363
897.466	21226
897.587	21313
897.708	21545
897.828	21359
897.949	21131
898.07	21085
898.19	21249
898.311	21420
898.431	21325
898.552	21313
898.672	21367
898.792	21408
898.913	21317
899.033	21241
899.153	21081
899.273	21047
899.393	21051
899.513	21207
899.633	21116
899.753	21142
899.873	20998
899.993	20998
900.113	20967
900.232	20948
900.352	20929
900.472	20918
900.591	20826
900.711	20891
900.83	20781
900.95	20849
901.069	20952
901.189	20682
901.308	20358
901.427	20358
901.546	20438
901.665	20431
901.784	20393
901.904	20282
902.023	20256
902.141	19921
902.26	19982
902.379	20016
902.498	19913
902.617	19799
902.735	19868
902.854	19830
902.973	19822
903.091	19662
903.21	19514
903.328	19483
903.446	19464
903.565	19381
903.683	19301
903.801	19324
903.919	19343
904.038	19407
904.156	19148
904.274	19190
904.392	18966
904.51	19072
904.627	19209
904.745	19225
904.863	19217
904.981	18863
905.098	18814
905.216	18806
905.334	18757
905.451	18745
905.569	18661
905.686	18856
905.803	18806
905.921	18589
906.038	18631
906.155	18566
906.272	18471
906.389	18342
906.506	18300
906.623	18357
906.74	18281
906.857	18228
906.974	18266
907.091	18357
907.208	18391
907.324	18232
907.441	18186
907.557	18003
907.674	18068
907.79	18022
907.907	18007
908.023	17912
908.139	17927
908.256	17946
908.372	17885
908.488	17950
908.604	17661
908.72	17653
908.836	17779
908.952	17722
909.068	17729
909.184	17821
909.3	17745
909.415	17714
909.531	17634
909.647	17410
909.762	17520
909.878	17379
909.993	17410
910.108	17376
910.224	17391
910.339	17516
910.454	17239
910.57	17292
910.685	17143
910.8	17471
910.915	17376
911.03	17303
911.145	17029
911.259	17052
911.374	17105
911.489	16858
911.604	16850
911.718	16622
911.833	16771
911.947	16778
912.062	16691
912.176	16782
912.291	16717
912.405	16675
912.519	16911
912.633	16991
912.748	16778
912.862	16691
912.976	16664
913.09	16470
913.204	16531
913.318	16577
913.431	16512
913.545	16603
913.659	16626
913.772	16443
913.886	16466
914	16253
914.113	16390
914.226	16470
914.34	16421
914.453	16128
914.566	16375
914.68	16215
914.793	16143
914.906	16036
915.019	15991
915.132	15819
915.245	15949
915.358	15945
915.47	15861
915.583	15869
915.696	15949
915.809	15968
915.921	16162
916.034	15819
916.146	15854
916.259	15808
916.371	15827
916.483	15835
916.595	15770
916.708	15732
916.82	15698
916.932	15614
917.044	15660
917.156	15675
917.268	15663
917.38	15591
917.491	15469
917.603	15584
917.715	15530
917.826	15705
917.938	15580
918.049	15416
918.161	15576
918.272	15572
918.384	15599
918.495	15450
918.606	15272
918.717	15207
918.828	15192
918.939	15317
919.05	15199
919.161	15294
919.272	15104
919.383	15135
919.494	15306
919.604	15458
919.715	15195
919.826	15218
919.936	15283
920.047	15317
920.157	15268
920.267	15439
920.378	15203
920.488	15119
920.598	15389
920.708	15416
920.818	15393
920.928	15298
921.038	15603
921.148	15496
921.258	15108
921.368	15055
921.477	14910
921.587	14906
921.697	14834
921.806	14891
921.916	14792
922.025	14613
922.134	14613
922.244	14568
922.353	14667
922.462	14454
922.571	14488
922.68	14244
922.789	14191
922.898	14267
923.007	14142
923.116	14271
923.224	14172
923.333	14176
923.442	14100
923.55	14035
923.659	13993
923.767	14050
923.876	14016
923.984	14001
924.092	13944
924.201	13955
924.309	13944
924.417	13959
924.525	13883
924.633	13898
924.741	14857
924.849	13727
924.956	13753
925.064	13552
925.172	13605
925.279	13601
925.387	13662
925.494	13559
925.602	13658
925.709	13571
925.816	13453
925.924	13613
926.031	13556
926.138	13464
926.245	13594
926.352	13483
926.459	13578
926.566	13575
926.673	13510
926.779	13335
926.886	13362
926.993	13179
927.099	13160
927.206	13160
927.312	13156
927.419	13156
927.525	13088
927.631	13126
927.737	13107
927.843	13023
927.95	12878
928.056	12928
928.162	12962
928.267	13023
928.373	13601
928.479	12947
928.585	12711
928.69	12882
928.796	12947
928.901	12810
929.007	12730
929.112	12726
929.218	12722
929.323	12669
929.428	12654
929.533	12806
929.638	12646
929.743	12722
929.848	12608
929.953	12604
930.058	12517
930.163	12308
930.267	12391
930.372	12448
930.477	12239
930.581	12544
930.685	12311
930.79	12239
930.894	12178
930.998	12273
931.103	12296
931.207	11916
931.311	11855
931.415	11767
931.519	11486
931.623	11634
