Data from test_V78500241_475.txt Node
Date: Fri Mar 25 15:45:05 CST 2022
User: usil
Spectrometer: V785-0024
Trigger mode: 0
Integration Time (sec): 4.000000E-1
Scans to average: 1
Nonlinearity correction enabled: false
Boxcar width: 0
Storing dark spectrum: false
XAxis mode: Wavelengths
Number of Pixels in Spectrum: 1024
>>>>>Begin Spectral Data<<<<<
801.071	27724
801.214	27660
801.356	27515
801.499	27348
801.641	27226
801.783	27154
801.926	27294
802.068	27176
802.211	27154
802.353	27203
802.496	26849
802.638	26887
802.78	26724
802.923	26750
803.065	26689
803.208	26781
803.35	26655
803.492	26811
803.635	26868
803.777	26823
803.919	26933
804.061	27249
804.204	27028
804.346	26906
804.488	26891
804.63	26876
804.773	26891
804.915	26910
805.057	27081
805.199	26952
805.341	27077
805.483	27062
805.626	26944
805.768	26948
805.91	27039
806.052	27051
806.194	27119
806.336	27226
806.478	27157
806.62	27127
806.762	27188
806.904	27218
807.046	27736
807.188	27648
807.33	27538
807.472	27454
807.614	27412
807.756	27386
807.898	27348
808.04	27268
808.182	27264
808.324	27340
808.465	27386
808.607	27458
808.749	27713
808.891	27838
809.033	28013
809.174	27880
809.316	27766
809.458	27736
809.6	27770
809.741	27903
809.883	27892
810.025	27873
810.166	27975
810.308	27888
810.45	28006
810.591	28044
810.733	27663
810.875	27652
811.016	27690
811.158	27633
811.299	27880
811.441	27975
811.582	27766
811.724	27800
811.865	27606
812.007	27591
812.148	27781
812.29	27717
812.431	27819
812.573	28013
812.714	28036
812.855	28322
812.997	28280
813.138	28516
813.279	28333
813.421	28287
813.562	28280
813.703	28063
813.845	27922
813.986	27622
814.127	27450
814.268	27340
814.41	27336
814.551	27317
814.692	27481
814.833	27313
814.974	27211
815.115	27374
815.256	27039
815.397	27233
815.539	27310
815.68	27359
815.821	27127
815.962	27150
816.103	27047
816.244	27119
816.385	26952
816.526	26830
816.666	26724
816.807	26579
816.948	26716
817.089	26724
817.23	26689
817.371	26758
817.512	26518
817.653	26526
817.793	26632
817.934	26655
818.075	26579
818.216	26530
818.356	26583
818.497	26564
818.638	26389
818.778	26328
818.919	26492
819.06	26362
819.2	26484
819.341	26629
819.481	26575
819.622	26861
819.762	26975
819.903	26979
820.043	26872
820.184	26693
820.324	26674
820.465	26731
820.605	26788
820.746	26670
820.886	26560
821.026	26613
821.167	26712
821.307	26834
821.447	26480
821.588	26552
821.728	26419
821.868	26183
822.008	26187
822.149	26107
822.289	26039
822.429	25772
822.569	25826
822.709	25871
822.849	25464
822.99	25575
823.13	25559
823.27	25434
823.41	25476
823.55	25316
823.69	25339
823.83	25373
823.97	25301
824.11	25240
824.25	25209
824.389	25137
824.529	25377
824.669	25148
824.809	25377
824.949	25403
825.089	25301
825.228	25377
825.368	25107
825.508	25118
825.648	25133
825.787	25118
825.927	25099
826.067	25000
826.206	25072
826.346	25198
826.485	25194
826.625	25202
826.765	25209
826.904	25183
827.044	24840
827.183	24962
827.323	24722
827.462	24905
827.601	24711
827.741	24760
827.88	24833
828.02	24741
828.159	24715
828.298	24852
828.437	24863
828.577	24852
828.716	24814
828.855	24757
828.994	24483
829.134	24544
829.273	24479
829.412	24452
829.551	24445
829.69	24578
829.829	24582
829.968	24707
830.107	24464
830.246	24650
830.385	24555
830.524	24334
830.663	24281
830.802	24243
830.941	24148
831.08	24117
831.219	24144
831.357	24209
831.496	24323
831.635	24034
831.774	24102
831.913	23931
832.051	23935
832.19	23847
832.329	23942
832.467	23760
832.606	23707
832.744	23707
832.883	23863
833.022	23790
833.16	23745
833.299	23855
833.437	23741
833.576	23927
833.714	23798
833.852	23931
833.991	23946
834.129	23870
834.267	23866
834.406	23802
834.544	23901
834.682	23722
834.821	23760
834.959	24072
835.097	23687
835.235	23843
835.373	23809
835.511	23805
835.65	23653
835.788	23760
835.926	23501
836.064	23471
836.202	23577
836.34	23615
836.478	23703
836.615	23535
836.753	23665
836.891	23748
837.029	23691
837.167	23687
837.305	23520
837.443	23486
837.58	23543
837.718	23539
837.856	23516
837.993	23478
838.131	23474
838.269	23261
838.406	23497
838.544	23376
838.681	23090
838.819	23136
838.956	22946
839.094	22923
839.231	23079
839.369	23018
839.506	23239
839.643	23250
839.781	23155
839.918	22866
840.055	22930
840.193	22915
840.33	22949
840.467	22949
840.604	23044
840.742	23170
840.879	22866
841.016	22801
841.153	22748
841.29	22980
841.427	22885
841.564	22919
841.701	22862
841.838	22987
841.975	22790
842.112	22717
842.249	22736
842.385	22717
842.522	22900
842.659	22675
842.796	22508
842.933	22649
843.069	22485
843.206	22561
843.343	22721
843.479	22615
843.616	22512
843.752	22527
843.889	22413
844.025	22489
844.162	22363
844.298	22485
844.435	22424
844.571	22382
844.708	22352
844.844	22398
844.98	22519
845.117	22649
845.253	22318
845.389	22344
845.525	22204
845.661	22147
845.798	22147
845.934	22238
846.07	22124
846.206	22306
846.342	22253
846.478	22101
846.614	21926
846.75	21865
846.886	21789
847.022	21797
847.158	21835
847.294	21869
847.429	21876
847.565	21869
847.701	22055
847.837	21557
847.972	21542
848.108	21610
848.244	21599
848.379	21595
848.515	21473
848.65	21359
848.786	21515
848.921	21454
849.057	21583
849.192	21538
849.328	21523
849.463	21458
849.598	21515
849.734	21329
849.869	21382
850.004	21222
850.14	21241
850.275	21306
850.41	21001
850.545	21180
850.68	21150
850.815	21195
850.95	21214
851.085	21294
851.22	21393
851.355	21340
851.49	21199
851.625	21283
851.76	21245
851.895	21207
852.03	21157
852.165	21230
852.299	21195
852.434	21241
852.569	21325
852.703	21199
852.838	21348
852.973	21378
853.107	21344
853.242	21119
853.376	21043
853.511	20918
853.645	21001
853.78	20986
853.914	21058
854.048	20982
854.183	20994
854.317	21066
854.451	21268
854.585	21005
854.72	20975
854.854	21135
854.988	21020
855.122	21013
855.256	20842
855.39	20982
855.524	21142
855.658	21135
855.792	21176
855.926	21093
856.06	21104
856.194	21074
856.327	20971
856.461	21039
856.595	21055
856.729	20925
856.862	21096
856.996	21013
857.13	21188
857.263	21081
857.397	21077
857.53	20975
857.664	21188
857.797	21135
857.931	21089
858.064	21055
858.197	21093
858.331	21116
858.464	21043
858.597	20883
858.731	21032
858.864	21051
858.997	21077
859.13	21043
859.263	21104
859.396	21119
859.529	21032
859.662	20925
859.795	21066
859.928	20971
860.061	21169
860.194	21310
860.327	21119
860.46	21047
860.592	21173
860.725	21199
860.858	21176
860.99	21135
861.123	20971
861.256	21036
861.388	21066
861.521	21755
861.653	20887
861.786	20845
861.918	20921
862.05	20857
862.183	20990
862.315	20944
862.447	20971
862.58	21001
862.712	20777
862.844	20819
862.976	20872
863.108	20826
863.24	21184
863.372	20579
863.504	20815
863.636	20891
863.768	20849
863.9	20727
864.032	20636
864.164	20796
864.296	20826
864.428	20880
864.559	20914
864.691	20823
864.823	20682
864.954	20754
865.086	20773
865.217	20663
865.349	20533
865.48	20667
865.612	20655
865.743	20807
865.875	20636
866.006	20583
866.137	20606
866.269	20712
866.4	20667
866.531	20644
866.662	20545
866.793	20518
866.924	20514
867.055	20590
867.186	20621
867.317	20568
867.448	20522
867.579	20594
867.71	20583
867.841	20541
867.972	20579
868.103	20492
868.233	20568
868.364	20640
868.495	20765
868.625	20853
868.756	20902
868.886	20735
869.017	20796
869.147	20998
869.278	20986
869.408	20960
869.539	20883
869.669	20960
869.799	20842
869.929	20918
870.06	20819
870.19	21173
870.32	21074
870.45	21195
870.58	21173
870.71	21199
870.84	21241
870.97	21310
871.1	21226
871.23	21359
871.36	21523
871.489	21329
871.619	21351
871.749	21351
871.879	21431
872.008	21450
872.138	21473
872.267	21374
872.397	21233
872.526	21359
872.656	21237
872.785	21329
872.915	21416
873.044	21504
873.173	21458
873.303	21447
873.432	21439
873.561	21561
873.69	21466
873.819	21401
873.948	21561
874.077	21313
874.206	21420
874.335	21431
874.464	21507
874.593	21743
874.722	21625
874.851	21698
874.979	21899
875.108	21671
875.237	21648
875.365	21568
875.494	21743
875.623	21713
875.751	21675
875.88	21641
876.008	21774
876.136	21865
876.265	22150
876.393	22196
876.521	22105
876.65	22230
876.778	22112
876.906	22013
877.034	22074
877.162	22013
877.29	21964
877.418	21979
877.546	21964
877.674	21960
877.802	22059
877.93	22086
878.058	22101
878.185	21922
878.313	21945
878.441	22101
878.568	21857
878.696	21918
878.824	22044
878.951	22109
879.079	22124
879.206	22329
879.333	22234
879.461	22158
879.588	22131
879.715	22143
879.842	22291
879.97	22074
880.097	21895
880.224	21884
880.351	21907
880.478	21899
880.605	21671
880.732	21899
880.859	22143
880.986	21846
881.112	21892
881.239	21762
881.366	21644
881.493	21462
881.619	21466
881.746	21428
881.872	21424
881.999	21317
882.125	21405
882.252	21507
882.378	21374
882.505	21462
882.631	21275
882.757	21203
882.883	21264
883.01	21176
883.136	21093
883.262	21013
883.388	21055
883.514	21116
883.64	21154
883.766	21116
883.892	20952
884.018	20941
884.143	21055
884.269	21093
884.395	20906
884.52	20781
884.646	20826
884.772	20686
884.897	20807
885.023	20845
885.148	20872
885.274	20887
885.399	20823
885.524	20815
885.65	20872
885.775	20746
885.9	20781
886.025	20895
886.15	20804
886.275	20849
886.4	20670
886.525	20765
886.65	20739
886.775	20750
886.9	20853
887.025	20975
887.149	20785
887.274	20541
887.399	20636
887.523	20579
887.648	20571
887.773	20465
887.897	20602
888.021	20571
888.146	20507
888.27	20731
888.395	20613
888.519	20587
888.643	20659
888.767	20670
888.891	20461
889.015	20412
889.139	20446
889.263	20347
889.387	20522
889.511	20613
889.635	20503
889.759	20298
889.883	20389
890.006	20320
890.13	20457
890.254	20202
890.377	20278
890.501	20088
890.624	20210
890.748	20172
890.871	19917
890.995	19871
891.118	19822
891.241	19959
891.364	19826
891.488	19989
891.611	19932
891.734	19898
891.857	19925
891.98	19989
892.103	19947
892.226	19940
892.349	19879
892.471	19666
892.594	19849
892.717	20001
892.839	19879
892.962	19845
893.085	19883
893.207	19830
893.33	19837
893.452	19822
893.575	19868
893.697	19856
893.819	19947
893.941	19913
894.064	19898
894.186	19784
894.308	19746
894.43	19936
894.552	19989
894.674	19833
894.796	19727
894.918	19849
895.04	19784
895.161	19890
895.283	19791
895.405	19769
895.526	19849
895.648	19849
895.769	19932
895.891	19902
896.012	19982
896.134	19864
896.255	19925
896.376	19803
896.498	19921
896.619	19856
896.74	19921
896.861	19845
896.982	20172
897.103	20259
897.224	20195
897.345	20130
897.466	20069
897.587	20100
897.708	20130
897.828	20138
897.949	20012
898.07	19974
898.19	19913
898.311	20149
898.431	20001
898.552	20077
898.672	20218
898.792	20145
898.913	20058
899.033	19879
899.153	19864
899.273	19704
899.393	19761
899.513	19944
899.633	19757
899.753	19845
899.873	19681
899.993	19833
900.113	19791
900.232	19776
900.352	19776
900.472	19700
900.591	19635
900.711	19632
900.83	19556
900.95	19845
901.069	19723
901.189	19480
901.308	19301
901.427	19320
901.546	19236
901.665	19320
901.784	19168
901.904	19015
902.023	18973
902.141	18848
902.26	18810
902.379	18837
902.498	18646
902.617	18745
902.735	18760
902.854	18635
902.973	18574
903.091	18384
903.21	18403
903.328	18296
903.446	18277
903.565	18228
903.683	18216
903.801	17980
903.919	18152
904.038	18155
904.156	18026
904.274	17935
904.392	17923
904.51	17996
904.627	17950
904.745	18064
904.863	17931
904.981	17722
905.098	17646
905.216	17642
905.334	17653
905.451	17748
905.569	17551
905.686	17665
905.803	17634
905.921	17406
906.038	17474
906.155	17379
906.272	17360
906.389	17265
906.506	17246
906.623	17166
906.74	17109
906.857	16999
906.974	17143
907.091	17140
907.208	17326
907.324	17151
907.441	16953
907.557	16835
907.674	16938
907.79	16828
907.907	16877
908.023	16877
908.139	16934
908.256	16889
908.372	16744
908.488	16778
908.604	16542
908.72	16565
908.836	16615
908.952	16698
909.068	16672
909.184	16763
909.3	16679
909.415	16774
909.531	16531
909.647	16363
909.762	16287
909.878	16333
909.993	16322
910.108	16246
910.224	16344
910.339	16284
910.454	16215
910.57	16032
910.685	16196
910.8	16417
910.915	16219
911.03	16086
911.145	15983
911.259	15903
911.374	15899
911.489	15812
911.604	15739
911.718	15652
911.833	15739
911.947	15504
912.062	15557
912.176	15603
912.291	15709
912.405	15728
912.519	15873
912.633	15823
912.748	15713
912.862	15587
912.976	15454
913.09	15332
913.204	15397
913.318	15526
913.431	15511
913.545	15606
913.659	15511
913.772	15405
913.886	15393
914	15199
914.113	15386
914.226	15416
914.34	15329
914.453	15142
914.566	15302
914.68	15184
914.793	15169
914.906	14994
915.019	14941
915.132	14823
915.245	14948
915.358	14998
915.47	14929
915.583	14929
915.696	14986
915.809	15028
915.921	15070
916.034	14891
916.146	14785
916.259	14693
916.371	14887
916.483	14826
916.595	14777
916.708	14792
916.82	14777
916.932	14720
917.044	14731
917.156	14648
917.268	14480
917.38	14549
917.491	14530
917.603	14617
917.715	14617
917.826	14682
917.938	14514
918.049	14492
918.161	14552
918.272	14678
918.384	14689
918.495	14522
918.606	14275
918.717	14275
918.828	14282
918.939	14427
919.05	14221
919.161	14233
919.272	14126
919.383	14149
919.494	14362
919.604	14530
919.715	14343
919.826	14206
919.936	14290
920.047	14408
920.157	14301
920.267	14522
920.378	14286
920.488	14290
920.598	14469
920.708	14507
920.818	14389
920.928	14423
921.038	14564
921.148	14545
921.258	14248
921.368	14126
921.477	14138
921.587	13902
921.697	14024
921.806	14054
921.916	13795
922.025	13738
922.134	13704
922.244	13632
922.353	13674
922.462	13510
922.571	13601
922.68	13304
922.789	13316
922.898	13335
923.007	13289
923.116	13289
923.224	13259
923.333	13263
923.442	13247
923.55	13141
923.659	13232
923.767	13221
923.876	13122
923.984	13240
924.092	12993
924.201	13114
924.309	13103
924.417	13122
924.525	13008
924.633	12973
924.741	13765
924.849	12825
924.956	13000
925.064	12730
925.172	12772
925.279	12764
925.387	12734
925.494	12764
925.602	12882
925.709	12783
925.816	12639
925.924	12798
926.031	12764
926.138	12852
926.245	12692
926.352	12654
926.459	12776
926.566	12844
926.673	12631
926.779	12464
926.886	12578
926.993	12376
927.099	12289
927.206	12315
927.312	12235
927.419	12460
927.525	12323
927.631	12304
927.737	12136
927.843	12144
927.95	12091
928.056	12095
928.162	12129
928.267	12239
928.373	12821
928.479	12213
928.585	12015
928.69	12194
928.796	12129
928.901	11996
929.007	11878
929.112	11946
929.218	11939
929.323	11942
929.428	11882
929.533	11977
929.638	11821
929.743	11866
929.848	11889
929.953	11798
930.058	11737
930.163	11551
930.267	11642
930.372	11737
930.477	11486
930.581	11756
930.685	11524
930.79	11395
930.894	11562
930.998	11463
931.103	11623
931.207	11254
931.311	11143
931.415	11025
931.519	10885
931.623	10831
