Data from test_V78500241_3391.txt Node
Date: Fri Mar 25 16:05:17 CST 2022
User: usil
Spectrometer: V785-0024
Trigger mode: 0
Integration Time (sec): 4.000000E-1
Scans to average: 1
Nonlinearity correction enabled: false
Boxcar width: 0
Storing dark spectrum: false
XAxis mode: Wavelengths
Number of Pixels in Spectrum: 1024
>>>>>Begin Spectral Data<<<<<
801.071	28869
801.214	28649
801.356	28542
801.499	28455
801.641	28337
801.783	28405
801.926	28325
802.068	28451
802.211	28276
802.353	28310
802.496	28082
802.638	28090
802.78	27937
802.923	27899
803.065	27892
803.208	28067
803.35	27895
803.492	28181
803.635	28188
803.777	28158
803.919	28337
804.061	28508
804.204	28249
804.346	28348
804.488	28112
804.63	28409
804.773	28207
804.915	28295
805.057	28459
805.199	28276
805.341	28348
805.483	28493
805.626	28432
805.768	28421
805.91	28424
806.052	28565
806.194	28440
806.336	28637
806.478	28367
806.62	28360
806.762	28637
806.904	28641
807.046	28923
807.188	28862
807.33	28866
807.472	28885
807.614	28820
807.756	28774
807.898	28778
808.04	28717
808.182	28630
808.324	28550
808.465	28790
808.607	29083
808.749	29197
808.891	29292
809.033	29181
809.174	29181
809.316	29090
809.458	29079
809.6	29052
809.741	29124
809.883	29235
810.025	29387
810.166	29398
810.308	29315
810.45	29307
810.591	29318
810.733	29132
810.875	29140
811.016	29094
811.158	28965
811.299	29311
811.441	29334
811.582	29269
811.724	29162
811.865	29079
812.007	29254
812.148	29140
812.29	29181
812.431	29318
812.573	29421
812.714	29436
812.855	29714
812.997	29832
813.138	29882
813.279	29726
813.421	29585
813.562	29608
813.703	29600
813.845	29375
813.986	29098
814.127	28946
814.268	28828
814.41	28968
814.551	28812
814.692	28923
814.833	28710
814.974	28801
815.115	28828
815.256	28630
815.397	28713
815.539	28828
815.68	28607
815.821	28569
815.962	28584
816.103	28664
816.244	28546
816.385	28462
816.526	28363
816.666	28246
816.807	28143
816.948	28371
817.089	28348
817.23	28196
817.371	28147
817.512	28223
817.653	28044
817.793	28025
817.934	28036
818.075	28070
818.216	28211
818.356	28154
818.497	28048
818.638	27918
818.778	27903
818.919	27941
819.06	28032
819.2	28036
819.341	28143
819.481	28226
819.622	28268
819.762	28481
819.903	28394
820.043	28238
820.184	28242
820.324	28333
820.465	28276
820.605	28363
820.746	28242
820.886	28287
821.026	28238
821.167	28219
821.307	28204
821.447	28090
821.588	28101
821.728	28093
821.868	27789
822.008	27724
822.149	27614
822.289	27686
822.429	27386
822.569	27336
822.709	27184
822.849	27085
822.99	27256
823.13	27108
823.27	27024
823.41	26967
823.55	26834
823.69	26986
823.83	27043
823.97	26826
824.11	26716
824.25	26609
824.389	26796
824.529	26838
824.669	26838
824.809	26929
824.949	26906
825.089	26902
825.228	26754
825.368	26689
825.508	26754
825.648	26705
825.787	26796
825.927	26781
826.067	26686
826.206	26648
826.346	26724
826.485	26682
826.625	26708
826.765	26861
826.904	26739
827.044	26446
827.183	26427
827.323	26229
827.462	26396
827.601	26457
827.741	26427
827.88	26377
828.02	26328
828.159	26358
828.298	26476
828.437	26412
828.577	26282
828.716	26473
828.855	26240
828.994	26069
829.134	26195
829.273	26153
829.412	26031
829.551	25986
829.69	26119
829.829	26180
829.968	26126
830.107	26134
830.246	26081
830.385	26035
830.524	25997
830.663	25887
830.802	25753
830.941	25700
831.08	25651
831.219	25913
831.357	25856
831.496	25849
831.635	25643
831.774	25575
831.913	25635
832.051	25499
832.19	25483
832.329	25506
832.467	25365
832.606	25282
832.744	25297
832.883	25354
833.022	25335
833.16	25247
833.299	25483
833.437	25449
833.576	25514
833.714	25384
833.852	25457
833.991	25487
834.129	25457
834.267	25362
834.406	25365
834.544	25510
834.682	25304
834.821	25343
834.959	25685
835.097	25400
835.235	25434
835.373	25339
835.511	25422
835.65	25217
835.788	25373
835.926	25156
836.064	25069
836.202	25129
836.34	25282
836.478	25270
836.615	25285
836.753	25358
836.891	25377
837.029	25320
837.167	25061
837.305	25194
837.443	25076
837.58	25008
837.718	25285
837.856	25080
837.993	24947
838.131	24973
838.269	25027
838.406	25004
838.544	24928
838.681	24738
838.819	24578
838.956	24498
839.094	24429
839.231	24532
839.369	24616
839.506	24935
839.643	24776
839.781	24517
839.918	24422
840.055	24414
840.193	24479
840.33	24505
840.467	24445
840.604	24464
840.742	24734
840.879	24311
841.016	24289
841.153	24292
841.29	24521
841.427	24315
841.564	24403
841.701	24426
841.838	24338
841.975	24311
842.112	24410
842.249	24224
842.385	24258
842.522	24395
842.659	24270
842.796	24171
842.933	24334
843.069	24163
843.206	24174
843.343	24380
843.479	24171
843.616	24194
843.752	24049
843.889	23843
844.025	24155
844.162	23912
844.298	24197
844.435	23954
844.571	24098
844.708	23996
844.844	24064
844.98	24125
845.117	24133
845.253	23984
845.389	23821
845.525	23859
845.661	23771
845.798	23760
845.934	23802
846.07	23741
846.206	23680
846.342	23840
846.478	23760
846.614	23395
846.75	23459
846.886	23402
847.022	23501
847.158	23554
847.294	23570
847.429	23452
847.565	23353
847.701	23554
847.837	23128
847.972	23212
848.108	23250
848.244	23231
848.379	23079
848.515	23083
848.65	22995
848.786	23006
848.921	22987
849.057	23174
849.192	23147
849.328	23006
849.463	22953
849.598	23003
849.734	22976
849.869	22908
850.004	22809
850.14	22759
850.275	22786
850.41	22713
850.545	22577
850.68	22763
850.815	22748
850.95	22774
851.085	22976
851.22	22923
851.355	22831
851.49	22805
851.625	22942
851.76	22759
851.895	22691
852.03	22801
852.165	22679
852.299	22721
852.434	22729
852.569	22733
852.703	22687
852.838	22706
852.973	22896
853.107	22862
853.242	22702
853.376	22592
853.511	22611
853.645	22584
853.78	22668
853.914	22603
854.048	22546
854.183	22603
854.317	22592
854.451	22790
854.585	22687
854.72	22615
854.854	22721
854.988	22645
855.122	22618
855.256	22554
855.39	22580
855.524	22672
855.658	22706
855.792	22660
855.926	22596
856.06	22698
856.194	22603
856.327	22618
856.461	22577
856.595	22698
856.729	22611
856.862	22748
856.996	22713
857.13	22649
857.263	22782
857.397	22713
857.53	22630
857.664	22618
857.797	22615
857.931	22786
858.064	22721
858.197	22660
858.331	22546
858.464	22607
858.597	22481
858.731	22516
858.864	22436
858.997	22550
859.13	22653
859.263	22428
859.396	22759
859.529	22645
859.662	22599
859.795	22504
859.928	22637
860.061	22786
860.194	22740
860.327	22596
860.46	22698
860.592	22736
860.725	22702
860.858	22729
860.99	22679
861.123	22485
861.256	22573
861.388	22584
861.521	23273
861.653	22394
861.786	22447
861.918	22417
862.05	22489
862.183	22554
862.315	22489
862.447	22588
862.58	22615
862.712	22310
862.844	22314
862.976	22421
863.108	22432
863.24	22828
863.372	22280
863.504	22432
863.636	22299
863.768	22417
863.9	22295
864.032	22234
864.164	22318
864.296	22360
864.428	22390
864.559	22382
864.691	22402
864.823	22299
864.954	22455
865.086	22238
865.217	22074
865.349	22055
865.48	22215
865.612	22109
865.743	22268
865.875	22363
866.006	22230
866.137	22135
866.269	22207
866.4	22219
866.531	22147
866.662	21941
866.793	22078
866.924	22135
867.055	22200
867.186	22109
867.317	22086
867.448	22112
867.579	22116
867.71	22086
867.841	22013
867.972	22078
868.103	22109
868.233	22051
868.364	22048
868.495	22226
868.625	22409
868.756	22447
868.886	22287
869.017	22341
869.147	22432
869.278	22504
869.408	22394
869.539	22413
869.669	22538
869.799	22356
869.929	22481
870.06	22596
870.19	22641
870.32	22649
870.45	22778
870.58	22748
870.71	22835
870.84	22771
870.97	22679
871.1	22763
871.23	22812
871.36	23098
871.489	23003
871.619	23033
871.749	22801
871.879	23128
872.008	23060
872.138	23006
872.267	22885
872.397	22729
872.526	22965
872.656	22930
872.785	22702
872.915	22885
873.044	23140
873.173	22999
873.303	23037
873.432	23075
873.561	23044
873.69	22850
873.819	22987
873.948	23056
874.077	22995
874.206	22862
874.335	22991
874.464	23166
874.593	23273
874.722	23277
874.851	23193
874.979	23239
875.108	23296
875.237	23079
875.365	23041
875.494	23143
875.623	23265
875.751	23231
875.88	23239
876.008	23307
876.136	23356
876.265	23573
876.393	23680
876.521	23661
876.65	23665
876.778	23570
876.906	23463
877.034	23459
877.162	23600
877.29	23528
877.418	23653
877.546	23531
877.674	23520
877.802	23524
877.93	23436
878.058	23448
878.185	23337
878.313	23615
878.441	23646
878.568	23326
878.696	23482
878.824	23630
878.951	23573
879.079	23699
879.206	23771
879.333	23665
879.461	23703
879.588	23528
879.715	23722
879.842	23729
879.97	23512
880.097	23387
880.224	23383
880.351	23410
880.478	23341
880.605	23353
880.732	23376
880.859	23581
880.986	23299
881.112	23345
881.239	23235
881.366	23060
881.493	23014
881.619	22968
881.746	22866
881.872	22999
881.999	22965
882.125	22915
882.252	22957
882.378	22812
882.505	22816
882.631	22710
882.757	22596
882.883	22668
883.01	22630
883.136	22607
883.262	22344
883.388	22432
883.514	22497
883.64	22649
883.766	22447
883.892	22386
884.018	22375
884.143	22580
884.269	22634
884.395	22382
884.52	22147
884.646	22219
884.772	22158
884.897	22150
885.023	22287
885.148	22337
885.274	22234
885.399	22341
885.524	22135
885.65	22226
885.775	22352
885.9	22112
886.025	22405
886.15	22257
886.275	22150
886.4	22090
886.525	22314
886.65	22097
886.775	22143
886.9	22303
887.025	22295
887.149	22173
887.274	22097
887.399	21930
887.523	21918
887.648	21960
887.773	21884
887.897	22101
888.021	21983
888.146	21918
888.27	22070
888.395	21934
888.519	21975
888.643	22090
888.767	22032
888.891	21793
889.015	21739
889.139	21720
889.263	21778
889.387	21808
889.511	21918
889.635	21930
889.759	21690
889.883	21743
890.006	21842
890.13	21873
890.254	21759
890.377	21660
890.501	21500
890.624	21439
890.748	21633
890.871	21386
890.995	21370
891.118	21321
891.241	21241
891.364	21291
891.488	21473
891.611	21256
891.734	21245
891.857	21287
891.98	21370
892.103	21344
892.226	21252
892.349	21283
892.471	21036
892.594	21161
892.717	21150
892.839	21131
892.962	21252
893.085	21173
893.207	21176
893.33	21226
893.452	21104
893.575	21332
893.697	21329
893.819	21363
893.941	21351
894.064	21370
894.186	21260
894.308	21096
894.43	21203
894.552	21454
894.674	21260
894.796	21123
894.918	21275
895.04	21199
895.161	21218
895.283	21218
895.405	21028
895.526	21157
895.648	21157
895.769	21074
895.891	21192
896.012	21260
896.134	21237
896.255	21188
896.376	21138
896.498	21195
896.619	21237
896.74	21039
896.861	21203
896.982	21420
897.103	21507
897.224	21576
897.345	21329
897.466	21340
897.587	21439
897.708	21405
897.828	21454
897.949	21336
898.07	21135
898.19	21321
898.311	21557
898.431	21344
898.552	21466
898.672	21260
898.792	21378
898.913	21424
899.033	21161
899.153	21074
899.273	21005
899.393	21024
899.513	21112
899.633	21112
899.753	20990
899.873	21032
899.993	21096
900.113	21051
900.232	21047
900.352	20864
900.472	20929
900.591	20819
900.711	20823
900.83	20880
900.95	20990
901.069	20979
901.189	20781
901.308	20533
901.427	20351
901.546	20507
901.665	20423
901.784	20347
901.904	20339
902.023	20138
902.141	20020
902.26	19936
902.379	20020
902.498	19913
902.617	19906
902.735	19955
902.854	19833
902.973	19947
903.091	19693
903.21	19674
903.328	19559
903.446	19426
903.565	19339
903.683	19285
903.801	19274
903.919	19381
904.038	19331
904.156	19152
904.274	19183
904.392	19175
904.51	19103
904.627	19126
904.745	19190
904.863	19232
904.981	18943
905.098	18890
905.216	18810
905.334	18886
905.451	18821
905.569	18745
905.686	18916
905.803	18700
905.921	18502
906.038	18764
906.155	18578
906.272	18467
906.389	18441
906.506	18391
906.623	18376
906.74	18380
906.857	18247
906.974	18258
907.091	18399
907.208	18483
907.324	18353
907.441	18247
907.557	18129
907.674	18041
907.79	18034
907.907	18091
908.023	18129
908.139	18026
908.256	18003
908.372	17866
908.488	17847
908.604	17836
908.72	17733
908.836	17722
908.952	17771
909.068	17752
909.184	17897
909.3	17790
909.415	17805
909.531	17817
909.647	17581
909.762	17486
909.878	17452
909.993	17520
910.108	17463
910.224	17410
910.339	17391
910.454	17273
910.57	17246
910.685	17242
910.8	17554
910.915	17379
911.03	17227
911.145	16991
911.259	16976
911.374	17060
911.489	16980
911.604	16991
911.718	16786
911.833	16809
911.947	16725
912.062	16599
912.176	16656
912.291	16866
912.405	16835
912.519	16908
912.633	16946
912.748	16771
912.862	16660
912.976	16538
913.09	16474
913.204	16474
913.318	16599
913.431	16618
913.545	16615
913.659	16641
913.772	16611
913.886	16409
914	16284
914.113	16382
914.226	16554
914.34	16409
914.453	16230
914.566	16299
914.68	16291
914.793	16200
914.906	15915
915.019	15857
915.132	15979
915.245	15831
915.358	15953
915.47	15979
915.583	15857
915.696	15941
915.809	15941
915.921	15964
916.034	15800
916.146	15732
916.259	15876
916.371	15892
916.483	15781
916.595	15789
916.708	15808
916.82	15739
916.932	15732
917.044	15766
917.156	15629
917.268	15625
917.38	15599
917.491	15553
917.603	15576
917.715	15705
917.826	15625
917.938	15523
918.049	15348
918.161	15542
918.272	15641
918.384	15549
918.495	15511
918.606	15294
918.717	15218
918.828	15336
918.939	15378
919.05	15180
919.161	15313
919.272	15192
919.383	15112
919.494	15298
919.604	15595
919.715	15272
919.826	15169
919.936	15203
920.047	15298
920.157	15317
920.267	15504
920.378	15233
920.488	15131
920.598	15340
920.708	15542
920.818	15291
920.928	15348
921.038	15511
921.148	15477
921.258	15195
921.368	15195
921.477	15055
921.587	14952
921.697	14750
921.806	14956
921.916	14807
922.025	14701
922.134	14613
922.244	14560
922.353	14701
922.462	14511
922.571	14412
922.68	14282
922.789	14233
922.898	14298
923.007	14202
923.116	14244
923.224	14157
923.333	14248
923.442	14138
923.55	14062
923.659	14043
923.767	14103
923.876	13993
923.984	14096
924.092	13955
924.201	14024
924.309	13982
924.417	13928
924.525	13879
924.633	13890
924.741	14853
924.849	13750
924.956	13826
925.064	13647
925.172	13620
925.279	13616
925.387	13666
925.494	13601
925.602	13769
925.709	13605
925.816	13525
925.924	13567
926.031	13578
926.138	13483
926.245	13719
926.352	13476
926.459	13670
926.566	13761
926.673	13525
926.779	13369
926.886	13388
926.993	13198
927.099	13129
927.206	13107
927.312	13179
927.419	13228
927.525	13259
927.631	13194
927.737	13110
927.843	13027
927.95	12993
928.056	13072
928.162	13042
928.267	13061
928.373	13582
928.479	13038
928.585	12730
928.69	12935
928.796	12970
928.901	12958
929.007	12730
929.112	12894
929.218	12825
929.323	12772
929.428	12654
929.533	12844
929.638	12719
929.743	12681
929.848	12768
929.953	12658
930.058	12566
930.163	12380
930.267	12395
930.372	12566
930.477	12327
930.581	12597
930.685	12418
930.79	12369
930.894	12342
930.998	12281
931.103	12399
931.207	11927
931.311	11961
931.415	11847
931.519	11684
931.623	11680
