Data from test_V78500241_1458.txt Node
Date: Fri Mar 25 15:51:54 CST 2022
User: usil
Spectrometer: V785-0024
Trigger mode: 0
Integration Time (sec): 4.000000E-1
Scans to average: 1
Nonlinearity correction enabled: false
Boxcar width: 0
Storing dark spectrum: false
XAxis mode: Wavelengths
Number of Pixels in Spectrum: 1024
>>>>>Begin Spectral Data<<<<<
801.071	27591
801.214	27393
801.356	27260
801.499	27169
801.641	27119
801.783	27013
801.926	27070
802.068	26998
802.211	26921
802.353	26960
802.496	26785
802.638	26689
802.78	26621
802.923	26598
803.065	26568
803.208	26609
803.35	26602
803.492	26701
803.635	26640
803.777	26845
803.919	26861
804.061	27047
804.204	26872
804.346	26773
804.488	26773
804.63	26861
804.773	26788
804.915	26891
805.057	26925
805.199	26872
805.341	26902
805.483	27009
805.626	26887
805.768	26769
805.91	27047
806.052	26944
806.194	26727
806.336	27241
806.478	27062
806.62	27017
806.762	27058
806.904	27203
807.046	27507
807.188	27408
807.33	27382
807.472	27469
807.614	27237
807.756	27165
807.898	27397
808.04	27096
808.182	27047
808.324	27336
808.465	27249
808.607	27504
808.749	27580
808.891	27610
809.033	27675
809.174	27705
809.316	27580
809.458	27523
809.6	27523
809.741	27720
809.883	27637
810.025	27892
810.166	27873
810.308	27797
810.45	27819
810.591	27660
810.733	27713
810.875	27519
811.016	27435
811.158	27386
811.299	27682
811.441	27709
811.582	27789
811.724	27530
811.865	27538
812.007	27431
812.148	27469
812.29	27641
812.431	27717
812.573	27823
812.714	27888
812.855	28147
812.997	28128
813.138	28238
813.279	28177
813.421	28074
813.562	28040
813.703	27854
813.845	27800
813.986	27439
814.127	27348
814.268	27203
814.41	27146
814.551	27154
814.692	27294
814.833	27112
814.974	27211
815.115	27214
815.256	26971
815.397	26960
815.539	27176
815.68	26914
815.821	27085
815.962	26975
816.103	27047
816.244	26811
816.385	26686
816.526	26727
816.666	26495
816.807	26450
816.948	26640
817.089	26476
817.23	26461
817.371	26549
817.512	26336
817.653	26461
817.793	26404
817.934	26568
818.075	26419
818.216	26560
818.356	26362
818.497	26427
818.638	26157
818.778	26237
818.919	26415
819.06	26298
819.2	26370
819.341	26469
819.481	26385
819.622	26636
819.762	26712
819.903	26697
820.043	26686
820.184	26552
820.324	26575
820.465	26560
820.605	26511
820.746	26499
820.886	26450
821.026	26682
821.167	26446
821.307	26503
821.447	26518
821.588	26446
821.728	26317
821.868	26016
822.008	25959
822.149	25814
822.289	25913
822.429	25658
822.569	25727
822.709	25548
822.849	25316
822.99	25514
823.13	25495
823.27	25430
823.41	25327
823.55	25152
823.69	25350
823.83	25240
823.97	25270
824.11	25141
824.25	25065
824.389	24962
824.529	25225
824.669	25198
824.809	25187
824.949	25198
825.089	25103
825.228	25012
825.368	24863
825.508	24909
825.648	25046
825.787	25103
825.927	25084
826.067	24886
826.206	25031
826.346	25019
826.485	24989
826.625	24970
826.765	24966
826.904	25103
827.044	24905
827.183	24631
827.323	24700
827.462	24665
827.601	24642
827.741	24684
827.88	24654
828.02	24429
828.159	24654
828.298	24616
828.437	24601
828.577	24525
828.716	24745
828.855	24403
828.994	24311
829.134	24376
829.273	24384
829.412	24376
829.551	24319
829.69	24327
829.829	24323
829.968	24410
830.107	24388
830.246	24437
830.385	24251
830.524	24273
830.663	24114
830.802	23984
830.941	23996
831.08	23836
831.219	24034
831.357	24015
831.496	24186
831.635	24057
831.774	23878
831.913	23824
832.051	23771
832.19	23668
832.329	23805
832.467	23665
832.606	23596
832.744	23634
832.883	23623
833.022	23585
833.16	23539
833.299	23608
833.437	23733
833.576	23589
833.714	23737
833.852	23733
833.991	23760
834.129	23718
834.267	23653
834.406	23608
834.544	23699
834.682	23585
834.821	23676
834.959	23752
835.097	23756
835.235	23710
835.373	23570
835.511	23554
835.65	23512
835.788	23501
835.926	23448
836.064	23288
836.202	23334
836.34	23471
836.478	23642
836.615	23467
836.753	23649
836.891	23535
837.029	23630
837.167	23395
837.305	23417
837.443	23379
837.58	23349
837.718	23398
837.856	23372
837.993	23208
838.131	23288
838.269	23273
838.406	23189
838.544	23189
838.681	23006
838.819	22968
838.956	22843
839.094	22782
839.231	22942
839.369	22949
839.506	23174
839.643	23132
839.781	22987
839.918	22767
840.055	22831
840.193	22767
840.33	22672
840.467	22759
840.604	22778
840.742	22946
840.879	22626
841.016	22577
841.153	22744
841.29	22869
841.427	22767
841.564	22778
841.701	22778
841.838	22615
841.975	22717
842.112	22618
842.249	22599
842.385	22500
842.522	22793
842.659	22706
842.796	22409
842.933	22424
843.069	22489
843.206	22363
843.343	22615
843.479	22398
843.616	22557
843.752	22257
843.889	22234
844.025	22413
844.162	22215
844.298	22352
844.435	22215
844.571	22166
844.708	22352
844.844	22504
844.98	22489
845.117	22466
845.253	22261
845.389	22135
845.525	22215
845.661	22181
845.798	22017
845.934	22112
846.07	21975
846.206	22078
846.342	22105
846.478	21975
846.614	21876
846.75	21778
846.886	21743
847.022	21831
847.158	21781
847.294	21701
847.429	21755
847.565	21675
847.701	21960
847.837	21663
847.972	21469
848.108	21477
848.244	21557
848.379	21462
848.515	21420
848.65	21424
848.786	21260
848.921	21393
849.057	21545
849.192	21481
849.328	21420
849.463	21348
849.598	21321
849.734	21336
849.869	21195
850.004	21096
850.14	21131
850.275	21123
850.41	21074
850.545	20982
850.68	21036
850.815	21135
850.95	21058
851.085	21249
851.22	21321
851.355	21199
851.49	21096
851.625	21013
851.76	21203
851.895	21043
852.03	21089
852.165	21093
852.299	21218
852.434	21256
852.569	21116
852.703	21150
852.838	21199
852.973	21169
853.107	21207
853.242	21074
853.376	20899
853.511	20826
853.645	20960
853.78	21176
853.914	20994
854.048	20956
854.183	20998
854.317	20982
854.451	21256
854.585	20956
854.72	20982
854.854	21055
854.988	20967
855.122	20990
855.256	20887
855.39	20883
855.524	20933
855.658	21085
855.792	20937
855.926	21036
856.06	21123
856.194	21013
856.327	20990
856.461	20853
856.595	20891
856.729	20952
856.862	21096
856.996	21096
857.13	21036
857.263	21077
857.397	21013
857.53	20956
857.664	21043
857.797	21043
857.931	21131
858.064	20956
858.197	21085
858.331	20971
858.464	20933
858.597	20811
858.731	20902
858.864	20941
858.997	20815
859.13	20979
859.263	20982
859.396	21043
859.529	20921
859.662	20925
859.795	20971
859.928	21001
860.061	21173
860.194	21211
860.327	21077
860.46	21062
860.592	21150
860.725	21169
860.858	21142
860.99	21009
861.123	20929
861.256	20979
861.388	21032
861.521	21709
861.653	20853
861.786	20773
861.918	20845
862.05	20902
862.183	20944
862.315	20739
862.447	20971
862.58	20819
862.712	20906
862.844	20636
862.976	20785
863.108	20720
863.24	21222
863.372	20606
863.504	20701
863.636	20655
863.768	20720
863.9	20769
864.032	20541
864.164	20682
864.296	20788
864.428	20792
864.559	20746
864.691	20765
864.823	20648
864.954	20716
865.086	20556
865.217	20571
865.349	20431
865.48	20667
865.612	20598
865.743	20609
865.875	20590
866.006	20560
866.137	20686
866.269	20454
866.4	20533
866.531	20423
866.662	20454
866.793	20495
866.924	20587
867.055	20560
867.186	20568
867.317	20442
867.448	20393
867.579	20503
867.71	20408
867.841	20381
867.972	20568
868.103	20415
868.233	20442
868.364	20579
868.495	20579
868.625	20727
868.756	20800
868.886	20765
869.017	20838
869.147	20914
869.278	20872
869.408	20788
869.539	20792
869.669	20921
869.799	20765
869.929	20925
870.06	20845
870.19	21150
870.32	21047
870.45	21093
870.58	21108
870.71	21089
870.84	21218
870.97	21032
871.1	21294
871.23	21450
871.36	21378
871.489	21298
871.619	21340
871.749	21340
871.879	21447
872.008	21515
872.138	21291
872.267	21496
872.397	21294
872.526	21268
872.656	21260
872.785	21275
872.915	21287
873.044	21306
873.173	21408
873.303	21454
873.432	21424
873.561	21450
873.69	21355
873.819	21424
873.948	21420
874.077	21336
874.206	21363
874.335	21447
874.464	21507
874.593	21557
874.722	21694
874.851	21572
874.979	21625
875.108	21717
875.237	21526
875.365	21553
875.494	21637
875.623	21724
875.751	21606
875.88	21583
876.008	21880
876.136	21766
876.265	22090
876.393	22109
876.521	22112
876.65	22139
876.778	22013
876.906	21956
877.034	22029
877.162	21930
877.29	21873
877.418	22044
877.546	21987
877.674	21983
877.802	21937
877.93	21941
878.058	21998
878.185	21831
878.313	21930
878.441	22002
878.568	21759
878.696	21873
878.824	21934
878.951	22093
879.079	22215
879.206	22230
879.333	22074
879.461	21922
879.588	22082
879.715	22207
879.842	22200
879.97	22124
880.097	21816
880.224	21724
880.351	21831
880.478	21880
880.605	21698
880.732	21873
880.859	21975
880.986	21888
881.112	21926
881.239	21648
881.366	21462
881.493	21587
881.619	21420
881.746	21515
881.872	21469
881.999	21283
882.125	21275
882.252	21393
882.378	21310
882.505	21488
882.631	21272
882.757	21154
882.883	21264
883.01	21146
883.136	20925
883.262	20990
883.388	20883
883.514	21119
883.64	21199
883.766	20910
883.892	20762
884.018	21039
884.143	20967
884.269	21104
884.395	20796
884.52	20701
884.646	20880
884.772	20659
884.897	20480
885.023	20845
885.148	20830
885.274	20678
885.399	20804
885.524	20648
885.65	20609
885.775	20678
885.9	20716
886.025	20777
886.15	20796
886.275	20636
886.4	20632
886.525	20667
886.65	20708
886.775	20571
886.9	20807
887.025	20910
887.149	20720
887.274	20423
887.399	20488
887.523	20446
887.648	20438
887.773	20396
887.897	20495
888.021	20530
888.146	20419
888.27	20476
888.395	20575
888.519	20476
888.643	20613
888.767	20423
888.891	20419
889.015	20381
889.139	20423
889.263	20328
889.387	20347
889.511	20484
889.635	20514
889.759	20256
889.883	20244
890.006	20229
890.13	20370
890.254	20229
890.377	20164
890.501	20119
890.624	20054
890.748	20145
890.871	20035
890.995	19913
891.118	19738
891.241	20024
891.364	19932
891.488	20111
891.611	19925
891.734	19776
891.857	20016
891.98	19890
892.103	19902
892.226	19913
892.349	19738
892.471	19647
892.594	19803
892.717	19864
892.839	19833
892.962	19818
893.085	19902
893.207	19769
893.33	19620
893.452	19674
893.575	19906
893.697	19845
893.819	19986
893.941	20096
894.064	19883
894.186	19746
894.308	19696
894.43	19898
894.552	19902
894.674	19868
894.796	19719
894.918	19814
895.04	19852
895.161	19864
895.283	19776
895.405	19666
895.526	19879
895.648	19772
895.769	19803
895.891	19799
896.012	19921
896.134	19837
896.255	19826
896.376	19811
896.498	19738
896.619	19830
896.74	19795
896.861	19837
896.982	20092
897.103	20347
897.224	20001
897.345	20107
897.466	20031
897.587	20024
897.708	20122
897.828	20084
897.949	19959
898.07	19799
898.19	19936
898.311	20027
898.431	19955
898.552	20043
898.672	20043
898.792	20138
898.913	20084
899.033	19986
899.153	19887
899.273	19784
899.393	19753
899.513	19852
899.633	19731
899.753	19936
899.873	19647
899.993	19803
900.113	19727
900.232	19655
900.352	19734
900.472	19723
900.591	19472
900.711	19632
900.83	19567
900.95	19635
901.069	19628
901.189	19548
901.308	19198
901.427	19183
901.546	19072
901.665	19141
901.784	19213
901.904	19133
902.023	18909
902.141	18738
902.26	18772
902.379	18768
902.498	18677
902.617	18608
902.735	18779
902.854	18570
902.973	18745
903.091	18445
903.21	18445
903.328	18247
903.446	18281
903.565	18064
903.683	18201
903.801	18171
903.919	18144
904.038	18155
904.156	17931
904.274	17988
904.392	17927
904.51	17843
904.627	17859
904.745	17927
904.863	17992
904.981	17691
905.098	17646
905.216	17634
905.334	17604
905.451	17558
905.569	17505
905.686	17585
905.803	17615
905.921	17436
906.038	17505
906.155	17459
906.272	17360
906.389	17429
906.506	17216
906.623	17162
906.74	17147
906.857	16991
906.974	17079
907.091	17181
907.208	17277
907.324	17162
907.441	17014
907.557	16816
907.674	16782
907.79	16736
907.907	16809
908.023	16881
908.139	16885
908.256	16759
908.372	16763
908.488	16683
908.604	16489
908.72	16527
908.836	16523
908.952	16523
909.068	16459
909.184	16702
909.3	16489
909.415	16516
909.531	16436
909.647	16344
909.762	16291
909.878	16257
909.993	16284
910.108	16249
910.224	16196
910.339	16223
910.454	16226
910.57	16097
910.685	16013
910.8	16280
910.915	16253
911.03	16116
911.145	15926
911.259	15926
911.374	15835
911.489	15816
911.604	15732
911.718	15576
911.833	15584
911.947	15591
912.062	15485
912.176	15660
912.291	15523
912.405	15637
912.519	15732
912.633	15831
912.748	15606
912.862	15652
912.976	15485
913.09	15340
913.204	15431
913.318	15424
913.431	15488
913.545	15477
913.659	15561
913.772	15401
913.886	15317
914	15279
914.113	15325
914.226	15397
914.34	15359
914.453	15051
914.566	15287
914.68	15108
914.793	15142
914.906	14910
915.019	14868
915.132	14781
915.245	14872
915.358	14929
915.47	14849
915.583	14815
915.696	14842
915.809	14963
915.921	15020
916.034	14769
916.146	14777
916.259	14716
916.371	14872
916.483	14781
916.595	14689
916.708	14701
916.82	14697
916.932	14697
917.044	14686
917.156	14488
917.268	14526
917.38	14575
917.491	14492
917.603	14560
917.715	14610
917.826	14606
917.938	14423
918.049	14339
918.161	14511
918.272	14549
918.384	14495
918.495	14393
918.606	14290
918.717	14252
918.828	14237
918.939	14324
919.05	14210
919.161	14145
919.272	14058
919.383	14092
919.494	14305
919.604	14469
919.715	14278
919.826	14172
919.936	14263
920.047	14362
920.157	14275
920.267	14442
920.378	14309
920.488	14149
920.598	14377
920.708	14530
920.818	14393
920.928	14408
921.038	14606
921.148	14366
921.258	14282
921.368	14221
921.477	13993
921.587	13986
921.697	13898
921.806	14020
921.916	13837
922.025	13704
922.134	13708
922.244	13567
922.353	13753
922.462	13464
922.571	13468
922.68	13331
922.789	13282
922.898	13293
923.007	13312
923.116	13282
923.224	13316
923.333	13228
923.442	13038
923.55	13118
923.659	13122
923.767	13255
923.876	12996
923.984	13088
924.092	12958
924.201	13061
924.309	13110
924.417	12962
924.525	12993
924.633	12985
924.741	13704
924.849	12814
924.956	12871
925.064	12738
925.172	12760
925.279	12688
925.387	12703
925.494	12696
925.602	12810
925.709	12760
925.816	12623
925.924	12688
926.031	12776
926.138	12711
926.245	12684
926.352	12566
926.459	12791
926.566	12749
926.673	12623
926.779	12467
926.886	12540
926.993	12361
927.099	12319
927.206	12228
927.312	12194
927.419	12327
927.525	12228
927.631	12338
927.737	12213
927.843	12030
927.95	12022
928.056	12057
928.162	12030
928.267	12194
928.373	12753
928.479	12197
928.585	11980
928.69	12087
928.796	12083
928.901	12034
929.007	11767
929.112	12011
929.218	11904
929.323	11836
929.428	11889
929.533	12003
929.638	11847
929.743	11840
929.848	11855
929.953	11809
930.058	11752
930.163	11554
930.267	11581
930.372	11653
930.477	11539
930.581	11748
930.685	11600
930.79	11414
930.894	11547
930.998	11387
931.103	11630
931.207	11204
931.311	11132
931.415	11041
931.519	10839
931.623	10717
