Data from test_V78500241_657.txt Node
Date: Fri Mar 25 15:46:21 CST 2022
User: usil
Spectrometer: V785-0024
Trigger mode: 0
Integration Time (sec): 4.000000E-1
Scans to average: 1
Nonlinearity correction enabled: false
Boxcar width: 0
Storing dark spectrum: false
XAxis mode: Wavelengths
Number of Pixels in Spectrum: 1024
>>>>>Begin Spectral Data<<<<<
801.071	26781
801.214	26674
801.356	26636
801.499	26415
801.641	26244
801.783	26362
801.926	26404
802.068	26240
802.211	26157
802.353	26115
802.496	25947
802.638	25913
802.78	25864
802.923	25753
803.065	25693
803.208	26035
803.35	25925
803.492	26027
803.635	26107
803.777	25928
803.919	26206
804.061	26355
804.204	26183
804.346	26065
804.488	25940
804.63	25898
804.773	25932
804.915	26119
805.057	26172
805.199	25989
805.341	26195
805.483	26103
805.626	26077
805.768	26119
805.91	26237
806.052	26062
806.194	26065
806.336	26320
806.478	26237
806.62	26126
806.762	26305
806.904	26476
807.046	26655
807.188	26594
807.33	26492
807.472	26667
807.614	26514
807.756	26461
807.898	26438
808.04	26298
808.182	26290
808.324	26492
808.465	26594
808.607	26720
808.749	26807
808.891	26834
809.033	26868
809.174	26880
809.316	26785
809.458	26796
809.6	26750
809.741	26807
809.883	26994
810.025	27036
810.166	26906
810.308	26975
810.45	26929
810.591	26902
810.733	26670
810.875	26571
811.016	26530
811.158	26651
811.299	26731
811.441	26925
811.582	26883
811.724	26819
811.865	26594
812.007	26792
812.148	26739
812.29	26670
812.431	26853
812.573	27013
812.714	27108
812.855	27237
812.997	27344
813.138	27439
813.279	27526
813.421	27214
813.562	27135
813.703	27093
813.845	26929
813.986	26754
814.127	26381
814.268	26305
814.41	26469
814.551	26237
814.692	26480
814.833	26396
814.974	26442
815.115	26332
815.256	26317
815.397	26259
815.539	26275
815.68	26142
815.821	26046
815.962	26115
816.103	26145
816.244	26122
816.385	25936
816.526	26054
816.666	25811
816.807	25635
816.948	25830
817.089	25765
817.23	25594
817.371	25586
817.512	25689
817.653	25719
817.793	25578
817.934	25746
818.075	25708
818.216	25776
818.356	25559
818.497	25483
818.638	25430
818.778	25377
818.919	25384
819.06	25411
819.2	25457
819.341	25674
819.481	25624
819.622	25887
819.762	25898
819.903	25833
820.043	25761
820.184	25708
820.324	25788
820.465	25841
820.605	25746
820.746	25814
820.886	25525
821.026	25769
821.167	25639
821.307	25693
821.447	25609
821.588	25510
821.728	25441
821.868	25320
822.008	25057
822.149	25179
822.289	25057
822.429	24768
822.569	24734
822.709	24757
822.849	24601
822.99	24806
823.13	24631
823.27	24570
823.41	24414
823.55	24361
823.69	24456
823.83	24452
823.97	24433
824.11	24209
824.25	24159
824.389	24201
824.529	24239
824.669	24334
824.809	24426
824.949	24365
825.089	24346
825.228	24315
825.368	24045
825.508	24102
825.648	24174
825.787	24068
825.927	24125
826.067	24079
826.206	24041
826.346	24034
826.485	24133
826.625	24034
826.765	24254
826.904	24045
827.044	23790
827.183	23790
827.323	23733
827.462	23851
827.601	23923
827.741	23608
827.88	23828
828.02	23748
828.159	23665
828.298	23672
828.437	23863
828.577	23767
828.716	23939
828.855	23729
828.994	23516
829.134	23539
829.273	23528
829.412	23554
829.551	23482
829.69	23334
829.829	23528
829.968	23634
830.107	23562
830.246	23520
830.385	23376
830.524	23326
830.663	23296
830.802	23166
830.941	23029
831.08	22995
831.219	23132
831.357	23079
831.496	23395
831.635	23109
831.774	22919
831.913	22930
832.051	22877
832.19	22786
832.329	22892
832.467	22717
832.606	22774
832.744	22752
832.883	22850
833.022	22729
833.16	22702
833.299	22755
833.437	22759
833.576	22816
833.714	22786
833.852	22744
833.991	22896
834.129	22881
834.267	22927
834.406	22831
834.544	22877
834.682	22801
834.821	22774
834.959	22927
835.097	22706
835.235	22877
835.373	22824
835.511	22744
835.65	22675
835.788	22713
835.926	22497
836.064	22462
836.202	22508
836.34	22626
836.478	22858
836.615	22668
836.753	22694
836.891	22672
837.029	22592
837.167	22653
837.305	22447
837.443	22580
837.58	22554
837.718	22607
837.856	22535
837.993	22550
838.131	22386
838.269	22287
838.406	22447
838.544	22223
838.681	22249
838.819	22272
838.956	21964
839.094	21994
839.231	22032
839.369	22124
839.506	22352
839.643	22257
839.781	21899
839.918	21956
840.055	21994
840.193	21895
840.33	21926
840.467	21941
840.604	21915
840.742	22143
840.879	21686
841.016	21778
841.153	21804
841.29	22013
841.427	21972
841.564	21960
841.701	21888
841.838	21800
841.975	21705
842.112	21861
842.249	21857
842.385	21736
842.522	21937
842.659	21751
842.796	21580
842.933	21663
843.069	21629
843.206	21618
843.343	21663
843.479	21770
843.616	21652
843.752	21485
843.889	21534
844.025	21564
844.162	21370
844.298	21561
844.435	21466
844.571	21405
844.708	21310
844.844	21709
844.98	21557
845.117	21469
845.253	21424
845.389	21317
845.525	21340
845.661	21386
845.798	21146
845.934	21192
846.07	21184
846.206	21188
846.342	21336
846.478	21222
846.614	20994
846.75	20948
846.886	20906
847.022	21085
847.158	21028
847.294	20883
847.429	20864
847.565	20815
847.701	21226
847.837	20724
847.972	20724
848.108	20743
848.244	20762
848.379	20617
848.515	20511
848.65	20484
848.786	20495
848.921	20571
849.057	20674
849.192	20701
849.328	20549
849.463	20549
849.598	20469
849.734	20370
849.869	20381
850.004	20294
850.14	20271
850.275	20351
850.41	20263
850.545	20263
850.68	20145
850.815	20370
850.95	20244
851.085	20393
851.22	20381
851.355	20278
851.49	20164
851.625	20282
851.76	20218
851.895	20221
852.03	20142
852.165	20206
852.299	20358
852.434	20248
852.569	20195
852.703	20275
852.838	20366
852.973	20343
853.107	20351
853.242	20172
853.376	20130
853.511	20020
853.645	20145
853.78	20195
853.914	20202
854.048	20084
854.183	20043
854.317	20164
854.451	20233
854.585	20119
854.72	20073
854.854	20138
854.988	19944
855.122	20126
855.256	19902
855.39	20088
855.524	20172
855.658	20145
855.792	20157
855.926	20039
856.06	20195
856.194	20210
856.327	20103
856.461	19993
856.595	20096
856.729	20149
856.862	20298
856.996	20096
857.13	20172
857.263	20199
857.397	20218
857.53	20039
857.664	20149
857.797	20206
857.931	20263
858.064	20126
858.197	20240
858.331	20054
858.464	20027
858.597	20027
858.731	20054
858.864	20138
858.997	20077
859.13	20180
859.263	20138
859.396	20275
859.529	19959
859.662	20024
859.795	20126
859.928	20153
860.061	20362
860.194	20240
860.327	20126
860.46	20130
860.592	20286
860.725	20229
860.858	20244
860.99	20157
861.123	20024
861.256	20001
861.388	20039
861.521	20655
861.653	19955
861.786	19940
861.918	20005
862.05	19951
862.183	20065
862.315	19955
862.447	20050
862.58	20062
862.712	19868
862.844	19811
862.976	19951
863.108	19883
863.24	20240
863.372	19788
863.504	19757
863.636	19830
863.768	19814
863.9	19769
864.032	19731
864.164	19727
864.296	19830
864.428	19921
864.559	19868
864.691	19780
864.823	19879
864.954	19845
865.086	19761
865.217	19666
865.349	19761
865.48	19788
865.612	19674
865.743	19921
865.875	19917
866.006	19666
866.137	19765
866.269	19651
866.4	19712
866.531	19601
866.662	19674
866.793	19757
866.924	19643
867.055	19704
867.186	19658
867.317	19658
867.448	19700
867.579	19609
867.71	19571
867.841	19605
867.972	19738
868.103	19696
868.233	19693
868.364	19624
868.495	19696
868.625	19887
868.756	20088
868.886	19963
869.017	19932
869.147	20096
869.278	20062
869.408	19944
869.539	20012
869.669	19947
869.799	20005
869.929	19921
870.06	19967
870.19	20282
870.32	20149
870.45	20195
870.58	20263
870.71	20389
870.84	20552
870.97	20259
871.1	20336
871.23	20476
871.36	20503
871.489	20408
871.619	20549
871.749	20579
871.879	20541
872.008	20648
872.138	20651
872.267	20476
872.397	20377
872.526	20294
872.656	20366
872.785	20324
872.915	20457
873.044	20579
873.173	20602
873.303	20609
873.432	20568
873.561	20564
873.69	20454
873.819	20507
873.948	20549
874.077	20644
874.206	20590
874.335	20431
874.464	20758
874.593	20785
874.722	20853
874.851	20834
874.979	20864
875.108	20872
875.237	20727
875.365	20571
875.494	20746
875.623	20842
875.751	20754
875.88	20811
876.008	20842
876.136	20975
876.265	21150
876.393	21192
876.521	21207
876.65	21291
876.778	21096
876.906	21184
877.034	21169
877.162	21195
877.29	21043
877.418	21180
877.546	21272
877.674	21100
877.802	21146
877.93	21249
878.058	21001
878.185	21112
878.313	21001
878.441	21226
878.568	20891
878.696	21199
878.824	21256
878.951	21256
879.079	21344
879.206	21447
879.333	21393
879.461	21100
879.588	21351
879.715	21412
879.842	21481
879.97	21298
880.097	20982
880.224	20941
880.351	21089
880.478	21093
880.605	20982
880.732	21028
880.859	21275
880.986	21077
881.112	20979
881.239	20891
881.366	20838
881.493	20640
881.619	20568
881.746	20636
881.872	20617
881.999	20621
882.125	20438
882.252	20670
882.378	20518
882.505	20682
882.631	20575
882.757	20336
882.883	20343
883.01	20248
883.136	20370
883.262	20157
883.388	20153
883.514	20290
883.64	20370
883.766	20355
883.892	20229
884.018	20157
884.143	20183
884.269	20362
884.395	20062
884.52	19932
884.646	19947
884.772	19856
884.897	19814
885.023	19959
885.148	20107
885.274	20134
885.399	20054
885.524	19917
885.65	20020
885.775	20077
885.9	19909
886.025	20103
886.15	20016
886.275	19963
886.4	19822
886.525	19967
886.65	19860
886.775	19963
886.9	20092
887.025	20119
887.149	19959
887.274	19693
887.399	19731
887.523	19830
887.648	19795
887.773	19658
887.897	19799
888.021	19708
888.146	19715
888.27	19795
888.395	19906
888.519	19849
888.643	19750
888.767	19708
888.891	19635
889.015	19518
889.139	19552
889.263	19476
889.387	19594
889.511	19784
889.635	19677
889.759	19495
889.883	19445
890.006	19635
890.13	19658
890.254	19365
890.377	19460
890.501	19255
890.624	19244
890.748	19384
890.871	19232
890.995	19110
891.118	19023
891.241	19183
891.364	19206
891.488	19236
891.611	19107
891.734	19160
891.857	19240
891.98	19183
892.103	19221
892.226	19282
892.349	19057
892.471	18993
892.594	19118
892.717	19122
892.839	19023
892.962	19000
893.085	19194
893.207	18977
893.33	19000
893.452	19057
893.575	19129
893.697	19122
893.819	19244
893.941	19304
894.064	19202
894.186	19069
894.308	18996
894.43	19080
894.552	19160
894.674	19141
894.796	18973
894.918	18989
895.04	19072
895.161	19122
895.283	19129
895.405	19095
895.526	19110
895.648	19069
895.769	19171
895.891	19129
896.012	19187
896.134	19160
896.255	19114
896.376	19065
896.498	19141
896.619	19107
896.74	19065
896.861	19175
896.982	19480
897.103	19567
897.224	19472
897.345	19316
897.466	19301
897.587	19392
897.708	19464
897.828	19350
897.949	19187
898.07	19278
898.19	19209
898.311	19358
898.431	19171
898.552	19320
898.672	19346
898.792	19419
898.913	19377
899.033	19320
899.153	19050
899.273	18989
899.393	19122
899.513	19217
899.633	19152
899.753	19099
899.873	19069
899.993	19232
900.113	19095
900.232	19091
900.352	19069
900.472	18875
900.591	18840
900.711	18833
900.83	18882
900.95	19057
901.069	18981
901.189	18802
901.308	18559
901.427	18479
901.546	18490
901.665	18574
901.784	18464
901.904	18460
902.023	18391
902.141	18186
902.26	18064
902.379	18102
902.498	18064
902.617	17984
902.735	17999
902.854	17992
902.973	17958
903.091	17737
903.21	17661
903.328	17726
903.446	17756
903.565	17535
903.683	17459
903.801	17330
903.919	17493
904.038	17535
904.156	17345
904.274	17398
904.392	17265
904.51	17303
904.627	17345
904.745	17330
904.863	17311
904.981	17235
905.098	16942
905.216	16923
905.334	17010
905.451	16942
905.569	16968
905.686	16980
905.803	16965
905.921	16717
906.038	16942
906.155	16645
906.272	16641
906.389	16717
906.506	16584
906.623	16580
906.74	16455
906.857	16413
906.974	16470
907.091	16618
907.208	16573
907.324	16485
907.441	16417
907.557	16287
907.674	16287
907.79	16181
907.907	16211
908.023	16276
908.139	16192
908.256	16196
908.372	16173
908.488	16116
908.604	15998
908.72	15903
908.836	15972
908.952	15934
909.068	15979
909.184	15983
909.3	15987
909.415	16017
909.531	15956
909.647	15667
909.762	15682
909.878	15614
909.993	15671
910.108	15720
910.224	15557
910.339	15637
910.454	15587
910.57	15458
910.685	15363
910.8	15656
910.915	15587
911.03	15481
911.145	15367
911.259	15233
911.374	15252
911.489	15233
911.604	15211
911.718	15005
911.833	15032
911.947	14952
912.062	14910
912.176	14921
912.291	15100
912.405	15108
912.519	15264
912.633	15256
912.748	15028
912.862	15028
912.976	14937
913.09	14746
913.204	14876
913.318	14880
913.431	14944
913.545	14914
913.659	14979
913.772	14823
913.886	14769
914	14758
914.113	14743
914.226	14788
914.34	14735
914.453	14640
914.566	14731
914.68	14606
914.793	14454
914.906	14408
915.019	14427
915.132	14221
915.245	14248
915.358	14374
915.47	14294
915.583	14286
915.696	14351
915.809	14385
915.921	14549
916.034	14187
916.146	14218
916.259	14172
916.371	14374
916.483	14210
916.595	14168
916.708	14130
916.82	14180
916.932	14027
917.044	14046
917.156	14058
917.268	13970
917.38	14001
917.491	13947
917.603	14039
917.715	14073
917.826	14142
917.938	13963
918.049	13841
918.161	13982
918.272	14103
918.384	13967
918.495	13944
918.606	13738
918.717	13651
918.828	13791
918.939	13757
919.05	13658
919.161	13731
919.272	13632
919.383	13586
919.494	13875
919.604	13982
919.715	13776
919.826	13651
919.936	13715
920.047	13734
920.157	13761
920.267	13879
920.378	13738
920.488	13647
920.598	13894
920.708	14031
920.818	13955
920.928	13837
921.038	14020
921.148	14046
921.258	13670
921.368	13605
921.477	13552
921.587	13537
921.697	13304
921.806	13540
921.916	13419
922.025	13289
922.134	13175
922.244	13149
922.353	13202
922.462	13103
922.571	13019
922.68	12867
922.789	12768
922.898	12829
923.007	12776
923.116	12878
923.224	12817
923.333	12749
923.442	12658
923.55	12654
923.659	12658
923.767	12715
923.876	12574
923.984	12715
924.092	12589
924.201	12623
924.309	12570
924.417	12517
924.525	12490
924.633	12528
924.741	13327
924.849	12460
924.956	12437
925.064	12296
925.172	12194
925.279	12327
925.387	12319
925.494	12224
925.602	12327
925.709	12296
925.816	12258
925.924	12197
926.031	12342
926.138	12159
926.245	12220
926.352	12072
926.459	12277
926.566	12289
926.673	12201
926.779	12041
926.886	12060
926.993	11874
927.099	11893
927.206	11729
927.312	11805
927.419	11935
927.525	11893
927.631	11893
927.737	11805
927.843	11752
927.95	11497
928.056	11752
928.162	11726
928.267	11748
928.373	12414
928.479	11863
928.585	11615
928.69	11707
928.796	11642
928.901	11630
929.007	11425
929.112	11608
929.218	11562
929.323	11448
929.428	11486
929.533	11592
929.638	11436
929.743	11417
929.848	11482
929.953	11391
930.058	11315
930.163	11151
930.267	11121
930.372	11284
930.477	11037
930.581	11356
930.685	11178
930.79	10930
930.894	11071
930.998	11033
931.103	11159
931.207	10740
931.311	10653
931.415	10645
931.519	10478
931.623	10462
