Data from test_V78500241_1029.txt Node
Date: Fri Mar 25 15:48:55 CST 2022
User: usil
Spectrometer: V785-0024
Trigger mode: 0
Integration Time (sec): 4.000000E-1
Scans to average: 1
Nonlinearity correction enabled: false
Boxcar width: 0
Storing dark spectrum: false
XAxis mode: Wavelengths
Number of Pixels in Spectrum: 1024
>>>>>Begin Spectral Data<<<<<
801.071	28310
801.214	28116
801.356	27911
801.499	27850
801.641	27568
801.783	27717
801.926	27713
802.068	27713
802.211	27606
802.353	27572
802.496	27340
802.638	27348
802.78	27389
802.923	27332
803.065	27256
803.208	27161
803.35	27367
803.492	27625
803.635	27660
803.777	27431
803.919	27568
804.061	27869
804.204	27648
804.346	27549
804.488	27367
804.63	27641
804.773	27405
804.915	27496
805.057	27720
805.199	27496
805.341	27675
805.483	27641
805.626	27679
805.768	27656
805.91	27789
806.052	27755
806.194	27606
806.336	27930
806.478	27789
806.62	27793
806.762	27972
806.904	27968
807.046	28356
807.188	28093
807.33	28101
807.472	28234
807.614	28128
807.756	28238
807.898	28002
808.04	28120
808.182	27934
808.324	27987
808.465	28063
808.607	28284
808.749	28348
808.891	28474
809.033	28561
809.174	28455
809.316	28455
809.458	28440
809.6	28318
809.741	28470
809.883	28531
810.025	28660
810.166	28713
810.308	28672
810.45	28622
810.591	28687
810.733	28436
810.875	28455
811.016	28162
811.158	28253
811.299	28470
811.441	28611
811.582	28538
811.724	28512
811.865	28401
812.007	28348
812.148	28394
812.29	28428
812.431	28641
812.573	28790
812.714	28888
812.855	28877
812.997	29006
813.138	29220
813.279	29071
813.421	29029
813.562	28908
813.703	28740
813.845	28702
813.986	28398
814.127	28291
814.268	28143
814.41	28078
814.551	28090
814.692	28063
814.833	28048
814.974	28116
815.115	28044
815.256	27945
815.397	27774
815.539	28036
815.68	27941
815.821	27781
815.962	27941
816.103	27766
816.244	27850
816.385	27641
816.526	27717
816.666	27435
816.807	27332
816.948	27397
817.089	27542
817.23	27603
817.371	27412
817.512	27348
817.653	27473
817.793	27287
817.934	27427
818.075	27458
818.216	27363
818.356	27348
818.497	27272
818.638	27081
818.778	27268
818.919	27013
819.06	27272
819.2	27298
819.341	27393
819.481	27466
819.622	27515
819.762	27755
819.903	27682
820.043	27549
820.184	27485
820.324	27580
820.465	27515
820.605	27603
820.746	27393
820.886	27424
821.026	27504
821.167	27572
821.307	27481
821.447	27435
821.588	27279
821.728	27093
821.868	27058
822.008	26857
822.149	26948
822.289	26899
822.429	26636
822.569	26651
822.709	26503
822.849	26301
822.99	26488
823.13	26377
823.27	26294
823.41	26221
823.55	26103
823.69	26202
823.83	26206
823.97	26168
824.11	26005
824.25	26008
824.389	25982
824.529	26039
824.669	25966
824.809	26218
824.949	26168
825.089	26267
825.228	26100
825.368	25982
825.508	25902
825.648	25898
825.787	26008
825.927	26084
826.067	25982
826.206	25974
826.346	25974
826.485	25963
826.625	25837
826.765	25936
826.904	25936
827.044	25734
827.183	25563
827.323	25521
827.462	25761
827.601	25742
827.741	25601
827.88	25601
828.02	25438
828.159	25582
828.298	25575
828.437	25586
828.577	25464
828.716	25670
828.855	25544
828.994	25327
829.134	25263
829.273	25377
829.412	25244
829.551	25324
829.69	25221
829.829	25259
829.968	25255
830.107	25411
830.246	25217
830.385	25240
830.524	25225
830.663	25110
830.802	25076
830.941	24905
831.08	24897
831.219	24932
831.357	25019
831.496	25118
831.635	24924
831.774	24825
831.913	24878
832.051	24722
832.19	24814
832.329	24859
832.467	24692
832.606	24475
832.744	24456
832.883	24635
833.022	24521
833.16	24639
833.299	24589
833.437	24631
833.576	24665
833.714	24719
833.852	24768
833.991	24631
834.129	24677
834.267	24757
834.406	24726
834.544	24563
834.682	24642
834.821	24700
834.959	24760
835.097	24608
835.235	24783
835.373	24639
835.511	24604
835.65	24494
835.788	24486
835.926	24407
836.064	24327
836.202	24296
836.34	24479
836.478	24559
836.615	24471
836.753	24486
836.891	24547
837.029	24467
837.167	24437
837.305	24361
837.443	24376
837.58	24285
837.718	24376
837.856	24292
837.993	24254
838.131	24342
838.269	24174
838.406	23992
838.544	24110
838.681	24026
838.819	23992
838.956	23764
839.094	23783
839.231	23923
839.369	23988
839.506	24262
839.643	24030
839.781	23733
839.918	23687
840.055	23855
840.193	23661
840.33	23646
840.467	23653
840.604	23668
840.742	24087
840.879	23649
841.016	23657
841.153	23707
841.29	23840
841.427	23478
841.564	23828
841.701	23798
841.838	23573
841.975	23531
842.112	23611
842.249	23482
842.385	23516
842.522	23832
842.659	23551
842.796	23474
842.933	23505
843.069	23421
843.206	23379
843.343	23520
843.479	23467
843.616	23474
843.752	23147
843.889	23147
844.025	23448
844.162	23151
844.298	23311
844.435	23174
844.571	23064
844.708	23288
844.844	23417
844.98	23330
845.117	23181
845.253	23162
845.389	23098
845.525	23147
845.661	23090
845.798	22828
845.934	23022
846.07	22991
846.206	22987
846.342	22984
846.478	22930
846.614	22748
846.75	22672
846.886	22637
847.022	22752
847.158	22702
847.294	22637
847.429	22710
847.565	22626
847.701	23056
847.837	22440
847.972	22310
848.108	22470
848.244	22371
848.379	22337
848.515	22314
848.65	22310
848.786	22188
848.921	22291
849.057	22367
849.192	22371
849.328	22375
849.463	22238
849.598	22242
849.734	22139
849.869	22143
850.004	21994
850.14	22074
850.275	22044
850.41	21991
850.545	21930
850.68	21861
850.815	22082
850.95	22074
851.085	22196
851.22	22147
851.355	22006
851.49	21915
851.625	21945
851.76	21987
851.895	21884
852.03	22055
852.165	22059
852.299	22070
852.434	22109
852.569	22093
852.703	21972
852.838	22093
852.973	22215
853.107	22063
853.242	21968
853.376	21953
853.511	21842
853.645	21755
853.78	21831
853.914	21812
854.048	21884
854.183	21770
854.317	21987
854.451	22040
854.585	21880
854.72	21895
854.854	21907
854.988	21827
855.122	21941
855.256	21781
855.39	21857
855.524	21755
855.658	21842
855.792	21876
855.926	21861
856.06	21816
856.194	21926
856.327	21869
856.461	21888
856.595	21698
856.729	21728
856.862	21937
856.996	21972
857.13	21892
857.263	21972
857.397	21831
857.53	21854
857.664	21880
857.797	21934
857.931	21846
858.064	21987
858.197	21907
858.331	21831
858.464	21781
858.597	21762
858.731	21804
858.864	21724
858.997	21675
859.13	21755
859.263	21873
859.396	21953
859.529	21808
859.662	21835
859.795	21793
859.928	21865
860.061	21953
860.194	22109
860.327	21945
860.46	21800
860.592	21994
860.725	21968
860.858	22025
860.99	21842
861.123	21797
861.256	21827
861.388	21911
861.521	22733
861.653	21622
861.786	21675
861.918	21614
862.05	21800
862.183	21682
862.315	21835
862.447	21804
862.58	21747
862.712	21523
862.844	21610
862.976	21591
863.108	21549
863.24	22025
863.372	21500
863.504	21500
863.636	21557
863.768	21530
863.9	21557
864.032	21492
864.164	21523
864.296	21709
864.428	21595
864.559	21625
864.691	21633
864.823	21545
864.954	21580
865.086	21462
865.217	21553
865.349	21359
865.48	21469
865.612	21511
865.743	21477
865.875	21397
866.006	21443
866.137	21397
866.269	21454
866.4	21386
866.531	21473
866.662	21313
866.793	21340
866.924	21348
867.055	21397
867.186	21416
867.317	21473
867.448	21340
867.579	21344
867.71	21237
867.841	21233
867.972	21279
868.103	21344
868.233	21466
868.364	21382
868.495	21367
868.625	21523
868.756	21732
868.886	21663
869.017	21572
869.147	21770
869.278	21759
869.408	21648
869.539	21587
869.669	21762
869.799	21720
869.929	21698
870.06	21671
870.19	21949
870.32	21953
870.45	21998
870.58	22040
870.71	22154
870.84	22078
870.97	21991
871.1	22002
871.23	22139
871.36	22204
871.489	22150
871.619	22109
871.749	22169
871.879	22276
872.008	22242
872.138	22287
872.267	22226
872.397	22139
872.526	21979
872.656	21964
872.785	22090
872.915	22265
873.044	22226
873.173	22196
873.303	22284
873.432	22303
873.561	22310
873.69	22284
873.819	22341
873.948	22295
874.077	22242
874.206	22150
874.335	22253
874.464	22299
874.593	22493
874.722	22470
874.851	22375
874.979	22481
875.108	22436
875.237	22481
875.365	22341
875.494	22375
875.623	22470
875.751	22417
875.88	22443
876.008	22622
876.136	22698
876.265	22812
876.393	22927
876.521	22942
876.65	22812
876.778	22816
876.906	22717
877.034	22736
877.162	22733
877.29	22793
877.418	22797
877.546	22790
877.674	22778
877.802	22713
877.93	22672
878.058	22816
878.185	22516
878.313	22744
878.441	22816
878.568	22725
878.696	22672
878.824	22771
878.951	22984
879.079	23033
879.206	23124
879.333	22904
879.461	22824
879.588	22965
879.715	23052
879.842	22953
879.97	22889
880.097	22721
880.224	22618
880.351	22569
880.478	22470
880.605	22546
880.732	22557
880.859	22812
880.986	22607
881.112	22603
881.239	22417
881.366	22322
881.493	22238
881.619	22181
881.746	22207
881.872	22101
881.999	22101
882.125	22112
882.252	22356
882.378	22204
882.505	22291
882.631	22017
882.757	21907
882.883	21918
883.01	21926
883.136	21766
883.262	21720
883.388	21804
883.514	21835
883.64	21854
883.766	21888
883.892	21580
884.018	21629
884.143	21816
884.269	21903
884.395	21542
884.52	21534
884.646	21610
884.772	21545
884.897	21416
885.023	21496
885.148	21561
885.274	21713
885.399	21485
885.524	21458
885.65	21504
885.775	21458
885.9	21523
886.025	21587
886.15	21595
886.275	21447
886.4	21374
886.525	21458
886.65	21591
886.775	21359
886.9	21587
887.025	21804
887.149	21435
887.274	21344
887.399	21340
887.523	21393
887.648	21256
887.773	21188
887.897	21298
888.021	21363
888.146	21245
888.27	21412
888.395	21382
888.519	21298
888.643	21370
888.767	21401
888.891	21199
889.015	21039
889.139	21081
889.263	21009
889.387	21119
889.511	21279
889.635	21169
889.759	21089
889.883	21077
890.006	21032
890.13	21135
890.254	20937
890.377	21077
890.501	20777
890.624	20834
890.748	20781
890.871	20743
890.995	20651
891.118	20689
891.241	20617
891.364	20583
891.488	20693
891.611	20583
891.734	20678
891.857	20663
891.98	20640
892.103	20689
892.226	20590
892.349	20568
892.471	20415
892.594	20522
892.717	20602
892.839	20629
892.962	20644
893.085	20564
893.207	20457
893.33	20366
893.452	20343
893.575	20568
893.697	20511
893.819	20617
893.941	20689
894.064	20575
894.186	20366
894.308	20480
894.43	20644
894.552	20697
894.674	20537
894.796	20347
894.918	20480
895.04	20514
895.161	20594
895.283	20556
895.405	20530
895.526	20526
895.648	20396
895.769	20571
895.891	20461
896.012	20526
896.134	20579
896.255	20609
896.376	20476
896.498	20606
896.619	20644
896.74	20469
896.861	20682
896.982	20735
897.103	20952
897.224	20762
897.345	20708
897.466	20644
897.587	20655
897.708	20788
897.828	20636
897.949	20651
898.07	20678
898.19	20693
898.311	20792
898.431	20651
898.552	20758
898.672	20796
898.792	20712
898.913	20716
899.033	20689
899.153	20514
899.273	20396
899.393	20423
899.513	20549
899.633	20454
899.753	20644
899.873	20389
899.993	20541
900.113	20541
900.232	20530
900.352	20328
900.472	20298
900.591	20221
900.711	20309
900.83	20119
900.95	20282
901.069	20278
901.189	20259
901.308	19894
901.427	19849
901.546	19833
901.665	19795
901.784	19772
901.904	19613
902.023	19533
902.141	19441
902.26	19362
902.379	19445
902.498	19403
902.617	19384
902.735	19251
902.854	19293
902.973	19339
903.091	18985
903.21	18939
903.328	18958
903.446	18924
903.565	18817
903.683	18814
903.801	18639
903.919	18661
904.038	18726
904.156	18620
904.274	18623
904.392	18601
904.51	18544
904.627	18506
904.745	18734
904.863	18483
904.981	18334
905.098	18323
905.216	18167
905.334	18228
905.451	18232
905.569	18201
905.686	18289
905.803	18171
905.921	18034
906.038	18117
906.155	18045
906.272	17771
906.389	17931
906.506	17783
906.623	17836
906.74	17687
906.857	17646
906.974	17646
907.091	17707
907.208	17843
907.324	17832
907.441	17657
907.557	17566
907.674	17573
907.79	17421
907.907	17429
908.023	17471
908.139	17406
908.256	17444
908.372	17303
908.488	17288
908.604	17220
908.72	17064
908.836	17231
908.952	17117
909.068	17265
909.184	17311
909.3	17204
909.415	17292
909.531	17052
909.647	16980
909.762	16968
909.878	17006
909.993	16900
910.108	16736
910.224	16881
910.339	16866
910.454	16755
910.57	16759
910.685	16637
910.8	16892
910.915	16790
911.03	16691
911.145	16523
911.259	16542
911.374	16531
911.489	16428
911.604	16344
911.718	16192
911.833	16215
911.947	16150
912.062	16131
912.176	16162
912.291	16234
912.405	16272
912.519	16413
912.633	16451
912.748	16131
912.862	16166
912.976	16082
913.09	15865
913.204	15937
913.318	16074
913.431	16109
913.545	16105
913.659	16063
913.772	15998
913.886	15789
914	15816
914.113	15934
914.226	15945
914.34	15854
914.453	15739
914.566	15918
914.68	15690
914.793	15701
914.906	15534
915.019	15439
915.132	15420
915.245	15386
915.358	15374
915.47	15378
915.583	15515
915.696	15428
915.809	15542
915.921	15523
916.034	15302
916.146	15363
916.259	15325
916.371	15329
916.483	15313
916.595	15287
916.708	15203
916.82	15222
916.932	15192
917.044	15100
917.156	15237
917.268	15112
917.38	15051
917.491	15013
917.603	15112
917.715	15100
917.826	15203
917.938	14910
918.049	14937
918.161	14933
918.272	15195
918.384	15157
918.495	15028
918.606	14906
918.717	14811
918.828	14906
918.939	14796
919.05	14663
919.161	14796
919.272	14636
919.383	14640
919.494	14788
919.604	14990
919.715	14830
919.826	14708
919.936	14727
920.047	14834
920.157	14674
920.267	14933
920.378	14811
920.488	14746
920.598	14986
920.708	15013
920.818	14963
920.928	14834
921.038	15047
921.148	15097
921.258	14712
921.368	14670
921.477	14495
921.587	14507
921.697	14442
921.806	14560
921.916	14427
922.025	14195
922.134	14138
922.244	14096
922.353	14172
922.462	14134
922.571	13967
922.68	13807
922.789	13837
922.898	13841
923.007	13772
923.116	13791
923.224	13719
923.333	13689
923.442	13651
923.55	13662
923.659	13613
923.767	13655
923.876	13590
923.984	13613
924.092	13628
924.201	13590
924.309	13544
924.417	13464
924.525	13396
924.633	13438
924.741	14214
924.849	13282
924.956	13411
925.064	13285
925.172	13145
925.279	13228
925.387	13274
925.494	13088
925.602	13293
925.709	13190
925.816	13057
925.924	13190
926.031	13160
926.138	13103
926.245	13183
926.352	13012
926.459	13103
926.566	13209
926.673	13046
926.779	12913
926.886	12905
926.993	12688
927.099	12741
927.206	12760
927.312	12696
927.419	12833
927.525	12707
927.631	12829
927.737	12593
927.843	12642
927.95	12445
928.056	12540
928.162	12601
928.267	12627
928.373	13194
928.479	12525
928.585	12391
928.69	12479
928.796	12623
928.901	12448
929.007	12270
929.112	12365
929.218	12346
929.323	12334
929.428	12300
929.533	12448
929.638	12258
929.743	12270
929.848	12247
929.953	12258
930.058	12163
930.163	11920
930.267	11946
930.372	12091
930.477	11988
930.581	12121
930.685	12057
930.79	11790
930.894	11790
930.998	11794
931.103	11950
931.207	11558
931.311	11471
931.415	11330
931.519	11265
931.623	11258
