Data from test_V78500241_1905.txt Node
Date: Fri Mar 25 15:54:59 CST 2022
User: usil
Spectrometer: V785-0024
Trigger mode: 0
Integration Time (sec): 4.000000E-1
Scans to average: 1
Nonlinearity correction enabled: false
Boxcar width: 0
Storing dark spectrum: false
XAxis mode: Wavelengths
Number of Pixels in Spectrum: 1024
>>>>>Begin Spectral Data<<<<<
801.071	28744
801.214	28618
801.356	28405
801.499	28417
801.641	28185
801.783	28314
801.926	28356
802.068	28287
802.211	28234
802.353	28219
802.496	27934
802.638	27941
802.78	27994
802.923	27956
803.065	27926
803.208	27865
803.35	28025
803.492	28131
803.635	28188
803.777	28124
803.919	28204
804.061	28561
804.204	28280
804.346	28230
804.488	28173
804.63	28181
804.773	28211
804.915	28192
805.057	28322
805.199	28265
805.341	28314
805.483	28272
805.626	28280
805.768	28356
805.91	28379
806.052	28497
806.194	28299
806.336	28557
806.478	28394
806.62	28401
806.762	28531
806.904	28801
807.046	29022
807.188	28790
807.33	28752
807.472	28984
807.614	28790
807.756	28812
807.898	28660
808.04	28812
808.182	28698
808.324	28542
808.465	28744
808.607	29006
808.749	29029
808.891	29189
809.033	29273
809.174	29105
809.316	29075
809.458	29284
809.6	29280
809.741	29181
809.883	29326
810.025	29440
810.166	29326
810.308	29436
810.45	29425
810.591	29421
810.733	29155
810.875	29147
811.016	28968
811.158	28961
811.299	29117
811.441	29189
811.582	29250
811.724	29174
811.865	28949
812.007	28957
812.148	29124
812.29	29124
812.431	29151
812.573	29337
812.714	29551
812.855	29627
812.997	29646
813.138	29790
813.279	29840
813.421	29634
813.562	29478
813.703	29425
813.845	29315
813.986	29090
814.127	28949
814.268	28763
814.41	28782
814.551	28797
814.692	28930
814.833	28710
814.974	28843
815.115	28778
815.256	28771
815.397	28675
815.539	28675
815.68	28577
815.821	28630
815.962	28569
816.103	28554
816.244	28348
816.385	28356
816.526	28310
816.666	28341
816.807	28074
816.948	28234
817.089	28105
817.23	28158
817.371	27991
817.512	28120
817.653	28154
817.793	27907
817.934	28177
818.075	28219
818.216	28169
818.356	28128
818.497	28055
818.638	27781
818.778	27865
818.919	27808
819.06	27911
819.2	27975
819.341	28181
819.481	28063
819.622	28303
819.762	28424
819.903	28440
820.043	28287
820.184	28257
820.324	28299
820.465	28314
820.605	28116
820.746	28128
820.886	28105
821.026	28154
821.167	28147
821.307	28188
821.447	28112
821.588	28135
821.728	27762
821.868	27739
822.008	27701
822.149	27526
822.289	27682
822.429	27348
822.569	27321
822.709	27313
822.849	27226
822.99	27005
823.13	27123
823.27	26960
823.41	26906
823.55	26853
823.69	26963
823.83	26979
823.97	26830
824.11	26785
824.25	26598
824.389	26651
824.529	26746
824.669	26819
824.809	26918
824.949	26883
825.089	26944
825.228	26788
825.368	26575
825.508	26564
825.648	26720
825.787	26636
825.927	26743
826.067	26644
826.206	26712
826.346	26686
826.485	26727
826.625	26575
826.765	26693
826.904	26530
827.044	26385
827.183	26549
827.323	26446
827.462	26412
827.601	26286
827.741	26377
827.88	26324
828.02	26161
828.159	26301
828.298	26324
828.437	26427
828.577	26233
828.716	26492
828.855	26210
828.994	26115
829.134	26027
829.273	26016
829.412	26027
829.551	25997
829.69	25928
829.829	26084
829.968	26252
830.107	26122
830.246	25986
830.385	25909
830.524	25940
830.663	25822
830.802	25807
830.941	25620
831.08	25495
831.219	25708
831.357	25677
831.496	25902
831.635	25632
831.774	25571
831.913	25453
832.051	25422
832.19	25457
832.329	25499
832.467	25354
832.606	25137
832.744	25228
832.883	25240
833.022	25335
833.16	25308
833.299	25289
833.437	25308
833.576	25365
833.714	25350
833.852	25377
833.991	25308
834.129	25460
834.267	25407
834.406	25343
834.544	25335
834.682	25282
834.821	25354
834.959	25518
835.097	25232
835.235	25552
835.373	25232
835.511	25327
835.65	25160
835.788	25236
835.926	25099
836.064	25118
836.202	25099
836.34	25118
836.478	25236
836.615	25152
836.753	25343
836.891	25304
837.029	25240
837.167	25156
837.305	25114
837.443	25031
837.58	24958
837.718	25034
837.856	24913
837.993	24989
838.131	24985
838.269	24871
838.406	24890
838.544	24867
838.681	24722
838.819	24654
838.956	24467
839.094	24342
839.231	24559
839.369	24570
839.506	24909
839.643	24768
839.781	24623
839.918	24388
840.055	24559
840.193	24433
840.33	24429
840.467	24521
840.604	24308
840.742	24631
840.879	24304
841.016	24273
841.153	24296
841.29	24418
841.427	24346
841.564	24357
841.701	24452
841.838	24304
841.975	24334
842.112	24182
842.249	24319
842.385	24197
842.522	24258
842.659	24262
842.796	24102
842.933	24102
843.069	24057
843.206	24114
843.343	24228
843.479	24117
843.616	24117
843.752	23870
843.889	23954
844.025	23996
844.162	23988
844.298	24064
844.435	23836
844.571	23912
844.708	24018
844.844	23935
844.98	24015
845.117	23942
845.253	23836
845.389	23726
845.525	23756
845.661	23863
845.798	23531
845.934	23634
846.07	23531
846.206	23566
846.342	23790
846.478	23687
846.614	23376
846.75	23246
846.886	23322
847.022	23349
847.158	23337
847.294	23231
847.429	23345
847.565	23326
847.701	23585
847.837	23204
847.972	23010
848.108	23098
848.244	23162
848.379	22885
848.515	23086
848.65	22782
848.786	22972
848.921	22911
849.057	23037
849.192	23037
849.328	22942
849.463	23033
849.598	22957
849.734	22763
849.869	22824
850.004	22744
850.14	22672
850.275	22763
850.41	22592
850.545	22664
850.68	22656
850.815	22656
850.95	22759
851.085	22839
851.22	22850
851.355	22729
851.49	22653
851.625	22744
851.76	22713
851.895	22542
852.03	22660
852.165	22634
852.299	22767
852.434	22755
852.569	22710
852.703	22755
852.838	22740
852.973	22862
853.107	22698
853.242	22599
853.376	22622
853.511	22493
853.645	22421
853.78	22664
853.914	22637
854.048	22519
854.183	22523
854.317	22504
854.451	22733
854.585	22516
854.72	22561
854.854	22527
854.988	22500
855.122	22573
855.256	22405
855.39	22641
855.524	22569
855.658	22470
855.792	22664
855.926	22367
856.06	22542
856.194	22569
856.327	22493
856.461	22405
856.595	22455
856.729	22523
856.862	22580
856.996	22702
857.13	22599
857.263	22577
857.397	22611
857.53	22474
857.664	22588
857.797	22523
857.931	22626
858.064	22561
858.197	22577
858.331	22390
858.464	22485
858.597	22504
858.731	22489
858.864	22542
858.997	22554
859.13	22451
859.263	22569
859.396	22675
859.529	22432
859.662	22424
859.795	22306
859.928	22527
860.061	22626
860.194	22679
860.327	22694
860.46	22531
860.592	22535
860.725	22630
860.858	22653
860.99	22546
861.123	22451
861.256	22478
861.388	22523
861.521	23345
861.653	22344
861.786	22386
861.918	22360
862.05	22325
862.183	22474
862.315	22421
862.447	22546
862.58	22417
862.712	22261
862.844	22291
862.976	22402
863.108	22310
863.24	22675
863.372	22169
863.504	22143
863.636	22322
863.768	22268
863.9	22238
864.032	22344
864.164	22109
864.296	22196
864.428	22322
864.559	22337
864.691	22287
864.823	22280
864.954	22234
865.086	22204
865.217	22055
865.349	22074
865.48	22029
865.612	22109
865.743	22337
865.875	22109
866.006	21953
866.137	22093
866.269	22078
866.4	22143
866.531	22070
866.662	21949
866.793	22109
866.924	22036
867.055	22120
867.186	21987
867.317	22017
867.448	21968
867.579	22116
867.71	22010
867.841	21972
867.972	21991
868.103	21983
868.233	21964
868.364	22002
868.495	22200
868.625	22230
868.756	22344
868.886	22188
869.017	22367
869.147	22394
869.278	22356
869.408	22219
869.539	22295
869.669	22360
869.799	22154
869.929	22443
870.06	22375
870.19	22512
870.32	22634
870.45	22637
870.58	22717
870.71	22744
870.84	22683
870.97	22672
871.1	22622
871.23	22748
871.36	22843
871.489	22786
871.619	22908
871.749	22892
871.879	22949
872.008	22965
872.138	22869
872.267	22892
872.397	22702
872.526	22763
872.656	22752
872.785	22774
872.915	22938
873.044	22976
873.173	22919
873.303	22869
873.432	22908
873.561	23003
873.69	22961
873.819	22889
873.948	22972
874.077	22786
874.206	22908
874.335	22946
874.464	23052
874.593	23181
874.722	23109
874.851	23117
874.979	23041
875.108	23098
875.237	23075
875.365	22987
875.494	23003
875.623	23220
875.751	23022
875.88	23006
876.008	23159
876.136	23364
876.265	23543
876.393	23680
876.521	23566
876.65	23512
876.778	23425
876.906	23326
877.034	23497
877.162	23261
877.29	23414
877.418	23433
877.546	23421
877.674	23387
877.802	23493
877.93	23486
878.058	23436
878.185	23307
878.313	23440
878.441	23520
878.568	23280
878.696	23372
878.824	23558
878.951	23459
879.079	23634
879.206	23726
879.333	23596
879.461	23433
879.588	23543
879.715	23482
879.842	23783
879.97	23444
880.097	23258
880.224	23235
880.351	23216
880.478	23322
880.605	23200
880.732	23254
880.859	23486
880.986	23250
881.112	23303
881.239	23090
881.366	23029
881.493	22850
881.619	23010
881.746	22736
881.872	22782
881.999	22755
882.125	22733
882.252	22831
882.378	22771
882.505	22881
882.631	22733
882.757	22607
882.883	22557
883.01	22573
883.136	22459
883.262	22409
883.388	22409
883.514	22500
883.64	22485
883.766	22413
883.892	22253
884.018	22276
884.143	22424
884.269	22527
884.395	22253
884.52	22150
884.646	22120
884.772	21979
884.897	21994
885.023	22097
885.148	22207
885.274	22226
885.399	22394
885.524	22063
885.65	22291
885.775	22120
885.9	22074
886.025	22067
886.15	22299
886.275	22177
886.4	21979
886.525	22074
886.65	22188
886.775	22135
886.9	22177
887.025	22265
887.149	22074
887.274	21987
887.399	21865
887.523	21819
887.648	21873
887.773	21781
887.897	22006
888.021	21983
888.146	21857
888.27	21895
888.395	21956
888.519	21949
888.643	21945
888.767	22010
888.891	21766
889.015	21595
889.139	21759
889.263	21713
889.387	21823
889.511	21857
889.635	21793
889.759	21576
889.883	21557
890.006	21838
890.13	21781
890.254	21686
890.377	21591
890.501	21313
890.624	21355
890.748	21458
890.871	21275
890.995	21146
891.118	21203
891.241	21192
891.364	21359
891.488	21393
891.611	21211
891.734	21138
891.857	21294
891.98	21192
892.103	21203
892.226	21116
892.349	21180
892.471	21009
892.594	21024
892.717	21184
892.839	21100
892.962	21131
893.085	21222
893.207	21184
893.33	20986
893.452	21017
893.575	21100
893.697	21089
893.819	21344
893.941	21397
894.064	21306
894.186	21074
894.308	20899
894.43	21230
894.552	21332
894.674	21214
894.796	21131
894.918	21142
895.04	21066
895.161	21108
895.283	21081
895.405	21017
895.526	21146
895.648	21119
895.769	21131
895.891	21112
896.012	21184
896.134	21195
896.255	21180
896.376	21047
896.498	21032
896.619	21157
896.74	21157
896.861	21142
896.982	21367
897.103	21583
897.224	21351
897.345	21245
897.466	21340
897.587	21416
897.708	21382
897.828	21458
897.949	21203
898.07	21100
898.19	21154
898.311	21401
898.431	21199
898.552	21264
898.672	21313
898.792	21264
898.913	21336
899.033	21192
899.153	21131
899.273	20971
899.393	20853
899.513	20986
899.633	20998
899.753	21036
899.873	20982
899.993	21039
900.113	20941
900.232	20883
900.352	21005
900.472	20788
900.591	20781
900.711	20792
900.83	20891
900.95	20899
901.069	20887
901.189	20648
901.308	20484
901.427	20423
901.546	20442
901.665	20282
901.784	20305
901.904	20263
902.023	20084
902.141	20039
902.26	19932
902.379	19928
902.498	19860
902.617	19723
902.735	19959
902.854	19795
902.973	19776
903.091	19586
903.21	19476
903.328	19537
903.446	19415
903.565	19335
903.683	19266
903.801	19183
903.919	19331
904.038	19266
904.156	19118
904.274	19198
904.392	19095
904.51	18951
904.627	19095
904.745	19107
904.863	19084
904.981	18829
905.098	18768
905.216	18730
905.334	18776
905.451	18722
905.569	18627
905.686	18726
905.803	18715
905.921	18506
906.038	18696
906.155	18578
906.272	18467
906.389	18376
906.506	18281
906.623	18323
906.74	18254
906.857	18133
906.974	18106
907.091	18327
907.208	18353
907.324	18277
907.441	18121
907.557	17999
907.674	17965
907.79	17950
907.907	17973
908.023	18019
908.139	18003
908.256	17836
908.372	17889
908.488	17764
908.604	17699
908.72	17604
908.836	17718
908.952	17657
909.068	17657
909.184	17813
909.3	17703
909.415	17722
909.531	17661
909.647	17493
909.762	17486
909.878	17273
909.993	17383
910.108	17360
910.224	17360
910.339	17372
910.454	17239
910.57	17128
910.685	17075
910.8	17379
910.915	17280
911.03	17166
911.145	17018
911.259	16938
911.374	16961
911.489	16877
911.604	16812
911.718	16740
911.833	16687
911.947	16577
912.062	16565
912.176	16782
912.291	16763
912.405	16637
912.519	16862
912.633	16835
912.748	16782
912.862	16683
912.976	16531
913.09	16466
913.204	16512
913.318	16535
913.431	16668
913.545	16508
913.659	16592
913.772	16504
913.886	16375
914	16318
914.113	16348
914.226	16413
914.34	16268
914.453	16200
914.566	16265
914.68	16051
914.793	16101
914.906	16105
915.019	15911
915.132	15812
915.245	15907
915.358	15861
915.47	15861
915.583	15831
915.696	15850
915.809	15987
915.921	15937
916.034	15781
916.146	15781
916.259	15789
916.371	15759
916.483	15774
916.595	15652
916.708	15816
916.82	15728
916.932	15622
917.044	15736
917.156	15747
917.268	15431
917.38	15496
917.491	15504
917.603	15389
917.715	15523
917.826	15576
917.938	15504
918.049	15355
918.161	15439
918.272	15542
918.384	15542
918.495	15386
918.606	15218
918.717	15264
918.828	15329
918.939	15272
919.05	15146
919.161	15264
919.272	15062
919.383	15119
919.494	15245
919.604	15382
919.715	15195
919.826	15112
919.936	15093
920.047	15199
920.157	15214
920.267	15435
920.378	15184
920.488	15195
920.598	15340
920.708	15511
920.818	15302
920.928	15226
921.038	15481
921.148	15405
921.258	15150
921.368	15032
921.477	14910
921.587	14937
921.697	14762
921.806	14921
921.916	14727
922.025	14571
922.134	14514
922.244	14457
922.353	14480
922.462	14427
922.571	14370
922.68	14134
922.789	14134
922.898	14317
923.007	14149
923.116	14244
923.224	14164
923.333	14092
923.442	14115
923.55	13986
923.659	13989
923.767	14054
923.876	13894
923.984	13970
924.092	13959
924.201	13951
924.309	13993
924.417	13955
924.525	13818
924.633	13875
924.741	14537
924.849	13757
924.956	13769
925.064	13609
925.172	13476
925.279	13533
925.387	13632
925.494	13552
925.602	13712
925.709	13685
925.816	13567
925.924	13544
926.031	13518
926.138	13506
926.245	13540
926.352	13312
926.459	13575
926.566	13620
926.673	13445
926.779	13285
926.886	13388
926.993	13164
927.099	13221
927.206	13110
927.312	13095
927.419	13164
927.525	13084
927.631	13126
927.737	12996
927.843	12993
927.95	12814
928.056	12989
928.162	13015
928.267	12913
928.373	13540
928.479	13019
928.585	12753
928.69	12871
928.796	12916
928.901	12749
929.007	12601
929.112	12905
929.218	12749
929.323	12734
929.428	12570
929.533	12753
929.638	12525
929.743	12521
929.848	12623
929.953	12578
930.058	12506
930.163	12296
930.267	12315
930.372	12365
930.477	12273
930.581	12555
930.685	12418
930.79	12083
930.894	12171
930.998	12216
931.103	12300
931.207	11965
931.311	11901
931.415	11805
931.519	11585
931.623	11577
