Data from test_V78500241_2335.txt Node
Date: Fri Mar 25 15:57:58 CST 2022
User: usil
Spectrometer: V785-0024
Trigger mode: 0
Integration Time (sec): 4.000000E-1
Scans to average: 1
Nonlinearity correction enabled: false
Boxcar width: 0
Storing dark spectrum: false
XAxis mode: Wavelengths
Number of Pixels in Spectrum: 1024
>>>>>Begin Spectral Data<<<<<
801.071	28432
801.214	28447
801.356	28070
801.499	28048
801.641	27964
801.783	27918
801.926	27979
802.068	27876
802.211	27991
802.353	27739
802.496	27842
802.638	27781
802.78	27572
802.923	27580
803.065	27412
803.208	27549
803.35	27701
803.492	27797
803.635	27846
803.777	27686
803.919	27774
804.061	28139
804.204	27991
804.346	27823
804.488	27781
804.63	27888
804.773	27728
804.915	27968
805.057	28078
805.199	27861
805.341	28025
805.483	28143
805.626	27945
805.768	27819
805.91	28017
806.052	28044
806.194	28010
806.336	28158
806.478	28059
806.62	27979
806.762	28166
806.904	28299
807.046	28459
807.188	28459
807.33	28535
807.472	28615
807.614	28538
807.756	28516
807.898	28356
808.04	28249
808.182	28196
808.324	28348
808.465	28344
808.607	28656
808.749	28717
808.891	28694
809.033	28694
809.174	28850
809.316	28611
809.458	28713
809.6	28656
809.741	28900
809.883	28923
810.025	28946
810.166	28927
810.308	29071
810.45	28927
810.591	28877
810.733	28847
810.875	28668
811.016	28611
811.158	28679
811.299	28820
811.441	28919
811.582	28763
811.724	28740
811.865	28668
812.007	28691
812.148	28759
812.29	28691
812.431	28911
812.573	28995
812.714	29223
812.855	29155
812.997	29349
813.138	29398
813.279	29292
813.421	29181
813.562	29109
813.703	28995
813.845	28930
813.986	28691
814.127	28508
814.268	28390
814.41	28394
814.551	28440
814.692	28428
814.833	28375
814.974	28459
815.115	28481
815.256	28246
815.397	28436
815.539	28325
815.68	28185
815.821	28120
815.962	28249
816.103	28238
816.244	28188
816.385	28128
816.526	28013
816.666	27838
816.807	27675
816.948	27823
817.089	27842
817.23	27690
817.371	27774
817.512	27675
817.653	27682
817.793	27679
817.934	27785
818.075	27682
818.216	27717
818.356	27644
818.497	27580
818.638	27511
818.778	27370
818.919	27523
819.06	27526
819.2	27633
819.341	27804
819.481	27755
819.622	27895
819.762	28044
819.903	27895
820.043	27991
820.184	27907
820.324	27842
820.465	27717
820.605	27884
820.746	27846
820.886	27709
821.026	27835
821.167	27728
821.307	27770
821.447	27842
821.588	27599
821.728	27511
821.868	27374
822.008	27382
822.149	27226
822.289	27260
822.429	26895
822.569	26864
822.709	26819
822.849	26648
822.99	26773
823.13	26644
823.27	26686
823.41	26564
823.55	26320
823.69	26469
823.83	26568
823.97	26457
824.11	26305
824.25	26286
824.389	26351
824.529	26495
824.669	26358
824.809	26461
824.949	26473
825.089	26309
825.228	26336
825.368	26202
825.508	26294
825.648	26206
825.787	26221
825.927	26263
826.067	26157
826.206	26309
826.346	26294
826.485	26252
826.625	26210
826.765	26404
826.904	26180
827.044	25883
827.183	26130
827.323	25951
827.462	25959
827.601	25982
827.741	25871
827.88	26100
828.02	25921
828.159	25883
828.298	25982
828.437	26062
828.577	25856
828.716	26081
828.855	25925
828.994	25677
829.134	25544
829.273	25655
829.412	25757
829.551	25499
829.69	25571
829.829	25655
829.968	25704
830.107	25632
830.246	25586
830.385	25445
830.524	25571
830.663	25502
830.802	25479
830.941	25289
831.08	25107
831.219	25289
831.357	25335
831.496	25552
831.635	25228
831.774	25187
831.913	25099
832.051	25015
832.19	25114
832.329	25118
832.467	24973
832.606	24878
832.744	24871
832.883	24840
833.022	24863
833.16	24894
833.299	24954
833.437	24837
833.576	24962
833.714	24962
833.852	24962
833.991	24916
834.129	24897
834.267	24928
834.406	24856
834.544	24989
834.682	24901
834.821	24848
834.959	25103
835.097	25019
835.235	24958
835.373	25015
835.511	25023
835.65	24764
835.788	24863
835.926	24661
836.064	24604
836.202	24623
836.34	24726
836.478	24905
836.615	24719
836.753	24844
836.891	24806
837.029	24779
837.167	24669
837.305	24703
837.443	24715
837.58	24604
837.718	24760
837.856	24764
837.993	24604
838.131	24452
838.269	24486
838.406	24513
838.544	24521
838.681	24266
838.819	24125
838.956	24095
839.094	24129
839.231	24186
839.369	24266
839.506	24433
839.643	24315
839.781	24022
839.918	23961
840.055	24140
840.193	24068
840.33	23916
840.467	23923
840.604	24045
840.742	24353
840.879	23950
841.016	23798
841.153	23840
841.29	24152
841.427	24041
841.564	24011
841.701	23931
841.838	23961
841.975	23920
842.112	23851
842.249	23840
842.385	23748
842.522	23996
842.659	23859
842.796	23786
842.933	23707
843.069	23726
843.206	23733
843.343	23874
843.479	23923
843.616	23570
843.752	23615
843.889	23535
844.025	23691
844.162	23589
844.298	23589
844.435	23459
844.571	23512
844.708	23627
844.844	23699
844.98	23627
845.117	23634
845.253	23501
845.389	23425
845.525	23467
845.661	23414
845.798	23212
845.934	23433
846.07	23128
846.206	23216
846.342	23387
846.478	23170
846.614	23147
846.75	22930
846.886	23090
847.022	23094
847.158	23121
847.294	23083
847.429	23231
847.565	22908
847.701	23273
847.837	22755
847.972	22786
848.108	22908
848.244	22892
848.379	22733
848.515	22599
848.65	22459
848.786	22634
848.921	22546
849.057	22694
849.192	22774
849.328	22603
849.463	22592
849.598	22626
849.734	22622
849.869	22466
850.004	22481
850.14	22333
850.275	22462
850.41	22367
850.545	22299
850.68	22303
850.815	22512
850.95	22497
851.085	22459
851.22	22577
851.355	22440
851.49	22421
851.625	22314
851.76	22295
851.895	22204
852.03	22219
852.165	22360
852.299	22348
852.434	22478
852.569	22554
852.703	22299
852.838	22402
852.973	22493
853.107	22493
853.242	22322
853.376	22109
853.511	22055
853.645	22246
853.78	22295
853.914	22154
854.048	22002
854.183	22196
854.317	22158
854.451	22462
854.585	22196
854.72	22211
854.854	22246
854.988	22074
855.122	22291
855.256	22185
855.39	22124
855.524	22284
855.658	22257
855.792	22207
855.926	22169
856.06	22124
856.194	22185
856.327	22181
856.461	22169
856.595	22086
856.729	22162
856.862	22375
856.996	22196
857.13	22318
857.263	22242
857.397	22261
857.53	22166
857.664	22265
857.797	22242
857.931	22356
858.064	22226
858.197	22371
858.331	22105
858.464	22120
858.597	22044
858.731	22169
858.864	22154
858.997	22109
859.13	22097
859.263	22135
859.396	22131
859.529	22150
859.662	22169
859.795	22166
859.928	22223
860.061	22379
860.194	22375
860.327	22116
860.46	22177
860.592	22421
860.725	22402
860.858	22276
860.99	22200
861.123	22215
861.256	22223
861.388	22158
861.521	22938
861.653	22063
861.786	21945
861.918	21983
862.05	22059
862.183	22185
862.315	22070
862.447	22105
862.58	22090
862.712	21911
862.844	21884
862.976	21983
863.108	21964
863.24	22451
863.372	21793
863.504	21759
863.636	21816
863.768	22067
863.9	22006
864.032	21865
864.164	21876
864.296	21827
864.428	21915
864.559	21812
864.691	22002
864.823	21747
864.954	21823
865.086	21895
865.217	21778
865.349	21812
865.48	21736
865.612	21778
865.743	21937
865.875	21846
866.006	21747
866.137	21827
866.269	21804
866.4	21781
866.531	21679
866.662	21648
866.793	21698
866.924	21728
867.055	21789
867.186	21675
867.317	21743
867.448	21561
867.579	21576
867.71	21580
867.841	21583
867.972	21865
868.103	21705
868.233	21686
868.364	21739
868.495	21755
868.625	21945
868.756	22010
868.886	21949
869.017	21819
869.147	22082
869.278	22036
869.408	21915
869.539	21972
869.669	22017
869.799	22021
869.929	22147
870.06	22109
870.19	22257
870.32	22337
870.45	22261
870.58	22329
870.71	22375
870.84	22440
870.97	22253
871.1	22455
871.23	22546
871.36	22596
871.489	22500
871.619	22447
871.749	22485
871.879	22550
872.008	22683
872.138	22660
872.267	22466
872.397	22489
872.526	22390
872.656	22382
872.785	22329
872.915	22577
873.044	22637
873.173	22512
873.303	22603
873.432	22683
873.561	22763
873.69	22550
873.819	22603
873.948	22630
874.077	22641
874.206	22588
874.335	22641
874.464	22611
874.593	22847
874.722	22717
874.851	22653
874.979	22771
875.108	22767
875.237	22599
875.365	22710
875.494	22752
875.623	22786
875.751	22771
875.88	22733
876.008	22991
876.136	22957
876.265	23090
876.393	23227
876.521	23208
876.65	23288
876.778	23292
876.906	23044
877.034	23162
877.162	23090
877.29	23033
877.418	23121
877.546	23132
877.674	23121
877.802	23162
877.93	23223
878.058	23124
878.185	23048
878.313	23102
878.441	23022
878.568	22930
878.696	23197
878.824	23075
878.951	23296
879.079	23273
879.206	23341
879.333	23296
879.461	23159
879.588	23212
879.715	23231
879.842	23273
879.97	23140
880.097	22995
880.224	22953
880.351	23064
880.478	22946
880.605	23025
880.732	22957
880.859	23231
880.986	22885
881.112	22942
881.239	22847
881.366	22645
881.493	22588
881.619	22573
881.746	22569
881.872	22634
881.999	22432
882.125	22527
882.252	22470
882.378	22527
882.505	22538
882.631	22341
882.757	22181
882.883	22322
883.01	22154
883.136	22093
883.262	21998
883.388	22090
883.514	22173
883.64	22124
883.766	22150
883.892	21934
884.018	22032
884.143	22219
884.269	22082
884.395	21892
884.52	21728
884.646	21797
884.772	21759
884.897	21823
885.023	21751
885.148	21941
885.274	21941
885.399	21899
885.524	21892
885.65	21785
885.775	21922
885.9	21701
886.025	21949
886.15	21930
886.275	21709
886.4	21675
886.525	21663
886.65	21819
886.775	21637
886.9	21846
887.025	22025
887.149	21705
887.274	21576
887.399	21625
887.523	21576
887.648	21580
887.773	21389
887.897	21538
888.021	21614
888.146	21374
888.27	21709
888.395	21732
888.519	21622
888.643	21564
888.767	21549
888.891	21481
889.015	21420
889.139	21386
889.263	21199
889.387	21515
889.511	21545
889.635	21428
889.759	21389
889.883	21291
890.006	21287
890.13	21473
890.254	21207
890.377	21287
890.501	21146
890.624	21138
890.748	21036
890.871	20952
890.995	20853
891.118	20906
891.241	20864
891.364	20967
891.488	21062
891.611	20925
891.734	21001
891.857	21005
891.98	20906
892.103	20971
892.226	21043
892.349	20975
892.471	20720
892.594	20880
892.717	20819
892.839	20781
892.962	20830
893.085	21051
893.207	20724
893.33	20811
893.452	20724
893.575	20804
893.697	20849
893.819	21020
893.941	21062
894.064	20929
894.186	20727
894.308	20796
894.43	20872
894.552	20925
894.674	20872
894.796	20686
894.918	20826
895.04	20758
895.161	20838
895.283	20750
895.405	20838
895.526	20804
895.648	20891
895.769	20792
895.891	20807
896.012	20815
896.134	20762
896.255	20872
896.376	20678
896.498	20910
896.619	20842
896.74	20777
896.861	20785
896.982	21112
897.103	21245
897.224	21096
897.345	20967
897.466	20872
897.587	21043
897.708	21108
897.828	20902
897.949	20849
898.07	20838
898.19	20883
898.311	21070
898.431	20994
898.552	21127
898.672	20967
898.792	20967
898.913	21032
899.033	20910
899.153	20826
899.273	20617
899.393	20716
899.513	20743
899.633	20708
899.753	20754
899.873	20804
899.993	20705
900.113	20826
900.232	20670
900.352	20632
900.472	20594
900.591	20434
900.711	20446
900.83	20549
900.95	20606
901.069	20590
901.189	20473
901.308	20240
901.427	20031
901.546	20027
901.665	20096
901.784	20005
901.904	19963
902.023	19833
902.141	19712
902.26	19670
902.379	19601
902.498	19700
902.617	19506
902.735	19620
902.854	19578
902.973	19533
903.091	19312
903.21	19263
903.328	19225
903.446	19190
903.565	19099
903.683	19031
903.801	18970
903.919	19012
904.038	18932
904.156	18859
904.274	18833
904.392	18665
904.51	18981
904.627	18798
904.745	18916
904.863	18890
904.981	18513
905.098	18471
905.216	18525
905.334	18399
905.451	18426
905.569	18525
905.686	18460
905.803	18490
905.921	18262
906.038	18342
906.155	18220
906.272	18273
906.389	18129
906.506	17939
906.623	18041
906.74	17931
906.857	17988
906.974	17927
907.091	18072
907.208	18148
907.324	18133
907.441	17802
907.557	17764
907.674	17722
907.79	17649
907.907	17668
908.023	17722
908.139	17729
908.256	17630
908.372	17592
908.488	17532
908.604	17539
908.72	17444
908.836	17448
908.952	17417
909.068	17512
909.184	17585
909.3	17349
909.415	17467
909.531	17452
909.647	17174
909.762	17105
909.878	17060
909.993	17254
910.108	17094
910.224	17022
910.339	17185
910.454	16934
910.57	16892
910.685	16744
910.8	17174
910.915	17136
911.03	16873
911.145	16733
911.259	16637
911.374	16672
911.489	16592
911.604	16561
911.718	16523
911.833	16405
911.947	16375
912.062	16303
912.176	16402
912.291	16489
912.405	16402
912.519	16542
912.633	16645
912.748	16481
912.862	16470
912.976	16166
913.09	16246
913.204	16246
913.318	16314
913.431	16310
913.545	16440
913.659	16402
913.772	16230
913.886	16128
914	16109
914.113	16200
914.226	16158
914.34	16109
914.453	15876
914.566	16147
914.68	15884
914.793	15949
914.906	15819
915.019	15656
915.132	15660
915.245	15641
915.358	15720
915.47	15709
915.583	15694
915.696	15625
915.809	15644
915.921	15804
916.034	15625
916.146	15545
916.259	15542
916.371	15618
916.483	15625
916.595	15584
916.708	15511
916.82	15488
916.932	15443
917.044	15466
917.156	15405
917.268	15252
917.38	15439
917.491	15340
917.603	15389
917.715	15351
917.826	15386
917.938	15272
918.049	15085
918.161	15329
918.272	15397
918.384	15378
918.495	15116
918.606	15150
918.717	15055
918.828	15150
918.939	15024
919.05	14963
919.161	14994
919.272	14861
919.383	14982
919.494	15077
919.604	15283
919.715	15047
919.826	14842
919.936	15028
920.047	15131
920.157	15009
920.267	15245
920.378	15017
920.488	14986
920.598	15237
920.708	15230
920.818	15176
920.928	15192
921.038	15252
921.148	15268
921.258	14963
921.368	14864
921.477	14788
921.587	14727
921.697	14610
921.806	14705
921.916	14549
922.025	14374
922.134	14412
922.244	14336
922.353	14442
922.462	14305
922.571	14237
922.68	14043
922.789	14012
922.898	14031
923.007	13947
923.116	14065
923.224	13955
923.333	13928
923.442	13887
923.55	13772
923.659	13974
923.767	13909
923.876	13696
923.984	13849
924.092	13738
924.201	13837
924.309	13742
924.417	13784
924.525	13632
924.633	13723
924.741	14606
924.849	13483
924.956	13601
925.064	13499
925.172	13411
925.279	13403
925.387	13457
925.494	13407
925.602	13533
925.709	13407
925.816	13324
925.924	13346
926.031	13381
926.138	13285
926.245	13445
926.352	13270
926.459	13343
926.566	13415
926.673	13259
926.779	13103
926.886	13171
926.993	13023
927.099	12970
927.206	12962
927.312	12924
927.419	13004
927.525	13042
927.631	12993
927.737	12791
927.843	12802
927.95	12627
928.056	12715
928.162	12833
928.267	12844
928.373	13403
928.479	12878
928.585	12654
928.69	12711
928.796	12776
928.901	12665
929.007	12391
929.112	12620
929.218	12547
929.323	12547
929.428	12441
929.533	12578
929.638	12452
929.743	12464
929.848	12456
929.953	12330
930.058	12281
930.163	12186
930.267	12224
930.372	12296
930.477	12083
930.581	12414
930.685	12232
930.79	12091
930.894	12106
930.998	11980
931.103	12155
931.207	11726
931.311	11699
931.415	11710
931.519	11478
931.623	11425
