Data from test_V78500241_1770.txt Node
Date: Fri Mar 25 15:54:03 CST 2022
User: usil
Spectrometer: V785-0024
Trigger mode: 0
Integration Time (sec): 4.000000E-1
Scans to average: 1
Nonlinearity correction enabled: false
Boxcar width: 0
Storing dark spectrum: false
XAxis mode: Wavelengths
Number of Pixels in Spectrum: 1024
>>>>>Begin Spectral Data<<<<<
801.071	28729
801.214	28850
801.356	28569
801.499	28565
801.641	28481
801.783	28382
801.926	28550
802.068	28478
802.211	28306
802.353	28352
802.496	28246
802.638	28215
802.78	28185
802.923	28051
803.065	28063
803.208	28162
803.35	28109
803.492	28363
803.635	28428
803.777	28169
803.919	28375
804.061	28763
804.204	28523
804.346	28382
804.488	28356
804.63	28466
804.773	28306
804.915	28531
805.057	28557
805.199	28398
805.341	28523
805.483	28683
805.626	28546
805.768	28504
805.91	28580
806.052	28618
806.194	28519
806.336	28748
806.478	28615
806.62	28580
806.762	28774
806.904	28782
807.046	29143
807.188	29064
807.33	29155
807.472	29090
807.614	29033
807.756	29098
807.898	29014
808.04	28854
808.182	28786
808.324	28896
808.465	28930
808.607	29079
808.749	29242
808.891	29501
809.033	29448
809.174	29318
809.316	29143
809.458	29208
809.6	29170
809.741	29246
809.883	29482
810.025	29589
810.166	29562
810.308	29531
810.45	29585
810.591	29444
810.733	29330
810.875	29121
811.016	29155
811.158	29200
811.299	29391
811.441	29570
811.582	29531
811.724	29216
811.865	29170
812.007	29345
812.148	29326
812.29	29299
812.431	29398
812.573	29490
812.714	29707
812.855	29840
812.997	29992
813.138	29992
813.279	29908
813.421	29885
813.562	29767
813.703	29657
813.845	29596
813.986	29410
814.127	29018
814.268	29052
814.41	29079
814.551	29010
814.692	29060
814.833	29056
814.974	29037
815.115	28987
815.256	28790
815.397	28976
815.539	28968
815.68	28885
815.821	28729
815.962	28805
816.103	28984
816.244	28736
816.385	28721
816.526	28622
816.666	28386
816.807	28276
816.948	28348
817.089	28352
817.23	28284
817.371	28390
817.512	28280
817.653	28360
817.793	28204
817.934	28181
818.075	28284
818.216	28284
818.356	28291
818.497	28181
818.638	28048
818.778	28078
818.919	28135
819.06	28021
819.2	28261
819.341	28299
819.481	28386
819.622	28470
819.762	28653
819.903	28641
820.043	28592
820.184	28645
820.324	28386
820.465	28474
820.605	28497
820.746	28348
820.886	28306
821.026	28318
821.167	28367
821.307	28443
821.447	28485
821.588	28204
821.728	28162
821.868	27914
822.008	27827
822.149	27819
822.289	27865
822.429	27488
822.569	27496
822.709	27397
822.849	27321
822.99	27393
823.13	27222
823.27	27287
823.41	27180
823.55	26963
823.69	27123
823.83	27028
823.97	27165
824.11	26929
824.25	26887
824.389	26937
824.529	27085
824.669	26979
824.809	27176
824.949	27104
825.089	27085
825.228	26986
825.368	26868
825.508	26765
825.648	26868
825.787	26804
825.927	26872
826.067	26670
826.206	26746
826.346	26937
826.485	26899
826.625	26724
826.765	26948
826.904	26933
827.044	26617
827.183	26560
827.323	26613
827.462	26644
827.601	26689
827.741	26564
827.88	26602
828.02	26473
828.159	26556
828.298	26609
828.437	26446
828.577	26381
828.716	26781
828.855	26393
828.994	26275
829.134	26309
829.273	26313
829.412	26199
829.551	26317
829.69	26278
829.829	26263
829.968	26343
830.107	26412
830.246	26343
830.385	26187
830.524	26225
830.663	26157
830.802	25959
830.941	25769
831.08	25830
831.219	26050
831.357	25894
831.496	25974
831.635	26043
831.774	25799
831.913	25712
832.051	25742
832.19	25708
832.329	25727
832.467	25655
832.606	25578
832.744	25472
832.883	25510
833.022	25457
833.16	25499
833.299	25609
833.437	25556
833.576	25609
833.714	25693
833.852	25502
833.991	25693
834.129	25632
834.267	25578
834.406	25647
834.544	25685
834.682	25567
834.821	25655
834.959	25746
835.097	25643
835.235	25734
835.373	25643
835.511	25521
835.65	25495
835.788	25381
835.926	25343
836.064	25187
836.202	25263
836.34	25426
836.478	25521
836.615	25533
836.753	25373
836.891	25441
837.029	25407
837.167	25350
837.305	25381
837.443	25373
837.58	25324
837.718	25236
837.856	25304
837.993	25156
838.131	25194
838.269	25099
838.406	25236
838.544	25031
838.681	24920
838.819	24901
838.956	24810
839.094	24821
839.231	24711
839.369	24814
839.506	25065
839.643	25046
839.781	24730
839.918	24601
840.055	24681
840.193	24646
840.33	24574
840.467	24749
840.604	24757
840.742	24928
840.879	24403
841.016	24544
841.153	24612
841.29	24551
841.427	24547
841.564	24627
841.701	24582
841.838	24559
841.975	24467
842.112	24540
842.249	24437
842.385	24350
842.522	24563
842.659	24616
842.796	24505
842.933	24277
843.069	24346
843.206	24323
843.343	24433
843.479	24437
843.616	24422
843.752	24224
843.889	24125
844.025	24365
844.162	24159
844.298	24251
844.435	24117
844.571	24182
844.708	24159
844.844	24376
844.98	24304
845.117	24254
845.253	24057
845.389	23927
845.525	24072
845.661	24133
845.798	23927
845.934	23832
846.07	23771
846.206	23870
846.342	24007
846.478	23828
846.614	23680
846.75	23539
846.886	23623
847.022	23767
847.158	23714
847.294	23558
847.429	23710
847.565	23608
847.701	23847
847.837	23288
847.972	23436
848.108	23547
848.244	23414
848.379	23216
848.515	23200
848.65	23162
848.786	23185
848.921	23242
849.057	23387
849.192	23425
849.328	23174
849.463	23242
849.598	23166
849.734	23197
849.869	23086
850.004	22919
850.14	23041
850.275	22847
850.41	22908
850.545	22793
850.68	22965
850.815	22923
850.95	22991
851.085	23159
851.22	22957
851.355	22972
851.49	22839
851.625	22991
851.76	22946
851.895	22786
852.03	22934
852.165	22847
852.299	23060
852.434	23064
852.569	23010
852.703	22991
852.838	23029
852.973	22968
853.107	23155
853.242	22927
853.376	22687
853.511	22672
853.645	22706
853.78	22839
853.914	22869
854.048	22698
854.183	22675
854.317	22778
854.451	22858
854.585	22835
854.72	22824
854.854	22858
854.988	22713
855.122	22786
855.256	22672
855.39	22672
855.524	22752
855.658	22752
855.792	22675
855.926	22702
856.06	22839
856.194	22835
856.327	22710
856.461	22622
856.595	22664
856.729	22679
856.862	22782
856.996	22790
857.13	22820
857.263	22786
857.397	22885
857.53	22713
857.664	22771
857.797	22809
857.931	22889
858.064	22797
858.197	22980
858.331	22767
858.464	22660
858.597	22668
858.731	22790
858.864	22668
858.997	22637
859.13	22809
859.263	22790
859.396	22843
859.529	22774
859.662	22763
859.795	22736
859.928	22793
860.061	22740
860.194	22828
860.327	22828
860.46	22752
860.592	23003
860.725	22908
860.858	22942
860.99	22831
861.123	22675
861.256	22687
861.388	22759
861.521	23425
861.653	22641
861.786	22725
861.918	22634
862.05	22698
862.183	22694
862.315	22584
862.447	22774
862.58	22771
862.712	22474
862.844	22447
862.976	22421
863.108	22497
863.24	22839
863.372	22360
863.504	22405
863.636	22432
863.768	22421
863.9	22413
864.032	22337
864.164	22485
864.296	22474
864.428	22436
864.559	22474
864.691	22645
864.823	22535
864.954	22390
865.086	22405
865.217	22306
865.349	22318
865.48	22466
865.612	22314
865.743	22478
865.875	22409
866.006	22352
866.137	22523
866.269	22322
866.4	22440
866.531	22352
866.662	22181
866.793	22249
866.924	22265
867.055	22242
867.186	22306
867.317	22200
867.448	22188
867.579	22322
867.71	22200
867.841	22162
867.972	22303
868.103	22246
868.233	22367
868.364	22253
868.495	22360
868.625	22474
868.756	22660
868.886	22447
869.017	22379
869.147	22637
869.278	22611
869.408	22656
869.539	22603
869.669	22672
869.799	22500
869.929	22535
870.06	22660
870.19	22850
870.32	22866
870.45	22831
870.58	22877
870.71	23018
870.84	23090
870.97	23056
871.1	22972
871.23	23136
871.36	23128
871.489	23037
871.619	22923
871.749	23083
871.879	23102
872.008	23292
872.138	23159
872.267	23098
872.397	22904
872.526	22892
872.656	23025
872.785	22961
872.915	23117
873.044	23140
873.173	23140
873.303	23140
873.432	23128
873.561	23258
873.69	23121
873.819	23056
873.948	23239
874.077	23022
874.206	23128
874.335	23170
874.464	23143
874.593	23421
874.722	23387
874.851	23463
874.979	23406
875.108	23341
875.237	23296
875.365	23269
875.494	23391
875.623	23429
875.751	23254
875.88	23322
876.008	23440
876.136	23539
876.265	23783
876.393	23912
876.521	23851
876.65	23798
876.778	23676
876.906	23760
877.034	23558
877.162	23566
877.29	23642
877.418	23737
877.546	23566
877.674	23672
877.802	23646
877.93	23608
878.058	23665
878.185	23562
878.313	23619
878.441	23665
878.568	23497
878.696	23630
878.824	23627
878.951	23752
879.079	23783
879.206	23939
879.333	23851
879.461	23760
879.588	23802
879.715	23843
879.842	23870
879.97	23592
880.097	23520
880.224	23501
880.351	23478
880.478	23452
880.605	23505
880.732	23433
880.859	23505
880.986	23558
881.112	23509
881.239	23383
881.366	23178
881.493	23204
881.619	22999
881.746	23128
881.872	23098
881.999	22957
882.125	22953
882.252	23060
882.378	23052
882.505	22915
882.631	22885
882.757	22721
882.883	22767
883.01	22774
883.136	22641
883.262	22599
883.388	22493
883.514	22786
883.64	22717
883.766	22634
883.892	22641
884.018	22440
884.143	22645
884.269	22733
884.395	22402
884.52	22455
884.646	22219
884.772	22226
884.897	22230
885.023	22344
885.148	22459
885.274	22432
885.399	22462
885.524	22265
885.65	22436
885.775	22402
885.9	22261
886.025	22512
886.15	22375
886.275	22238
886.4	22230
886.525	22447
886.65	22306
886.775	22344
886.9	22489
887.025	22535
887.149	22204
887.274	22120
887.399	22097
887.523	22013
887.648	21998
887.773	22006
887.897	22128
888.021	22147
888.146	21968
888.27	22242
888.395	22135
888.519	22177
888.643	22116
888.767	22116
888.891	21903
889.015	21972
889.139	21949
889.263	21720
889.387	21968
889.511	22120
889.635	22067
889.759	21926
889.883	21899
890.006	21888
890.13	21983
890.254	21804
890.377	21717
890.501	21610
890.624	21637
890.748	21675
890.871	21466
890.995	21298
891.118	21370
891.241	21557
891.364	21462
891.488	21561
891.611	21519
891.734	21435
891.857	21492
891.98	21329
892.103	21454
892.226	21507
892.349	21393
892.471	21226
892.594	21344
892.717	21408
892.839	21287
892.962	21268
893.085	21313
893.207	21272
893.33	21332
893.452	21214
893.575	21256
893.697	21089
893.819	21424
893.941	21595
894.064	21458
894.186	21218
894.308	21188
894.43	21287
894.552	21389
894.674	21477
894.796	21230
894.918	21214
895.04	21207
895.161	21435
895.283	21363
895.405	21180
895.526	21310
895.648	21363
895.769	21264
895.891	21260
896.012	21530
896.134	21317
896.255	21306
896.376	21157
896.498	21260
896.619	21241
896.74	21207
896.861	21287
896.982	21568
897.103	21679
897.224	21549
897.345	21492
897.466	21408
897.587	21469
897.708	21557
897.828	21431
897.949	21485
898.07	21302
898.19	21306
898.311	21420
898.431	21469
898.552	21416
898.672	21507
898.792	21485
898.913	21523
899.033	21302
899.153	21363
899.273	21302
899.393	21161
899.513	21184
899.633	21218
899.753	21218
899.873	21096
899.993	21188
900.113	21070
900.232	21222
900.352	21005
900.472	21070
900.591	21005
900.711	20944
900.83	20857
900.95	21093
901.069	21005
901.189	20838
901.308	20560
901.427	20552
901.546	20583
901.665	20438
901.784	20598
901.904	20438
902.023	20282
902.141	20050
902.26	19902
902.379	20054
902.498	20046
902.617	19940
902.735	20126
902.854	19974
902.973	19959
903.091	19734
903.21	19719
903.328	19616
903.446	19681
903.565	19537
903.683	19472
903.801	19324
903.919	19381
904.038	19377
904.156	19168
904.274	19331
904.392	19190
904.51	19240
904.627	19217
904.745	19247
904.863	19255
904.981	19050
905.098	19019
905.216	18833
905.334	18981
905.451	18859
905.569	18738
905.686	18977
905.803	18916
905.921	18604
906.038	18829
906.155	18734
906.272	18544
906.389	18490
906.506	18570
906.623	18559
906.74	18399
906.857	18285
906.974	18281
907.091	18429
907.208	18574
907.324	18289
907.441	18338
907.557	18209
907.674	18117
907.79	18034
907.907	18106
908.023	18057
908.139	18148
908.256	18152
908.372	18015
908.488	17965
908.604	17912
908.72	17790
908.836	17882
908.952	17794
909.068	17916
909.184	17958
909.3	17889
909.415	17946
909.531	17855
909.647	17680
909.762	17589
909.878	17581
909.993	17497
910.108	17581
910.224	17524
910.339	17509
910.454	17402
910.57	17284
910.685	17235
910.8	17566
910.915	17410
911.03	17421
911.145	17048
911.259	17090
911.374	17033
911.489	17022
911.604	16946
911.718	16919
911.833	16854
911.947	16831
912.062	16626
912.176	16820
912.291	16869
912.405	16797
912.519	17136
912.633	17083
912.748	16839
912.862	16801
912.976	16668
913.09	16561
913.204	16599
913.318	16611
913.431	16729
913.545	16653
913.659	16706
913.772	16596
913.886	16375
914	16516
914.113	16580
914.226	16584
914.34	16516
914.453	16333
914.566	16474
914.68	16398
914.793	16253
914.906	16044
915.019	16067
915.132	15949
915.245	16032
915.358	16010
915.47	16067
915.583	16078
915.696	16128
915.809	16051
915.921	16101
916.034	16029
916.146	15926
916.259	15800
916.371	15983
916.483	15876
916.595	15846
916.708	15915
916.82	15850
916.932	15899
917.044	15774
917.156	15766
917.268	15610
917.38	15663
917.491	15618
917.603	15637
917.715	15675
917.826	15774
917.938	15466
918.049	15519
918.161	15572
918.272	15690
918.384	15747
918.495	15648
918.606	15488
918.717	15264
918.828	15359
918.939	15431
919.05	15135
919.161	15351
919.272	15154
919.383	15283
919.494	15393
919.604	15564
919.715	15336
919.826	15306
919.936	15397
920.047	15355
920.157	15283
920.267	15462
920.378	15355
920.488	15241
920.598	15557
920.708	15599
920.818	15450
920.928	15428
921.038	15667
921.148	15587
921.258	15180
921.368	15123
921.477	15058
921.587	15028
921.697	14861
921.806	15055
921.916	14883
922.025	14823
922.134	14610
922.244	14689
922.353	14701
922.462	14583
922.571	14465
922.68	14339
922.789	14233
922.898	14362
923.007	14317
923.116	14305
923.224	14301
923.333	14328
923.442	14183
923.55	14092
923.659	14126
923.767	14206
923.876	14096
923.984	14172
924.092	14046
924.201	14005
924.309	13974
924.417	14020
924.525	13997
924.633	13955
924.741	14678
924.849	13811
924.956	13845
925.064	13734
925.172	13601
925.279	13681
925.387	13727
925.494	13639
925.602	13799
925.709	13715
925.816	13609
925.924	13559
926.031	13632
926.138	13628
926.245	13636
926.352	13525
926.459	13674
926.566	13601
926.673	13499
926.779	13369
926.886	13415
926.993	13301
927.099	13293
927.206	13202
927.312	13095
927.419	13251
927.525	13187
927.631	13240
927.737	13118
927.843	13057
927.95	12935
928.056	12993
928.162	13061
928.267	13095
928.373	13655
928.479	13057
928.585	12829
928.69	12966
928.796	13031
928.901	12871
929.007	12776
929.112	12817
929.218	12856
929.323	12821
929.428	12745
929.533	12928
929.638	12646
929.743	12616
929.848	12757
929.953	12635
930.058	12601
930.163	12388
930.267	12418
930.372	12513
930.477	12315
930.581	12627
930.685	12433
930.79	12216
930.894	12258
930.998	12315
931.103	12429
931.207	12095
931.311	12003
931.415	11863
931.519	11680
931.623	11638
