Data from test_V78500241_1000.txt Node
Date: Fri Mar 25 15:48:43 CST 2022
User: usil
Spectrometer: V785-0024
Trigger mode: 0
Integration Time (sec): 4.000000E-1
Scans to average: 1
Nonlinearity correction enabled: false
Boxcar width: 0
Storing dark spectrum: false
XAxis mode: Wavelengths
Number of Pixels in Spectrum: 1024
>>>>>Begin Spectral Data<<<<<
801.071	28303
801.214	28325
801.356	27766
801.499	27850
801.641	27789
801.783	27785
801.926	27964
802.068	27899
802.211	27800
802.353	27648
802.496	27473
802.638	27526
802.78	27462
802.923	27363
803.065	27443
803.208	27374
803.35	27534
803.492	27603
803.635	27519
803.777	27526
803.919	27660
804.061	27975
804.204	27854
804.346	27576
804.488	27530
804.63	27644
804.773	27416
804.915	27720
805.057	27770
805.199	27637
805.341	27789
805.483	27930
805.626	27835
805.768	27972
805.91	27793
806.052	27793
806.194	27835
806.336	27975
806.478	27888
806.62	27892
806.762	28055
806.904	28204
807.046	28417
807.188	28143
807.33	28325
807.472	28303
807.614	28196
807.756	28371
807.898	28188
808.04	28101
808.182	28090
808.324	28120
808.465	28306
808.607	28428
808.749	28390
808.891	28565
809.033	28694
809.174	28500
809.316	28451
809.458	28546
809.6	28546
809.741	28634
809.883	28763
810.025	28774
810.166	28675
810.308	28908
810.45	28588
810.591	28812
810.733	28451
810.875	28523
811.016	28440
811.158	28363
811.299	28710
811.441	28717
811.582	28672
811.724	28672
811.865	28607
812.007	28504
812.148	28584
812.29	28481
812.431	28744
812.573	28801
812.714	28991
812.855	29083
812.997	29143
813.138	29341
813.279	29250
813.421	29071
813.562	29022
813.703	28984
813.845	28797
813.986	28401
814.127	28409
814.268	28291
814.41	28101
814.551	28097
814.692	28268
814.833	28295
814.974	28200
815.115	28207
815.256	28238
815.397	28150
815.539	28078
815.68	27979
815.821	27941
815.962	28082
816.103	28097
816.244	27819
816.385	27838
816.526	27880
816.666	27629
816.807	27545
816.948	27591
817.089	27644
817.23	27694
817.371	27652
817.512	27435
817.653	27557
817.793	27549
817.934	27568
818.075	27591
818.216	27583
818.356	27504
818.497	27408
818.638	27256
818.778	27310
818.919	27302
819.06	27344
819.2	27420
819.341	27545
819.481	27534
819.622	27701
819.762	27914
819.903	27766
820.043	27622
820.184	27800
820.324	27614
820.465	27835
820.605	27663
820.746	27622
820.886	27458
821.026	27603
821.167	27519
821.307	27694
821.447	27553
821.588	27393
821.728	27367
821.868	27154
822.008	27005
822.149	27112
822.289	27062
822.429	26792
822.569	26678
822.709	26495
822.849	26598
822.99	26450
823.13	26499
823.27	26609
823.41	26381
823.55	26252
823.69	26408
823.83	26324
823.97	26267
824.11	26100
824.25	26092
824.389	26221
824.529	26282
824.669	26244
824.809	26404
824.949	26271
825.089	26374
825.228	26446
825.368	26031
825.508	25970
825.648	26073
825.787	26088
825.927	26233
826.067	26008
826.206	26176
826.346	26240
826.485	26100
826.625	26046
826.765	26183
826.904	26058
827.044	25769
827.183	25837
827.323	25712
827.462	25871
827.601	25727
827.741	25734
827.88	25723
828.02	25731
828.159	25784
828.298	25784
828.437	25750
828.577	25704
828.716	25803
828.855	25677
828.994	25563
829.134	25369
829.273	25529
829.412	25479
829.551	25472
829.69	25499
829.829	25453
829.968	25525
830.107	25544
830.246	25514
830.385	25373
830.524	25377
830.663	25270
830.802	25137
830.941	25103
831.08	25228
831.219	25126
831.357	25118
831.496	25308
831.635	25038
831.774	24886
831.913	25053
832.051	24989
832.19	24890
832.329	24901
832.467	24787
832.606	24650
832.744	24604
832.883	24612
833.022	24749
833.16	24787
833.299	24848
833.437	24738
833.576	24757
833.714	24871
833.852	24760
833.991	24939
834.129	24856
834.267	24863
834.406	24760
834.544	24810
834.682	24802
834.821	24730
834.959	24947
835.097	24741
835.235	24817
835.373	24722
835.511	24787
835.65	24654
835.788	24627
835.926	24547
836.064	24410
836.202	24441
836.34	24608
836.478	24768
836.615	24654
836.753	24722
836.891	24544
837.029	24681
837.167	24585
837.305	24551
837.443	24498
837.58	24429
837.718	24616
837.856	24536
837.993	24490
838.131	24410
838.269	24319
838.406	24365
838.544	24235
838.681	23996
838.819	24148
838.956	23912
839.094	23832
839.231	24038
839.369	24060
839.506	24372
839.643	24133
839.781	23920
839.918	23931
840.055	23851
840.193	23764
840.33	23813
840.467	23935
840.604	23908
840.742	24140
840.879	23665
841.016	23714
841.153	23764
841.29	23954
841.427	23798
841.564	23771
841.701	23805
841.838	23737
841.975	23684
842.112	23764
842.249	23729
842.385	23615
842.522	23855
842.659	23726
842.796	23493
842.933	23653
843.069	23581
843.206	23509
843.343	23703
843.479	23558
843.616	23497
843.752	23280
843.889	23337
844.025	23490
844.162	23364
844.298	23318
844.435	23227
844.571	23197
844.708	23417
844.844	23482
844.98	23566
845.117	23410
845.253	23284
845.389	23235
845.525	23330
845.661	23105
845.798	23060
845.934	23136
846.07	23094
846.206	23048
846.342	23258
846.478	22984
846.614	22858
846.75	22812
846.886	22839
847.022	22961
847.158	22755
847.294	22725
847.429	22812
847.565	22725
847.701	22995
847.837	22535
847.972	22500
848.108	22489
848.244	22500
848.379	22504
848.515	22265
848.65	22424
848.786	22481
848.921	22489
849.057	22504
849.192	22470
849.328	22390
849.463	22348
849.598	22318
849.734	22371
849.869	22360
850.004	22158
850.14	22074
850.275	22177
850.41	22268
850.545	22211
850.68	22128
850.815	22158
850.95	22211
851.085	22386
851.22	22253
851.355	22215
851.49	22150
851.625	22090
851.76	22086
851.895	22078
852.03	22074
852.165	22063
852.299	22204
852.434	22242
852.569	22230
852.703	22093
852.838	22265
852.973	22249
853.107	22135
853.242	22128
853.376	22010
853.511	21816
853.645	22074
853.78	22109
853.914	22032
854.048	21884
854.183	22036
854.317	22002
854.451	22166
854.585	22059
854.72	21880
854.854	21880
854.988	22010
855.122	22101
855.256	21778
855.39	22040
855.524	21975
855.658	22040
855.792	22021
855.926	22059
856.06	21979
856.194	22078
856.327	21941
856.461	21850
856.595	21880
856.729	21956
856.862	22101
856.996	21994
857.13	22166
857.263	21987
857.397	22040
857.53	21934
857.664	22074
857.797	22013
857.931	22177
858.064	22150
858.197	22082
858.331	21968
858.464	21983
858.597	21975
858.731	21861
858.864	21968
858.997	21934
859.13	21956
859.263	22040
859.396	22124
859.529	21876
859.662	21934
859.795	21880
859.928	22051
860.061	21979
860.194	22040
860.327	22074
860.46	22013
860.592	21991
860.725	22101
860.858	22097
860.99	22135
861.123	21975
861.256	21869
861.388	21953
861.521	22588
861.653	21911
861.786	21720
861.918	21903
862.05	21759
862.183	21937
862.315	21960
862.447	21987
862.58	21781
862.712	21816
862.844	21614
862.976	21823
863.108	21732
863.24	22120
863.372	21671
863.504	21610
863.636	21720
863.768	21846
863.9	21732
864.032	21671
864.164	21679
864.296	21781
864.428	21736
864.559	21694
864.691	21652
864.823	21667
864.954	21637
865.086	21629
865.217	21751
865.349	21557
865.48	21667
865.612	21637
865.743	21671
865.875	21728
866.006	21599
866.137	21652
866.269	21606
866.4	21652
866.531	21686
866.662	21469
866.793	21652
866.924	21587
867.055	21595
867.186	21500
867.317	21462
867.448	21507
867.579	21504
867.71	21420
867.841	21420
867.972	21530
868.103	21500
868.233	21511
868.364	21462
868.495	21690
868.625	21637
868.756	21869
868.886	21785
869.017	21854
869.147	21998
869.278	21819
869.408	21869
869.539	21724
869.669	21930
869.799	21842
869.929	21823
870.06	21876
870.19	22070
870.32	21987
870.45	22249
870.58	22325
870.71	22337
870.84	22371
870.97	22261
871.1	22162
871.23	22333
871.36	22417
871.489	22314
871.619	22329
871.749	22341
871.879	22348
872.008	22565
872.138	22356
872.267	22265
872.397	22440
872.526	22295
872.656	22215
872.785	22215
872.915	22352
873.044	22394
873.173	22405
873.303	22443
873.432	22466
873.561	22569
873.69	22538
873.819	22402
873.948	22455
874.077	22440
874.206	22432
874.335	22394
874.464	22508
874.593	22687
874.722	22584
874.851	22607
874.979	22630
875.108	22706
875.237	22687
875.365	22538
875.494	22519
875.623	22660
875.751	22702
875.88	22500
876.008	22725
876.136	22748
876.265	23006
876.393	22991
876.521	23121
876.65	23041
876.778	23025
876.906	22999
877.034	22984
877.162	22953
877.29	22908
877.418	22987
877.546	23022
877.674	22976
877.802	22889
877.93	22949
878.058	22778
878.185	22839
878.313	22869
878.441	22850
878.568	22748
878.696	22889
878.824	23010
878.951	23067
879.079	23109
879.206	23315
879.333	23159
879.461	23048
879.588	23128
879.715	23121
879.842	23220
879.97	23151
880.097	22820
880.224	22752
880.351	22721
880.478	22809
880.605	22710
880.732	22752
880.859	22995
880.986	22748
881.112	22854
881.239	22717
881.366	22428
881.493	22325
881.619	22272
881.746	22356
881.872	22295
881.999	22306
882.125	22204
882.252	22333
882.378	22276
882.505	22386
882.631	22185
882.757	22029
882.883	22154
883.01	22074
883.136	21987
883.262	21880
883.388	21846
883.514	21987
883.64	22234
883.766	21888
883.892	21724
884.018	21827
884.143	22070
884.269	21846
884.395	21778
884.52	21530
884.646	21751
884.772	21511
884.897	21591
885.023	21724
885.148	21770
885.274	21679
885.399	21762
885.524	21732
885.65	21641
885.775	21701
885.9	21603
886.025	21770
886.15	21755
886.275	21622
886.4	21481
886.525	21603
886.65	21667
886.775	21701
886.9	21751
887.025	21766
887.149	21739
887.274	21583
887.399	21511
887.523	21439
887.648	21351
887.773	21374
887.897	21454
888.021	21348
888.146	21412
888.27	21519
888.395	21401
888.519	21454
888.643	21473
888.767	21450
888.891	21344
889.015	21165
889.139	21192
889.263	21135
889.387	21321
889.511	21500
889.635	21374
889.759	21195
889.883	21116
890.006	21294
890.13	21329
890.254	21127
890.377	21043
890.501	20925
890.624	20872
890.748	21036
890.871	20895
890.995	20804
891.118	20670
891.241	20838
891.364	20754
891.488	20914
891.611	20754
891.734	20823
891.857	20990
891.98	20743
892.103	20804
892.226	20830
892.349	20727
892.471	20598
892.594	20689
892.717	20632
892.839	20655
892.962	20735
893.085	20678
893.207	20686
893.33	20606
893.452	20579
893.575	20693
893.697	20678
893.819	20773
893.941	20864
894.064	20975
894.186	20594
894.308	20560
894.43	20777
894.552	20823
894.674	20876
894.796	20651
894.918	20575
895.04	20636
895.161	20754
895.283	20788
895.405	20606
895.526	20659
895.648	20674
895.769	20613
895.891	20804
896.012	20773
896.134	20716
896.255	20758
896.376	20663
896.498	20655
896.619	20724
896.74	20632
896.861	20785
896.982	21043
897.103	21146
897.224	20921
897.345	20982
897.466	20887
897.587	20826
897.708	20956
897.828	21001
897.949	20746
898.07	20765
898.19	20796
898.311	20872
898.431	20861
898.552	20853
898.672	20975
898.792	21009
898.913	20872
899.033	20800
899.153	20648
899.273	20644
899.393	20720
899.513	20545
899.633	20602
899.753	20693
899.873	20492
899.993	20621
900.113	20526
900.232	20655
900.352	20480
900.472	20362
900.591	20275
900.711	20438
900.83	20320
900.95	20450
901.069	20362
901.189	20317
901.308	20012
901.427	19932
901.546	20024
901.665	19906
901.784	20012
901.904	19833
902.023	19715
902.141	19571
902.26	19537
902.379	19540
902.498	19441
902.617	19388
902.735	19537
902.854	19472
902.973	19434
903.091	19213
903.21	18977
903.328	19015
903.446	19118
903.565	18954
903.683	18848
903.801	18768
903.919	18833
904.038	18890
904.156	18707
904.274	18696
904.392	18658
904.51	18734
904.627	18623
904.745	18669
904.863	18821
904.981	18509
905.098	18319
905.216	18323
905.334	18391
905.451	18369
905.569	18338
905.686	18391
905.803	18327
905.921	18117
906.038	18163
906.155	18251
906.272	18003
906.389	18155
906.506	18007
906.623	17889
906.74	17999
906.857	17676
906.974	17729
907.091	18003
907.208	17984
907.324	17805
907.441	17771
907.557	17596
907.674	17657
907.79	17566
907.907	17585
908.023	17627
908.139	17551
908.256	17630
908.372	17532
908.488	17497
908.604	17391
908.72	17299
908.836	17334
908.952	17277
909.068	17265
909.184	17414
909.3	17303
909.415	17334
909.531	17334
909.647	17029
909.762	17064
909.878	17025
909.993	17037
910.108	16953
910.224	17014
910.339	16976
910.454	16797
910.57	16820
910.685	16850
910.8	17086
910.915	17003
911.03	16831
911.145	16706
911.259	16569
911.374	16577
911.489	16519
911.604	16466
911.718	16234
911.833	16337
911.947	16249
912.062	16200
912.176	16356
912.291	16303
912.405	16390
912.519	16588
912.633	16523
912.748	16360
912.862	16234
912.976	16158
913.09	15949
913.204	16105
913.318	16120
913.431	16253
913.545	16207
913.659	16223
913.772	16207
913.886	15937
914	15930
914.113	16055
914.226	16017
914.34	16071
914.453	15808
914.566	16002
914.68	15819
914.793	15873
914.906	15713
915.019	15481
915.132	15485
915.245	15420
915.358	15576
915.47	15584
915.583	15523
915.696	15587
915.809	15644
915.921	15774
916.034	15416
916.146	15382
916.259	15428
916.371	15553
916.483	15454
916.595	15389
916.708	15481
916.82	15317
916.932	15348
917.044	15367
917.156	15226
917.268	15192
917.38	15211
917.491	15150
917.603	15146
917.715	15317
917.826	15135
917.938	15169
918.049	15013
918.161	15066
918.272	15245
918.384	15192
918.495	15085
918.606	14883
918.717	14868
918.828	14910
918.939	14921
919.05	14849
919.161	14906
919.272	14674
919.383	14724
919.494	14914
919.604	15154
919.715	14971
919.826	14796
919.936	14773
920.047	15024
920.157	14891
920.267	15097
920.378	14914
920.488	14823
920.598	14982
920.708	15108
920.818	14941
920.928	15017
921.038	15108
921.148	15062
921.258	14853
921.368	14769
921.477	14659
921.587	14610
921.697	14412
921.806	14648
921.916	14488
922.025	14271
922.134	14275
922.244	14199
922.353	14210
922.462	14142
922.571	13982
922.68	13921
922.789	13963
922.898	13818
923.007	13772
923.116	13883
923.224	13883
923.333	13894
923.442	13784
923.55	13670
923.659	13712
923.767	13788
923.876	13670
923.984	13715
924.092	13544
924.201	13738
924.309	13689
924.417	13594
924.525	13521
924.633	13556
924.741	14396
924.849	13369
924.956	13514
925.064	13373
925.172	13202
925.279	13232
925.387	13350
925.494	13236
925.602	13476
925.709	13358
925.816	13160
925.924	13164
926.031	13278
926.138	13206
926.245	13308
926.352	13164
926.459	13202
926.566	13251
926.673	13069
926.779	12973
926.886	13095
926.993	12875
927.099	12871
927.206	12825
927.312	12825
927.419	12776
927.525	12776
927.631	12856
927.737	12646
927.843	12688
927.95	12601
928.056	12582
928.162	12741
928.267	12646
928.373	13312
928.479	12654
928.585	12460
928.69	12635
928.796	12669
928.901	12525
929.007	12407
929.112	12509
929.218	12429
929.323	12414
929.428	12296
929.533	12547
929.638	12365
929.743	12289
929.848	12403
929.953	12357
930.058	12273
930.163	12053
930.267	12106
930.372	12213
930.477	11977
930.581	12243
930.685	12159
930.79	11973
930.894	11984
930.998	11863
931.103	12098
931.207	11665
931.311	11665
931.415	11543
931.519	11345
931.623	11311
