Data from test_V78500241_1837.txt Node
Date: Fri Mar 25 15:54:31 CST 2022
User: usil
Spectrometer: V785-0024
Trigger mode: 0
Integration Time (sec): 4.000000E-1
Scans to average: 1
Nonlinearity correction enabled: false
Boxcar width: 0
Storing dark spectrum: false
XAxis mode: Wavelengths
Number of Pixels in Spectrum: 1024
>>>>>Begin Spectral Data<<<<<
801.071	28531
801.214	28481
801.356	28249
801.499	28192
801.641	28059
801.783	27998
801.926	27979
802.068	28044
802.211	28070
802.353	27888
802.496	27660
802.638	27717
802.78	27739
802.923	27610
803.065	27728
803.208	27701
803.35	27713
803.492	27850
803.635	27880
803.777	27759
803.919	27934
804.061	28249
804.204	27975
804.346	27937
804.488	27914
804.63	27892
804.773	27827
804.915	27937
805.057	28154
805.199	28002
805.341	28105
805.483	28135
805.626	28086
805.768	27953
805.91	28120
806.052	28059
806.194	28017
806.336	28276
806.478	28078
806.62	28196
806.762	28188
806.904	28398
807.046	28634
807.188	28550
807.33	28421
807.472	28641
807.614	28561
807.756	28508
807.898	28348
808.04	28413
808.182	28303
808.324	28497
808.465	28394
808.607	28618
808.749	28702
808.891	28866
809.033	28980
809.174	28854
809.316	28797
809.458	28736
809.6	28786
809.741	28771
809.883	28896
810.025	28999
810.166	29109
810.308	29083
810.45	28946
810.591	28946
810.733	28824
810.875	28812
811.016	28801
811.158	28588
811.299	28866
811.441	29014
811.582	28949
811.724	28820
811.865	28721
812.007	28698
812.148	28713
812.29	28702
812.431	28980
812.573	29098
812.714	29128
812.855	29280
812.997	29452
813.138	29516
813.279	29414
813.421	29208
813.562	29261
813.703	29056
813.845	28953
813.986	28862
814.127	28565
814.268	28440
814.41	28554
814.551	28428
814.692	28596
814.833	28329
814.974	28489
815.115	28432
815.256	28348
815.397	28280
815.539	28276
815.68	28436
815.821	28082
815.962	28265
816.103	28234
816.244	28226
816.385	28078
816.526	28013
816.666	27884
816.807	27895
816.948	27914
817.089	28025
817.23	27819
817.371	27789
817.512	27876
817.653	27770
817.793	27660
817.934	27778
818.075	27675
818.216	27762
818.356	27660
818.497	27603
818.638	27610
818.778	27492
818.919	27530
819.06	27644
819.2	27591
819.341	27831
819.481	27747
819.622	27884
819.762	28173
819.903	28051
820.043	27975
820.184	27895
820.324	27911
820.465	27964
820.605	27914
820.746	27873
820.886	27751
821.026	27816
821.167	27785
821.307	27892
821.447	27720
821.588	27793
821.728	27519
821.868	27351
822.008	27249
822.149	27150
822.289	27226
822.429	26960
822.569	26868
822.709	26845
822.849	26823
822.99	26792
823.13	26708
823.27	26758
823.41	26594
823.55	26404
823.69	26568
823.83	26667
823.97	26423
824.11	26412
824.25	26434
824.389	26347
824.529	26522
824.669	26389
824.809	26537
824.949	26465
825.089	26495
825.228	26503
825.368	26221
825.508	26252
825.648	26389
825.787	26355
825.927	26358
826.067	26275
826.206	26221
826.346	26347
826.485	26339
826.625	26294
826.765	26404
826.904	26408
827.044	26088
827.183	26130
827.323	26077
827.462	25989
827.601	25928
827.741	26020
827.88	26008
828.02	25833
828.159	25940
828.298	25978
828.437	26122
828.577	25944
828.716	26077
828.855	25769
828.994	25586
829.134	25533
829.273	25818
829.412	25731
829.551	25693
829.69	25677
829.829	25643
829.968	25628
830.107	25856
830.246	25651
830.385	25734
830.524	25537
830.663	25464
830.802	25483
830.941	25114
831.08	25301
831.219	25369
831.357	25464
831.496	25628
831.635	25179
831.774	25221
831.913	25187
832.051	25103
832.19	25069
832.329	25141
832.467	24973
832.606	24916
832.744	24859
832.883	24859
833.022	24867
833.16	24958
833.299	25015
833.437	25072
833.576	25091
833.714	25023
833.852	25160
833.991	24966
834.129	25103
834.267	25072
834.406	25004
834.544	25084
834.682	25072
834.821	24913
834.959	25179
835.097	25069
835.235	24966
835.373	24913
835.511	25023
835.65	24844
835.788	25004
835.926	24768
836.064	24681
836.202	24711
836.34	24890
836.478	25031
836.615	24639
836.753	24875
836.891	24916
837.029	25015
837.167	24730
837.305	24707
837.443	24684
837.58	24654
837.718	24707
837.856	24620
837.993	24574
838.131	24639
838.269	24597
838.406	24646
838.544	24384
838.681	24418
838.819	24289
838.956	24106
839.094	24136
839.231	24148
839.369	24243
839.506	24498
839.643	24391
839.781	24091
839.918	24041
840.055	24117
840.193	24018
840.33	24049
840.467	24038
840.604	24030
840.742	24334
840.879	23870
841.016	24072
841.153	24007
841.29	24201
841.427	24152
841.564	23992
841.701	24053
841.838	24011
841.975	23889
842.112	23870
842.249	23866
842.385	23794
842.522	24072
842.659	23817
842.796	23771
842.933	23935
843.069	23737
843.206	23771
843.343	23958
843.479	23756
843.616	23851
843.752	23524
843.889	23570
844.025	23539
844.162	23638
844.298	23699
844.435	23684
844.571	23608
844.708	23573
844.844	23790
844.98	23809
845.117	23695
845.253	23562
845.389	23535
845.525	23372
845.661	23364
845.798	23277
845.934	23322
846.07	23299
846.206	23364
846.342	23455
846.478	23356
846.614	23098
846.75	22984
846.886	22949
847.022	23227
847.158	23117
847.294	22946
847.429	23010
847.565	22980
847.701	23162
847.837	22801
847.972	22858
848.108	22847
848.244	22782
848.379	22641
848.515	22668
848.65	22592
848.786	22672
848.921	22653
849.057	22740
849.192	22713
849.328	22797
849.463	22565
849.598	22538
849.734	22497
849.869	22470
850.004	22409
850.14	22398
850.275	22451
850.41	22303
850.545	22280
850.68	22360
850.815	22382
850.95	22211
851.085	22516
851.22	22440
851.355	22352
851.49	22344
851.625	22371
851.76	22409
851.895	22386
852.03	22223
852.165	22352
852.299	22291
852.434	22542
852.569	22478
852.703	22413
852.838	22417
852.973	22599
853.107	22557
853.242	22375
853.376	22272
853.511	22181
853.645	22188
853.78	22284
853.914	22257
854.048	22261
854.183	22261
854.317	22268
854.451	22375
854.585	22261
854.72	22200
854.854	22238
854.988	22135
855.122	22226
855.256	22063
855.39	22200
855.524	22295
855.658	22230
855.792	22143
855.926	22169
856.06	22280
856.194	22367
856.327	22185
856.461	22131
856.595	22162
856.729	22116
856.862	22352
856.996	22181
857.13	22329
857.263	22322
857.397	22291
857.53	22230
857.664	22394
857.797	22322
857.931	22405
858.064	22207
858.197	22375
858.331	22318
858.464	22105
858.597	22105
858.731	22169
858.864	22238
858.997	22143
859.13	22253
859.263	22253
859.396	22291
859.529	22120
859.662	22223
859.795	22036
859.928	22223
860.061	22371
860.194	22493
860.327	22223
860.46	22181
860.592	22295
860.725	22211
860.858	22188
860.99	22242
861.123	22128
861.256	22150
861.388	22158
861.521	22930
861.653	22128
861.786	21918
861.918	22109
862.05	22086
862.183	22169
862.315	22143
862.447	22310
862.58	22116
862.712	21991
862.844	21987
862.976	22032
863.108	22017
863.24	22440
863.372	21819
863.504	21873
863.636	21884
863.768	21930
863.9	22013
864.032	21876
864.164	21800
864.296	21880
864.428	21903
864.559	21972
864.691	22048
864.823	21979
864.954	21873
865.086	21975
865.217	21854
865.349	21682
865.48	21823
865.612	21789
865.743	21922
865.875	21857
866.006	21781
866.137	21800
866.269	21876
866.4	21675
866.531	21732
866.662	21637
866.793	21873
866.924	21778
867.055	21759
867.186	21736
867.317	21652
867.448	21599
867.579	21743
867.71	21591
867.841	21603
867.972	21762
868.103	21789
868.233	21720
868.364	21553
868.495	21857
868.625	21937
868.756	22086
868.886	21926
869.017	21972
869.147	22112
869.278	22173
869.408	21941
869.539	21827
869.669	22017
869.799	21953
869.929	22059
870.06	22185
870.19	22268
870.32	22181
870.45	22192
870.58	22398
870.71	22489
870.84	22462
870.97	22436
871.1	22428
871.23	22599
871.36	22500
871.489	22512
871.619	22557
871.749	22561
871.879	22603
872.008	22649
872.138	22584
872.267	22497
872.397	22428
872.526	22341
872.656	22386
872.785	22386
872.915	22672
873.044	22736
873.173	22580
873.303	22668
873.432	22653
873.561	22786
873.69	22569
873.819	22611
873.948	22694
874.077	22527
874.206	22577
874.335	22554
874.464	22653
874.593	22824
874.722	22847
874.851	22809
874.979	22767
875.108	22896
875.237	22721
875.365	22649
875.494	22672
875.623	22965
875.751	22824
875.88	22911
876.008	22911
876.136	22980
876.265	23307
876.393	23322
876.521	23452
876.65	23356
876.778	23216
876.906	23193
877.034	23052
877.162	23140
877.29	23094
877.418	23178
877.546	23025
877.674	23079
877.802	23136
877.93	23140
878.058	23197
878.185	23083
878.313	23105
878.441	23067
878.568	22987
878.696	23075
878.824	23208
878.951	23246
879.079	23364
879.206	23292
879.333	23356
879.461	23159
879.588	23330
879.715	23376
879.842	23452
879.97	23159
880.097	22938
880.224	23014
880.351	23102
880.478	22968
880.605	22900
880.732	22911
880.859	23143
880.986	23048
881.112	22889
881.239	22736
881.366	22687
881.493	22645
881.619	22489
881.746	22584
881.872	22603
881.999	22440
882.125	22554
882.252	22500
882.378	22455
882.505	22611
882.631	22485
882.757	22223
882.883	22379
883.01	22207
883.136	22200
883.262	22131
883.388	22032
883.514	22249
883.64	22116
883.766	22188
883.892	22109
884.018	22051
884.143	22154
884.269	22070
884.395	21899
884.52	21762
884.646	21888
884.772	21705
884.897	21899
885.023	21899
885.148	21789
885.274	21964
885.399	21857
885.524	21983
885.65	21724
885.775	21854
885.9	21850
886.025	21968
886.15	21998
886.275	21850
886.4	21743
886.525	21694
886.65	21793
886.775	21800
886.9	21956
887.025	21930
887.149	21922
887.274	21709
887.399	21538
887.523	21671
887.648	21736
887.773	21412
887.897	21614
888.021	21774
888.146	21614
888.27	21728
888.395	21679
888.519	21610
888.643	21637
888.767	21583
888.891	21416
889.015	21477
889.139	21545
889.263	21458
889.387	21485
889.511	21507
889.635	21412
889.759	21485
889.883	21336
890.006	21401
890.13	21420
890.254	21367
890.377	21275
890.501	21123
890.624	21161
890.748	21165
890.871	20975
890.995	20994
891.118	20834
891.241	20944
891.364	20861
891.488	21055
891.611	21043
891.734	20994
891.857	21047
891.98	20918
892.103	21055
892.226	20861
892.349	20853
892.471	20754
892.594	20941
892.717	20899
892.839	20830
892.962	20876
893.085	20971
893.207	21013
893.33	20777
893.452	20720
893.575	20990
893.697	20891
893.819	21013
893.941	20956
894.064	20857
894.186	20792
894.308	20746
894.43	20807
894.552	21017
894.674	20929
894.796	20743
894.918	20781
895.04	20804
895.161	20823
895.283	20883
895.405	20785
895.526	20857
895.648	20785
895.769	20765
895.891	20792
896.012	20906
896.134	20853
896.255	20861
896.376	20804
896.498	20750
896.619	20921
896.74	20651
896.861	20933
896.982	21192
897.103	21340
897.224	21108
897.345	21043
897.466	21028
897.587	21024
897.708	21184
897.828	20944
897.949	20982
898.07	20967
898.19	20883
898.311	21127
898.431	20918
898.552	20891
898.672	21192
898.792	21108
898.913	21173
899.033	20952
899.153	20842
899.273	20834
899.393	20689
899.513	20769
899.633	20758
899.753	20773
899.873	20720
899.993	20785
900.113	20804
900.232	20667
900.352	20689
900.472	20629
900.591	20518
900.711	20636
900.83	20450
900.95	20552
901.069	20575
901.189	20381
901.308	20233
901.427	20130
901.546	20119
901.665	20180
901.784	20073
901.904	20096
902.023	19883
902.141	19681
902.26	19719
902.379	19704
902.498	19525
902.617	19514
902.735	19685
902.854	19540
902.973	19499
903.091	19278
903.21	19316
903.328	19312
903.446	19122
903.565	19175
903.683	19137
903.801	18817
903.919	19091
904.038	19046
904.156	18814
904.274	18970
904.392	18844
904.51	18875
904.627	18787
904.745	18810
904.863	18878
904.981	18692
905.098	18559
905.216	18582
905.334	18376
905.451	18551
905.569	18441
905.686	18517
905.803	18464
905.921	18205
906.038	18357
906.155	18353
906.272	18334
906.389	18159
906.506	17958
906.623	18007
906.74	18026
906.857	17961
906.974	17939
907.091	18102
907.208	18243
907.324	18133
907.441	17965
907.557	17722
907.674	17741
907.79	17672
907.907	17817
908.023	17745
908.139	17661
908.256	17668
908.372	17490
908.488	17672
908.604	17395
908.72	17387
908.836	17429
908.952	17398
909.068	17459
909.184	17596
909.3	17444
909.415	17490
909.531	17433
909.647	17246
909.762	17200
909.878	17102
909.993	17166
910.108	17105
910.224	17178
910.339	17162
910.454	17003
910.57	17048
910.685	16900
910.8	17280
910.915	17140
911.03	16965
911.145	16698
911.259	16782
911.374	16748
911.489	16725
911.604	16538
911.718	16447
911.833	16504
911.947	16348
912.062	16322
912.176	16413
912.291	16516
912.405	16580
912.519	16736
912.633	16641
912.748	16474
912.862	16424
912.976	16405
913.09	16116
913.204	16394
913.318	16329
913.431	16356
913.545	16386
913.659	16451
913.772	16261
913.886	16036
914	16063
914.113	16196
914.226	16093
914.34	16128
914.453	15953
914.566	16109
914.68	15960
914.793	15838
914.906	15686
915.019	15739
915.132	15606
915.245	15717
915.358	15701
915.47	15633
915.583	15759
915.696	15656
915.809	15785
915.921	15827
916.034	15606
916.146	15610
916.259	15530
916.371	15694
916.483	15667
916.595	15587
916.708	15500
916.82	15443
916.932	15462
917.044	15397
917.156	15386
917.268	15279
917.38	15370
917.491	15169
917.603	15332
917.715	15454
917.826	15367
917.938	15218
918.049	15169
918.161	15252
918.272	15367
918.384	15340
918.495	15249
918.606	15119
918.717	14979
918.828	15074
918.939	14971
919.05	14994
919.161	15028
919.272	14788
919.383	14925
919.494	15058
919.604	15230
919.715	15070
919.826	14823
919.936	14944
920.047	15036
920.157	15020
920.267	15169
920.378	15024
920.488	14944
920.598	15230
920.708	15321
920.818	15138
920.928	15222
921.038	15275
921.148	15249
921.258	14925
921.368	14883
921.477	14678
921.587	14781
921.697	14602
921.806	14712
921.916	14594
922.025	14522
922.134	14389
922.244	14271
922.353	14438
922.462	14172
922.571	14107
922.68	14043
922.789	14073
922.898	14024
923.007	13986
923.116	14001
923.224	14027
923.333	14058
923.442	13826
923.55	13864
923.659	13879
923.767	13868
923.876	13750
923.984	13860
924.092	13750
924.201	13746
924.309	13776
924.417	13791
924.525	13746
924.633	13624
924.741	14442
924.849	13422
924.956	13693
925.064	13495
925.172	13308
925.279	13304
925.387	13441
925.494	13346
925.602	13571
925.709	13426
925.816	13270
925.924	13362
926.031	13362
926.138	13369
926.245	13426
926.352	13259
926.459	13343
926.566	13403
926.673	13247
926.779	13209
926.886	13091
926.993	12947
927.099	12928
927.206	12897
927.312	12932
927.419	13019
927.525	12909
927.631	12993
927.737	12837
927.843	12814
927.95	12665
928.056	12696
928.162	12772
928.267	12779
928.373	13460
928.479	12829
928.585	12654
928.69	12646
928.796	12722
928.901	12604
929.007	12410
929.112	12627
929.218	12585
929.323	12521
929.428	12471
929.533	12616
929.638	12403
929.743	12361
929.848	12372
929.953	12410
930.058	12319
930.163	12117
930.267	12220
930.372	12266
930.477	12129
930.581	12296
930.685	12182
930.79	12098
930.894	12026
930.998	12049
931.103	12155
931.207	11752
931.311	11638
931.415	11596
931.519	11482
931.623	11341
