Data from test_V78500241_784.txt Node
Date: Fri Mar 25 15:47:13 CST 2022
User: usil
Spectrometer: V785-0024
Trigger mode: 0
Integration Time (sec): 4.000000E-1
Scans to average: 1
Nonlinearity correction enabled: false
Boxcar width: 0
Storing dark spectrum: false
XAxis mode: Wavelengths
Number of Pixels in Spectrum: 1024
>>>>>Begin Spectral Data<<<<<
801.071	27256
801.214	27199
801.356	26845
801.499	26765
801.641	26731
801.783	26697
801.926	26796
802.068	26720
802.211	26625
802.353	26522
802.496	26457
802.638	26343
802.78	26434
802.923	26347
803.065	26267
803.208	26298
803.35	26427
803.492	26484
803.635	26503
803.777	26381
803.919	26503
804.061	26727
804.204	26629
804.346	26366
804.488	26446
804.63	26427
804.773	26423
804.915	26492
805.057	26697
805.199	26511
805.341	26629
805.483	26625
805.626	26564
805.768	26511
805.91	26602
806.052	26575
806.194	26511
806.336	26746
806.478	26674
806.62	26693
806.762	26746
806.904	26845
807.046	27287
807.188	27081
807.33	26944
807.472	27089
807.614	26937
807.756	27017
807.898	26781
808.04	26853
808.182	26743
808.324	26986
808.465	26769
808.607	27096
808.749	27211
808.891	27351
809.033	27458
809.174	27294
809.316	27245
809.458	27260
809.6	27192
809.741	27374
809.883	27420
810.025	27526
810.166	27496
810.308	27523
810.45	27466
810.591	27374
810.733	27287
810.875	27142
811.016	27184
811.158	27058
811.299	27325
811.441	27370
811.582	27424
811.724	27348
811.865	27310
812.007	27165
812.148	27211
812.29	27195
812.431	27317
812.573	27416
812.714	27606
812.855	27797
812.997	27766
813.138	27930
813.279	27743
813.421	27808
813.562	27633
813.703	27500
813.845	27359
813.986	27123
814.127	26883
814.268	26815
814.41	26857
814.551	26895
814.692	26914
814.833	26868
814.974	26880
815.115	26857
815.256	26716
815.397	26640
815.539	26796
815.68	26686
815.821	26663
815.962	26769
816.103	26663
816.244	26518
816.385	26377
816.526	26530
816.666	26339
816.807	26221
816.948	26271
817.089	26244
817.23	26210
817.371	26031
817.512	26183
817.653	26126
817.793	26111
817.934	26024
818.075	26138
818.216	26069
818.356	26111
818.497	26027
818.638	25925
818.778	26039
818.919	25883
819.06	25978
819.2	25997
819.341	26218
819.481	26069
819.622	26332
819.762	26552
819.903	26320
820.043	26339
820.184	26339
820.324	26415
820.465	26328
820.605	26218
820.746	26103
820.886	26077
821.026	26221
821.167	26206
821.307	26252
821.447	26225
821.588	26172
821.728	25814
821.868	25613
822.008	25567
822.149	25586
822.289	25731
822.429	25373
822.569	25282
822.709	25320
822.849	25137
822.99	25076
823.13	25038
823.27	25034
823.41	24951
823.55	24909
823.69	24890
823.83	24810
823.97	24852
824.11	24825
824.25	24703
824.389	24757
824.529	24814
824.669	24768
824.809	24833
824.949	24848
825.089	24776
825.228	24954
825.368	24540
825.508	24498
825.648	24513
825.787	24589
825.927	24719
826.067	24604
826.206	24612
826.346	24604
826.485	24738
826.625	24486
826.765	24749
826.904	24684
827.044	24509
827.183	24346
827.323	24327
827.462	24342
827.601	24304
827.741	24300
827.88	24426
828.02	24182
828.159	24384
828.298	24399
828.437	24296
828.577	24399
828.716	24448
828.855	24262
828.994	23973
829.134	24064
829.273	24026
829.412	23965
829.551	23916
829.69	23923
829.829	24030
829.968	23996
830.107	24034
830.246	24098
830.385	24007
830.524	24018
830.663	23794
830.802	23771
830.941	23668
831.08	23551
831.219	23684
831.357	23741
831.496	23851
831.635	23585
831.774	23471
831.913	23493
832.051	23383
832.19	23330
832.329	23364
832.467	23261
832.606	23299
832.744	23208
832.883	23227
833.022	23307
833.16	23353
833.299	23277
833.437	23459
833.576	23315
833.714	23292
833.852	23330
833.991	23425
834.129	23455
834.267	23406
834.406	23364
834.544	23334
834.682	23402
834.821	23406
834.959	23490
835.097	23330
835.235	23459
835.373	23318
835.511	23368
835.65	23265
835.788	23140
835.926	22987
836.064	22915
836.202	23033
836.34	23341
836.478	23200
836.615	23181
836.753	23178
836.891	23197
837.029	23326
837.167	23102
837.305	23151
837.443	23083
837.58	23079
837.718	23121
837.856	23044
837.993	23006
838.131	23140
838.269	22820
838.406	22892
838.544	22873
838.681	22713
838.819	22691
838.956	22474
839.094	22580
839.231	22512
839.369	22710
839.506	22866
839.643	22664
839.781	22447
839.918	22386
840.055	22504
840.193	22440
840.33	22542
840.467	22470
840.604	22508
840.742	22679
840.879	22344
841.016	22443
841.153	22329
841.29	22516
841.427	22489
841.564	22421
841.701	22402
841.838	22428
841.975	22371
842.112	22398
842.249	22246
842.385	22211
842.522	22386
842.659	22257
842.796	22211
842.933	22234
843.069	22162
843.206	22116
843.343	22249
843.479	22158
843.616	22181
843.752	22036
843.889	22017
844.025	22067
844.162	21968
844.298	22025
844.435	21865
844.571	22025
844.708	22029
844.844	22154
844.98	22082
845.117	22147
845.253	21865
845.389	21850
845.525	21789
845.661	21838
845.798	21713
845.934	21804
846.07	21705
846.206	21793
846.342	21762
846.478	21675
846.614	21511
846.75	21374
846.886	21378
847.022	21424
847.158	21542
847.294	21420
847.429	21492
847.565	21492
847.701	21549
847.837	21093
847.972	21237
848.108	21165
848.244	21287
848.379	21032
848.515	21055
848.65	21039
848.786	20975
848.921	21096
849.057	21116
849.192	21119
849.328	21043
849.463	21043
849.598	20998
849.734	20921
849.869	20857
850.004	20853
850.14	20773
850.275	20727
850.41	20727
850.545	20731
850.68	20731
850.815	20845
850.95	20815
851.085	21005
851.22	20876
851.355	20872
851.49	20689
851.625	20712
851.76	20781
851.895	20830
852.03	20667
852.165	20883
852.299	20785
852.434	20887
852.569	20868
852.703	20807
852.838	20811
852.973	20956
853.107	20861
853.242	20686
853.376	20667
853.511	20328
853.645	20651
853.78	20731
853.914	20629
854.048	20590
854.183	20526
854.317	20606
854.451	20838
854.585	20636
854.72	20613
854.854	20571
854.988	20568
855.122	20621
855.256	20446
855.39	20579
855.524	20632
855.658	20678
855.792	20617
855.926	20636
856.06	20754
856.194	20667
856.327	20663
856.461	20606
856.595	20423
856.729	20663
856.862	20758
856.996	20648
857.13	20617
857.263	20689
857.397	20826
857.53	20629
857.664	20674
857.797	20617
857.931	20800
858.064	20621
858.197	20834
858.331	20609
858.464	20511
858.597	20503
858.731	20533
858.864	20552
858.997	20606
859.13	20541
859.263	20667
859.396	20731
859.529	20697
859.662	20549
859.795	20530
859.928	20739
860.061	20781
860.194	20842
860.327	20667
860.46	20663
860.592	20796
860.725	20777
860.858	20682
860.99	20564
861.123	20400
861.256	20514
861.388	20609
861.521	21199
861.653	20537
861.786	20450
861.918	20446
862.05	20465
862.183	20438
862.315	20537
862.447	20655
862.58	20564
862.712	20419
862.844	20396
862.976	20290
863.108	20362
863.24	20785
863.372	20282
863.504	20393
863.636	20263
863.768	20355
863.9	20370
864.032	20252
864.164	20317
864.296	20320
864.428	20408
864.559	20454
864.691	20351
864.823	20305
864.954	20282
865.086	20259
865.217	20202
865.349	20161
865.48	20244
865.612	20298
865.743	20415
865.875	20271
866.006	20183
866.137	20278
866.269	20282
866.4	20290
866.531	20077
866.662	20149
866.793	20103
866.924	20180
867.055	20180
867.186	20244
867.317	20142
867.448	20142
867.579	20119
867.71	20046
867.841	20153
867.972	20240
868.103	20157
868.233	20191
868.364	20199
868.495	20244
868.625	20400
868.756	20507
868.886	20286
869.017	20271
869.147	20488
869.278	20552
869.408	20377
869.539	20282
869.669	20590
869.799	20476
869.929	20568
870.06	20473
870.19	20720
870.32	20705
870.45	20823
870.58	20849
870.71	21005
870.84	21032
870.97	20956
871.1	20883
871.23	21077
871.36	21085
871.489	20929
871.619	20921
871.749	21017
871.879	21066
872.008	21009
872.138	21013
872.267	20982
872.397	20819
872.526	20853
872.656	20838
872.785	20754
872.915	21051
873.044	21142
873.173	20990
873.303	21062
873.432	21176
873.561	21077
873.69	21146
873.819	21051
873.948	21131
874.077	21055
874.206	20990
874.335	20952
874.464	21081
874.593	21336
874.722	21275
874.851	21252
874.979	21302
875.108	21332
875.237	21188
875.365	21203
875.494	21283
875.623	21313
875.751	21268
875.88	21260
876.008	21306
876.136	21481
876.265	21762
876.393	21793
876.521	21747
876.65	21694
876.778	21732
876.906	21622
877.034	21587
877.162	21625
877.29	21701
877.418	21682
877.546	21648
877.674	21580
877.802	21553
877.93	21595
878.058	21545
878.185	21538
878.313	21644
878.441	21622
878.568	21519
878.696	21568
878.824	21724
878.951	21812
879.079	21720
879.206	22013
879.333	21747
879.461	21561
879.588	21762
879.715	21842
879.842	21812
879.97	21713
880.097	21511
880.224	21428
880.351	21450
880.478	21443
880.605	21344
880.732	21443
880.859	21713
880.986	21389
881.112	21477
881.239	21233
881.366	21218
881.493	21138
881.619	20990
881.746	21100
881.872	21108
881.999	21188
882.125	20857
882.252	21161
882.378	21077
882.505	21203
882.631	20872
882.757	20758
882.883	20689
883.01	20750
883.136	20625
883.262	20533
883.388	20526
883.514	20834
883.64	20724
883.766	20594
883.892	20484
884.018	20537
884.143	20659
884.269	20807
884.395	20465
884.52	20404
884.646	20347
884.772	20393
884.897	20233
885.023	20370
885.148	20617
885.274	20583
885.399	20476
885.524	20343
885.65	20461
885.775	20332
885.9	20362
886.025	20442
886.15	20446
886.275	20370
886.4	20393
886.525	20381
886.65	20473
886.775	20339
886.9	20473
887.025	20613
887.149	20427
887.274	20267
887.399	20149
887.523	20138
887.648	20111
887.773	20126
887.897	20244
888.021	20180
888.146	20161
888.27	20252
888.395	20275
888.519	20092
888.643	20157
888.767	20058
888.891	20161
889.015	20050
889.139	20134
889.263	19947
889.387	20122
889.511	20199
889.635	20145
889.759	19940
889.883	19898
890.006	19993
890.13	20050
890.254	19822
890.377	19818
890.501	19708
890.624	19780
890.748	19769
890.871	19681
890.995	19540
891.118	19438
891.241	19426
891.364	19571
891.488	19708
891.611	19559
891.734	19643
891.857	19658
891.98	19651
892.103	19590
892.226	19601
892.349	19495
892.471	19331
892.594	19441
892.717	19506
892.839	19594
892.962	19567
893.085	19559
893.207	19601
893.33	19434
893.452	19453
893.575	19540
893.697	19403
893.819	19685
893.941	19647
894.064	19571
894.186	19537
894.308	19373
894.43	19495
894.552	19571
894.674	19632
894.796	19430
894.918	19426
895.04	19495
895.161	19483
895.283	19571
895.405	19422
895.526	19388
895.648	19445
895.769	19525
895.891	19544
896.012	19552
896.134	19548
896.255	19586
896.376	19381
896.498	19559
896.619	19510
896.74	19597
896.861	19529
896.982	19814
897.103	19871
897.224	19807
897.345	19784
897.466	19647
897.587	19708
897.708	19860
897.828	19780
897.949	19643
898.07	19624
898.19	19727
898.311	19890
898.431	19689
898.552	19723
898.672	19757
898.792	19776
898.913	19731
899.033	19529
899.153	19552
899.273	19403
899.393	19468
899.513	19506
899.633	19552
899.753	19537
899.873	19400
899.993	19518
900.113	19384
900.232	19525
900.352	19354
900.472	19449
900.591	19244
900.711	19266
900.83	19240
900.95	19304
901.069	19403
901.189	19244
901.308	18920
901.427	18970
901.546	18913
901.665	18886
901.784	18977
901.904	18829
902.023	18635
902.141	18369
902.26	18418
902.379	18517
902.498	18414
902.617	18437
902.735	18467
902.854	18346
902.973	18285
903.091	18098
903.21	18083
903.328	18133
903.446	18015
903.565	17870
903.683	17767
903.801	17718
903.919	17764
904.038	17741
904.156	17680
904.274	17767
904.392	17649
904.51	17729
904.627	17657
904.745	17615
904.863	17710
904.981	17440
905.098	17326
905.216	17273
905.334	17326
905.451	17318
905.569	17288
905.686	17353
905.803	17326
905.921	17067
906.038	17212
906.155	17193
906.272	16995
906.389	17037
906.506	16885
906.623	16930
906.74	16908
906.857	16767
906.974	16759
907.091	17006
907.208	16980
907.324	16881
907.441	16767
907.557	16558
907.674	16634
907.79	16554
907.907	16596
908.023	16668
908.139	16542
908.256	16531
908.372	16569
908.488	16550
908.604	16455
908.72	16226
908.836	16299
908.952	16284
909.068	16257
909.184	16440
909.3	16246
909.415	16265
909.531	16276
909.647	16055
909.762	15941
909.878	16021
909.993	16143
910.108	16071
910.224	15888
910.339	15983
910.454	15884
910.57	15812
910.685	15686
910.8	15930
910.915	16059
911.03	15823
911.145	15667
911.259	15671
911.374	15660
911.489	15443
911.604	15473
911.718	15279
911.833	15386
911.947	15332
912.062	15241
912.176	15473
912.291	15401
912.405	15469
912.519	15515
912.633	15488
912.748	15401
912.862	15386
912.976	15188
913.09	15066
913.204	15161
913.318	15195
913.431	15374
913.545	15256
913.659	15336
913.772	15165
913.886	15032
914	14971
914.113	15150
914.226	15192
914.34	15085
914.453	14944
914.566	15112
914.68	14872
914.793	14811
914.906	14651
915.019	14651
915.132	14541
915.245	14503
915.358	14636
915.47	14598
915.583	14636
915.696	14625
915.809	14807
915.921	14693
916.034	14564
916.146	14533
916.259	14549
916.371	14617
916.483	14571
916.595	14480
916.708	14446
916.82	14431
916.932	14461
917.044	14476
917.156	14427
917.268	14263
917.38	14339
917.491	14305
917.603	14313
917.715	14438
917.826	14396
917.938	14221
918.049	14103
918.161	14252
918.272	14351
918.384	14317
918.495	14172
918.606	14046
918.717	14016
918.828	14088
918.939	14092
919.05	14016
919.161	14050
919.272	13837
919.383	13845
919.494	14142
919.604	14282
919.715	14046
919.826	13970
919.936	14069
920.047	14164
920.157	14107
920.267	14275
920.378	13970
920.488	13967
920.598	14161
920.708	14366
920.818	14145
920.928	14100
921.038	14298
921.148	14237
921.258	14031
921.368	13845
921.477	13727
921.587	13757
921.697	13647
921.806	13795
921.916	13651
922.025	13521
922.134	13388
922.244	13411
922.353	13571
922.462	13278
922.571	13255
922.68	13133
922.789	13061
922.898	13156
923.007	13084
923.116	13118
923.224	13057
923.333	12970
923.442	12981
923.55	12954
923.659	12943
923.767	12977
923.876	12928
923.984	12973
924.092	12856
924.201	12916
924.309	12954
924.417	12787
924.525	12814
924.633	12745
924.741	13681
924.849	12597
924.956	12764
925.064	12429
925.172	12467
925.279	12486
925.387	12642
925.494	12521
925.602	12684
925.709	12616
925.816	12414
925.924	12494
926.031	12502
926.138	12570
926.245	12509
926.352	12369
926.459	12555
926.566	12585
926.673	12384
926.779	12281
926.886	12289
926.993	12117
927.099	12068
927.206	12098
927.312	12121
927.419	12148
927.525	12121
927.631	12102
927.737	11996
927.843	12129
927.95	11863
928.056	11954
928.162	11961
928.267	12007
928.373	12631
928.479	11980
928.585	11756
928.69	11843
928.796	11969
928.901	11798
929.007	11710
929.112	11802
929.218	11790
929.323	11707
929.428	11668
929.533	11824
929.638	11623
929.743	11634
929.848	11680
929.953	11661
930.058	11482
930.163	11372
930.267	11383
930.372	11592
930.477	11311
930.581	11554
930.685	11398
930.79	11299
930.894	11330
930.998	11220
931.103	11368
931.207	11025
931.311	10972
931.415	10847
931.519	10630
931.623	10664
