Data from test_V78500241_2760.txt Node
Date: Fri Mar 25 16:00:55 CST 2022
User: usil
Spectrometer: V785-0024
Trigger mode: 0
Integration Time (sec): 4.000000E-1
Scans to average: 1
Nonlinearity correction enabled: false
Boxcar width: 0
Storing dark spectrum: false
XAxis mode: Wavelengths
Number of Pixels in Spectrum: 1024
>>>>>Begin Spectral Data<<<<<
801.071	29033
801.214	28801
801.356	28653
801.499	28759
801.641	28394
801.783	28497
801.926	28645
802.068	28485
802.211	28329
802.353	28462
802.496	28196
802.638	28124
802.78	28207
802.923	28082
803.065	28135
803.208	28112
803.35	28284
803.492	28318
803.635	28367
803.777	28318
803.919	28409
804.061	28805
804.204	28504
804.346	28466
804.488	28363
804.63	28375
804.773	28303
804.915	28493
805.057	28462
805.199	28459
805.341	28512
805.483	28607
805.626	28725
805.768	28424
805.91	28603
806.052	28607
806.194	28527
806.336	28603
806.478	28599
806.62	28546
806.762	28653
806.904	28877
807.046	29075
807.188	29029
807.33	29079
807.472	29010
807.614	28923
807.756	29060
807.898	28946
808.04	28801
808.182	28877
808.324	28866
808.465	28881
808.607	29197
808.749	29204
808.891	29193
809.033	29410
809.174	29356
809.316	29452
809.458	29288
809.6	29231
809.741	29341
809.883	29448
810.025	29505
810.166	29661
810.308	29611
810.45	29490
810.591	29398
810.733	29486
810.875	29315
811.016	29269
811.158	29185
811.299	29387
811.441	29429
811.582	29406
811.724	29235
811.865	29208
812.007	29379
812.148	29372
812.29	29368
812.431	29467
812.573	29691
812.714	29687
812.855	29783
812.997	29961
813.138	30015
813.279	29999
813.421	29897
813.562	29657
813.703	29589
813.845	29433
813.986	29402
814.127	29105
814.268	29006
814.41	29189
814.551	29071
814.692	29003
814.833	29006
814.974	28991
815.115	29006
815.256	28854
815.397	28949
815.539	28812
815.68	28828
815.821	28812
815.962	28713
816.103	28888
816.244	28736
816.385	28664
816.526	28611
816.666	28325
816.807	28265
816.948	28371
817.089	28325
817.23	28409
817.371	28306
817.512	28253
817.653	28379
817.793	28379
817.934	28371
818.075	28325
818.216	28371
818.356	28379
818.497	28143
818.638	28268
818.778	27994
818.919	28147
819.06	28211
819.2	28348
819.341	28352
819.481	28265
819.622	28538
819.762	28752
819.903	28611
820.043	28500
820.184	28462
820.324	28584
820.465	28588
820.605	28519
820.746	28417
820.886	28246
821.026	28455
821.167	28360
821.307	28455
821.447	28379
821.588	28295
821.728	28150
821.868	28002
822.008	27827
822.149	27656
822.289	27667
822.429	27530
822.569	27523
822.709	27545
822.849	27450
822.99	27389
823.13	27306
823.27	27180
823.41	27096
823.55	27108
823.69	27077
823.83	27146
823.97	27077
824.11	27028
824.25	27047
824.389	27100
824.529	27074
824.669	26887
824.809	26998
824.949	27032
825.089	26975
825.228	27100
825.368	26834
825.508	26762
825.648	26853
825.787	27005
825.927	26849
826.067	26899
826.206	26785
826.346	26990
826.485	26872
826.625	26819
826.765	26918
826.904	26887
827.044	26720
827.183	26625
827.323	26469
827.462	26552
827.601	26663
827.741	26549
827.88	26659
828.02	26434
828.159	26446
828.298	26499
828.437	26461
828.577	26396
828.716	26735
828.855	26415
828.994	26240
829.134	26282
829.273	26286
829.412	26103
829.551	26153
829.69	26191
829.829	26183
829.968	26343
830.107	26237
830.246	26336
830.385	26164
830.524	26122
830.663	26050
830.802	26035
830.941	25830
831.08	25795
831.219	25974
831.357	26107
831.496	26069
831.635	25936
831.774	25871
831.913	25742
832.051	25628
832.19	25761
832.329	25624
832.467	25548
832.606	25365
832.744	25365
832.883	25449
833.022	25449
833.16	25658
833.299	25628
833.437	25521
833.576	25537
833.714	25597
833.852	25693
833.991	25651
834.129	25632
834.267	25780
834.406	25647
834.544	25700
834.682	25609
834.821	25594
834.959	25727
835.097	25529
835.235	25647
835.373	25605
835.511	25499
835.65	25483
835.788	25419
835.926	25422
836.064	25175
836.202	25263
836.34	25468
836.478	25400
836.615	25453
836.753	25434
836.891	25335
837.029	25453
837.167	25457
837.305	25255
837.443	25377
837.58	25259
837.718	25373
837.856	25369
837.993	25148
838.131	25171
838.269	24989
838.406	25217
838.544	25122
838.681	24939
838.819	24779
838.956	24734
839.094	24684
839.231	24741
839.369	24878
839.506	25057
839.643	24966
839.781	24654
839.918	24635
840.055	24684
840.193	24654
840.33	24684
840.467	24711
840.604	24620
840.742	24844
840.879	24570
841.016	24479
841.153	24475
841.29	24696
841.427	24585
841.564	24578
841.701	24631
841.838	24642
841.975	24464
842.112	24559
842.249	24429
842.385	24372
842.522	24460
842.659	24334
842.796	24391
842.933	24330
843.069	24323
843.206	24365
843.343	24418
843.479	24315
843.616	24330
843.752	24258
843.889	24133
844.025	24254
844.162	24098
844.298	24167
844.435	24133
844.571	24060
844.708	24121
844.844	24285
844.98	24232
845.117	24209
845.253	24072
845.389	24110
845.525	24034
845.661	24091
845.798	23798
845.934	23912
846.07	23935
846.206	23908
846.342	23923
846.478	23733
846.614	23661
846.75	23566
846.886	23501
847.022	23699
847.158	23558
847.294	23535
847.429	23634
847.565	23680
847.701	23832
847.837	23376
847.972	23265
848.108	23353
848.244	23467
848.379	23223
848.515	23147
848.65	23311
848.786	23166
848.921	23079
849.057	23307
849.192	23307
849.328	23216
849.463	23181
849.598	23280
849.734	23018
849.869	23037
850.004	22900
850.14	22987
850.275	22961
850.41	22904
850.545	22835
850.68	22946
850.815	23185
850.95	22892
851.085	23067
851.22	23052
851.355	22923
851.49	22965
851.625	22858
851.76	22957
851.895	22790
852.03	22942
852.165	23022
852.299	23048
852.434	23056
852.569	22968
852.703	22980
852.838	23052
852.973	23075
853.107	22999
853.242	22892
853.376	22831
853.511	22618
853.645	22858
853.78	22828
853.914	22733
854.048	22812
854.183	22713
854.317	22740
854.451	22980
854.585	22774
854.72	22809
854.854	22942
854.988	22812
855.122	22812
855.256	22603
855.39	22793
855.524	22972
855.658	22653
855.792	22793
855.926	22706
856.06	22824
856.194	22889
856.327	22835
856.461	22717
856.595	22645
856.729	22828
856.862	22733
856.996	22797
857.13	22835
857.263	22862
857.397	22896
857.53	22771
857.664	22771
857.797	22771
857.931	22816
858.064	22790
858.197	22866
858.331	22698
858.464	22588
858.597	22641
858.731	22584
858.864	22725
858.997	22713
859.13	22850
859.263	22847
859.396	22778
859.529	22725
859.662	22774
859.795	22698
859.928	22816
860.061	22892
860.194	22919
860.327	22744
860.46	22778
860.592	22831
860.725	22839
860.858	22812
860.99	22748
861.123	22774
861.256	22729
861.388	22691
861.521	23448
861.653	22664
861.786	22504
861.918	22577
862.05	22615
862.183	22744
862.315	22664
862.447	22824
862.58	22672
862.712	22504
862.844	22443
862.976	22607
863.108	22504
863.24	22904
863.372	22508
863.504	22588
863.636	22466
863.768	22485
863.9	22421
864.032	22455
864.164	22398
864.296	22531
864.428	22584
864.559	22580
864.691	22500
864.823	22485
864.954	22478
865.086	22363
865.217	22386
865.349	22363
865.48	22421
865.612	22417
865.743	22428
865.875	22268
866.006	22310
866.137	22375
866.269	22299
866.4	22147
866.531	22196
866.662	22204
866.793	22284
866.924	22162
867.055	22265
867.186	22276
867.317	22322
867.448	22181
867.579	22158
867.71	22291
867.841	22211
867.972	22268
868.103	22200
868.233	22268
868.364	22303
868.495	22291
868.625	22417
868.756	22603
868.886	22417
869.017	22447
869.147	22546
869.278	22702
869.408	22561
869.539	22504
869.669	22596
869.799	22615
869.929	22519
870.06	22557
870.19	22828
870.32	22812
870.45	22828
870.58	22759
870.71	23018
870.84	22873
870.97	22873
871.1	22820
871.23	23037
871.36	23033
871.489	22934
871.619	22999
871.749	22999
871.879	23064
872.008	23269
872.138	23124
872.267	23151
872.397	23083
872.526	22965
872.656	22987
872.785	23014
872.915	23159
873.044	23220
873.173	23083
873.303	23132
873.432	23204
873.561	23204
873.69	23212
873.819	23083
873.948	23239
874.077	23181
874.206	23086
874.335	23193
874.464	23193
874.593	23372
874.722	23155
874.851	23398
874.979	23406
875.108	23414
875.237	23398
875.365	23197
875.494	23372
875.623	23292
875.751	23326
875.88	23372
876.008	23444
876.136	23714
876.265	23737
876.393	23882
876.521	23771
876.65	23824
876.778	23722
876.906	23581
877.034	23676
877.162	23684
877.29	23611
877.418	23691
877.546	23520
877.674	23665
877.802	23649
877.93	23718
878.058	23573
878.185	23436
878.313	23627
878.441	23661
878.568	23676
878.696	23600
878.824	23554
878.951	23710
879.079	23748
879.206	23961
879.333	23828
879.461	23642
879.588	23649
879.715	23805
879.842	23942
879.97	23779
880.097	23520
880.224	23478
880.351	23619
880.478	23368
880.605	23395
880.732	23379
880.859	23611
880.986	23398
881.112	23543
881.239	23478
881.366	23280
881.493	23140
881.619	22984
881.746	22942
881.872	23044
881.999	23018
882.125	22995
882.252	23083
882.378	22911
882.505	23109
882.631	22854
882.757	22759
882.883	22885
883.01	22843
883.136	22653
883.262	22645
883.388	22538
883.514	22710
883.64	22710
883.766	22519
883.892	22432
884.018	22512
884.143	22649
884.269	22812
884.395	22535
884.52	22291
884.646	22280
884.772	22333
884.897	22230
885.023	22375
885.148	22424
885.274	22626
885.399	22413
885.524	22322
885.65	22371
885.775	22436
885.9	22356
886.025	22493
886.15	22329
886.275	22348
886.4	22325
886.525	22417
886.65	22147
886.775	22295
886.9	22432
887.025	22573
887.149	22356
887.274	22112
887.399	22120
887.523	22135
887.648	22105
887.773	22036
887.897	22093
888.021	22074
888.146	21968
888.27	22211
888.395	22272
888.519	22112
888.643	22112
888.767	22082
888.891	22040
889.015	21899
889.139	22010
889.263	21781
889.387	22086
889.511	22055
889.635	22070
889.759	21915
889.883	21899
890.006	21835
890.13	22013
890.254	21747
890.377	21762
890.501	21755
890.624	21591
890.748	21717
890.871	21557
890.995	21370
891.118	21370
891.241	21351
891.364	21416
891.488	21515
891.611	21348
891.734	21435
891.857	21526
891.98	21492
892.103	21572
892.226	21561
892.349	21313
892.471	21169
892.594	21298
892.717	21382
892.839	21340
892.962	21378
893.085	21401
893.207	21321
893.33	21283
893.452	21298
893.575	21363
893.697	21207
893.819	21481
893.941	21481
894.064	21599
894.186	21256
894.308	21268
894.43	21378
894.552	21439
894.674	21378
894.796	21230
894.918	21260
895.04	21264
895.161	21405
895.283	21344
895.405	21237
895.526	21401
895.648	21317
895.769	21317
895.891	21207
896.012	21279
896.134	21268
896.255	21386
896.376	21214
896.498	21237
896.619	21272
896.74	21249
896.861	21412
896.982	21641
897.103	21705
897.224	21511
897.345	21542
897.466	21428
897.587	21553
897.708	21644
897.828	21583
897.949	21351
898.07	21321
898.19	21500
898.311	21523
898.431	21374
898.552	21530
898.672	21690
898.792	21542
898.913	21496
899.033	21450
899.153	21241
899.273	21157
899.393	21287
899.513	21222
899.633	21173
899.753	21283
899.873	21218
899.993	21222
900.113	21195
900.232	21237
900.352	21062
900.472	21055
900.591	21024
900.711	21039
900.83	20956
900.95	21138
901.069	21017
901.189	20800
901.308	20632
901.427	20473
901.546	20530
901.665	20514
901.784	20598
901.904	20427
902.023	20210
902.141	20111
902.26	20058
902.379	20248
902.498	20065
902.617	20157
902.735	20191
902.854	20027
902.973	19871
903.091	19841
903.21	19731
903.328	19715
903.446	19533
903.565	19510
903.683	19521
903.801	19388
903.919	19472
904.038	19487
904.156	19362
904.274	19251
904.392	19316
904.51	19335
904.627	19255
904.745	19259
904.863	19362
904.981	19088
905.098	18920
905.216	18909
905.334	19053
905.451	18977
905.569	18859
905.686	19038
905.803	18947
905.921	18707
906.038	18886
906.155	18696
906.272	18563
906.389	18593
906.506	18528
906.623	18467
906.74	18471
906.857	18346
906.974	18289
907.091	18448
907.208	18486
907.324	18479
907.441	18292
907.557	18182
907.674	18270
907.79	18026
907.907	18152
908.023	18190
908.139	18171
908.256	18148
908.372	18019
908.488	18003
908.604	17999
908.72	17866
908.836	17813
908.952	17843
909.068	17904
909.184	17996
909.3	17817
909.415	17870
909.531	17878
909.647	17646
909.762	17577
909.878	17634
909.993	17570
910.108	17551
910.224	17554
910.339	17486
910.454	17383
910.57	17345
910.685	17303
910.8	17467
910.915	17387
911.03	17383
911.145	17124
911.259	17155
911.374	17166
911.489	17056
911.604	17025
911.718	16877
911.833	16869
911.947	16748
912.062	16580
912.176	16843
912.291	16919
912.405	16869
912.519	17048
912.633	17067
912.748	17003
912.862	16866
912.976	16653
913.09	16504
913.204	16637
913.318	16637
913.431	16733
913.545	16679
913.659	16797
913.772	16668
913.886	16546
914	16443
914.113	16573
914.226	16607
914.34	16481
914.453	16230
914.566	16497
914.68	16280
914.793	16322
914.906	16097
915.019	16036
915.132	16051
915.245	16025
915.358	16029
915.47	16048
915.583	16071
915.696	16147
915.809	16135
915.921	16105
916.034	15899
916.146	15922
916.259	15911
916.371	15899
916.483	15998
916.595	15903
916.708	15857
916.82	15842
916.932	15808
917.044	15876
917.156	15785
917.268	15652
917.38	15728
917.491	15679
917.603	15698
917.715	15797
917.826	15762
917.938	15545
918.049	15500
918.161	15591
918.272	15641
918.384	15789
918.495	15538
918.606	15515
918.717	15310
918.828	15393
918.939	15370
919.05	15291
919.161	15397
919.272	15195
919.383	15306
919.494	15473
919.604	15576
919.715	15241
919.826	15306
919.936	15428
920.047	15405
920.157	15416
920.267	15481
920.378	15298
920.488	15382
920.598	15477
920.708	15625
920.818	15549
920.928	15462
921.038	15545
921.148	15561
921.258	15279
921.368	15321
921.477	15066
921.587	15039
921.697	14929
921.806	15135
921.916	14952
922.025	14659
922.134	14716
922.244	14708
922.353	14754
922.462	14610
922.571	14552
922.68	14309
922.789	14328
922.898	14351
923.007	14275
923.116	14408
923.224	14370
923.333	14301
923.442	14161
923.55	14084
923.659	14172
923.767	14214
923.876	14077
923.984	14149
924.092	14126
924.201	14119
924.309	13997
924.417	14069
924.525	13955
924.633	13936
924.741	14883
924.849	13662
924.956	13902
925.064	13814
925.172	13578
925.279	13689
925.387	13780
925.494	13731
925.602	13734
925.709	13769
925.816	13537
925.924	13693
926.031	13769
926.138	13639
926.245	13685
926.352	13628
926.459	13738
926.566	13658
926.673	13658
926.779	13457
926.886	13381
926.993	13339
927.099	13179
927.206	13225
927.312	13114
927.419	13251
927.525	13232
927.631	13228
927.737	13190
927.843	13198
927.95	13015
928.056	13076
928.162	12973
928.267	13042
928.373	13609
928.479	13114
928.585	12924
928.69	13031
928.796	13015
928.901	12924
929.007	12745
929.112	12932
929.218	12817
929.323	12829
929.428	12776
929.533	12920
929.638	12738
929.743	12745
929.848	12806
929.953	12776
930.058	12627
930.163	12414
930.267	12479
930.372	12601
930.477	12361
930.581	12646
930.685	12399
930.79	12350
930.894	12350
930.998	12243
931.103	12407
931.207	12026
931.311	11954
931.415	11851
931.519	11665
931.623	11657
