Data from test_V78500241_1989.txt Node
Date: Fri Mar 25 15:55:34 CST 2022
User: usil
Spectrometer: V785-0024
Trigger mode: 0
Integration Time (sec): 4.000000E-1
Scans to average: 1
Nonlinearity correction enabled: false
Boxcar width: 0
Storing dark spectrum: false
XAxis mode: Wavelengths
Number of Pixels in Spectrum: 1024
>>>>>Begin Spectral Data<<<<<
801.071	28356
801.214	28196
801.356	28101
801.499	27972
801.641	27914
801.783	27846
801.926	27926
802.068	27751
802.211	27835
802.353	27823
802.496	27625
802.638	27701
802.78	27660
802.923	27515
803.065	27504
803.208	27526
803.35	27633
803.492	27762
803.635	27804
803.777	27785
803.919	27789
804.061	28101
804.204	27934
804.346	27610
804.488	27854
804.63	27762
804.773	27682
804.915	27899
805.057	27903
805.199	27934
805.341	27827
805.483	28025
805.626	27766
805.768	27854
805.91	28025
806.052	27964
806.194	27972
806.336	28078
806.478	28067
806.62	27934
806.762	28139
806.904	28219
807.046	28603
807.188	28504
807.33	28398
807.472	28485
807.614	28341
807.756	28432
807.898	28207
808.04	28192
808.182	28303
808.324	28337
808.465	28379
808.607	28512
808.749	28649
808.891	28668
809.033	28858
809.174	28664
809.316	28588
809.458	28630
809.6	28702
809.741	28786
809.883	28797
810.025	28888
810.166	28900
810.308	29003
810.45	28850
810.591	28759
810.733	28694
810.875	28733
811.016	28493
811.158	28611
811.299	28774
811.441	28816
811.582	28752
811.724	28618
811.865	28546
812.007	28580
812.148	28748
812.29	28672
812.431	28763
812.573	28999
812.714	29079
812.855	29102
812.997	29280
813.138	29341
813.279	29284
813.421	29197
813.562	29117
813.703	29006
813.845	28949
813.986	28523
814.127	28504
814.268	28325
814.41	28356
814.551	28299
814.692	28398
814.833	28337
814.974	28249
815.115	28322
815.256	28196
815.397	28261
815.539	28341
815.68	28067
815.821	28070
815.962	28162
816.103	28177
816.244	27998
816.385	27876
816.526	27899
816.666	27736
816.807	27606
816.948	27728
817.089	27793
817.23	27675
817.371	27595
817.512	27667
817.653	27610
817.793	27504
817.934	27618
818.075	27625
818.216	27599
818.356	27530
818.497	27454
818.638	27291
818.778	27329
818.919	27450
819.06	27443
819.2	27515
819.341	27530
819.481	27656
819.622	27876
819.762	27998
819.903	27884
820.043	27854
820.184	27728
820.324	27739
820.465	27751
820.605	27926
820.746	27785
820.886	27542
821.026	27736
821.167	27663
821.307	27705
821.447	27743
821.588	27576
821.728	27515
821.868	27291
822.008	27043
822.149	27051
822.289	27176
822.429	26971
822.569	26716
822.709	26849
822.849	26739
822.99	26705
823.13	26727
823.27	26621
823.41	26492
823.55	26381
823.69	26606
823.83	26579
823.97	26298
824.11	26229
824.25	26256
824.389	26282
824.529	26370
824.669	26393
824.809	26374
824.949	26465
825.089	26339
825.228	26305
825.368	26122
825.508	26054
825.648	26088
825.787	26210
825.927	26164
826.067	26191
826.206	26259
826.346	26111
826.485	26218
826.625	26111
826.765	26385
826.904	26271
827.044	26027
827.183	25856
827.323	25852
827.462	25913
827.601	25830
827.741	25883
827.88	25883
828.02	25746
828.159	25879
828.298	25822
828.437	25860
828.577	25788
828.716	25947
828.855	25849
828.994	25597
829.134	25518
829.273	25696
829.412	25525
829.551	25578
829.69	25457
829.829	25597
829.968	25620
830.107	25613
830.246	25556
830.385	25533
830.524	25453
830.663	25327
830.802	25282
830.941	25217
831.08	25038
831.219	25183
831.357	25137
831.496	25350
831.635	25164
831.774	25034
831.913	25015
832.051	24970
832.19	24928
832.329	24901
832.467	24913
832.606	24768
832.744	24753
832.883	24673
833.022	24749
833.16	24833
833.299	24909
833.437	24852
833.576	24916
833.714	25023
833.852	24897
833.991	24935
834.129	25072
834.267	25012
834.406	24920
834.544	24848
834.682	24958
834.821	24856
834.959	25053
835.097	24882
835.235	24867
835.373	24738
835.511	24802
835.65	24783
835.788	24764
835.926	24627
836.064	24597
836.202	24452
836.34	24776
836.478	24734
836.615	24734
836.753	24726
836.891	24833
837.029	24738
837.167	24654
837.305	24616
837.443	24616
837.58	24574
837.718	24528
837.856	24551
837.993	24555
838.131	24486
838.269	24292
838.406	24315
838.544	24346
838.681	24342
838.819	24148
838.956	24022
839.094	24022
839.231	24015
839.369	24209
839.506	24486
839.643	24232
839.781	24018
839.918	23965
840.055	23897
840.193	23961
840.33	23912
840.467	23999
840.604	24049
840.742	24190
840.879	23737
841.016	23988
841.153	23802
841.29	23965
841.427	23882
841.564	24148
841.701	23893
841.838	24003
841.975	23912
842.112	23840
842.249	23836
842.385	23729
842.522	24030
842.659	23634
842.796	23745
842.933	23741
843.069	23695
843.206	23733
843.343	23771
843.479	23695
843.616	23699
843.752	23421
843.889	23528
844.025	23627
844.162	23490
844.298	23463
844.435	23467
844.571	23364
844.708	23520
844.844	23585
844.98	23668
845.117	23585
845.253	23364
845.389	23440
845.525	23353
845.661	23368
845.798	23147
845.934	23280
846.07	23216
846.206	23113
846.342	23398
846.478	23303
846.614	22946
846.75	22866
846.886	22820
847.022	23041
847.158	22938
847.294	22881
847.429	22877
847.565	22946
847.701	23204
847.837	22816
847.972	22569
848.108	22729
848.244	22634
848.379	22588
848.515	22557
848.65	22565
848.786	22470
848.921	22421
849.057	22656
849.192	22596
849.328	22508
849.463	22542
849.598	22398
849.734	22363
849.869	22341
850.004	22230
850.14	22219
850.275	22344
850.41	22379
850.545	22306
850.68	22177
850.815	22234
850.95	22215
851.085	22363
851.22	22379
851.355	22177
851.49	22177
851.625	22223
851.76	22246
851.895	22219
852.03	22185
852.165	22287
852.299	22261
852.434	22348
852.569	22215
852.703	22192
852.838	22291
852.973	22440
853.107	22348
853.242	22261
853.376	22116
853.511	21979
853.645	22112
853.78	22128
853.914	22242
854.048	22074
854.183	22124
854.317	22234
854.451	22261
854.585	22154
854.72	22002
854.854	22177
854.988	22086
855.122	22082
855.256	21983
855.39	22059
855.524	22147
855.658	22135
855.792	21975
855.926	22063
856.06	22162
856.194	22207
856.327	21998
856.461	21968
856.595	22082
856.729	21975
856.862	22272
856.996	22097
857.13	22044
857.263	22154
857.397	22177
857.53	22097
857.664	22204
857.797	22154
857.931	22086
858.064	22124
858.197	22166
858.331	22135
858.464	22120
858.597	22044
858.731	21926
858.864	21983
858.997	22017
859.13	22150
859.263	22147
859.396	22135
859.529	21994
859.662	22040
859.795	22044
859.928	22040
860.061	22238
860.194	22253
860.327	22192
860.46	22162
860.592	22162
860.725	22325
860.858	22192
860.99	22101
861.123	22063
861.256	21953
861.388	22002
861.521	22812
861.653	22010
861.786	21899
861.918	21918
862.05	21930
862.183	21983
862.315	22036
862.447	22017
862.58	22013
862.712	21873
862.844	21781
862.976	21884
863.108	21880
863.24	22417
863.372	21781
863.504	21895
863.636	21751
863.768	21842
863.9	21869
864.032	21724
864.164	21800
864.296	21842
864.428	21892
864.559	21865
864.691	21808
864.823	21861
864.954	21770
865.086	21739
865.217	21800
865.349	21656
865.48	21652
865.612	21785
865.743	21937
865.875	21743
866.006	21686
866.137	21549
866.269	21595
866.4	21667
866.531	21606
866.662	21583
866.793	21603
866.924	21542
867.055	21671
867.186	21660
867.317	21644
867.448	21599
867.579	21568
867.71	21561
867.841	21576
867.972	21622
868.103	21679
868.233	21652
868.364	21595
868.495	21720
868.625	21770
868.756	22025
868.886	21679
869.017	21812
869.147	22051
869.278	21975
869.408	21960
869.539	21850
869.669	21926
869.799	21873
869.929	22010
870.06	21949
870.19	22219
870.32	22078
870.45	22177
870.58	22261
870.71	22276
870.84	22341
870.97	22230
871.1	22192
871.23	22443
871.36	22440
871.489	22219
871.619	22554
871.749	22546
871.879	22394
872.008	22542
872.138	22516
872.267	22405
872.397	22333
872.526	22139
872.656	22219
872.785	22348
872.915	22333
873.044	22561
873.173	22394
873.303	22519
873.432	22569
873.561	22626
873.69	22527
873.819	22432
873.948	22481
874.077	22440
874.206	22459
874.335	22382
874.464	22531
874.593	22687
874.722	22736
874.851	22839
874.979	22748
875.108	22733
875.237	22744
875.365	22565
875.494	22649
875.623	22793
875.751	22668
875.88	22812
876.008	22850
876.136	23048
876.265	23136
876.393	23052
876.521	23098
876.65	23132
876.778	23064
876.906	23048
877.034	23006
877.162	23037
877.29	22957
877.418	22976
877.546	23044
877.674	22987
877.802	23010
877.93	23071
878.058	22957
878.185	22877
878.313	22995
878.441	23086
878.568	22866
878.696	22946
878.824	23052
878.951	23117
879.079	23288
879.206	23307
879.333	23239
879.461	23075
879.588	23006
879.715	23296
879.842	23261
879.97	23067
880.097	22953
880.224	22850
880.351	22949
880.478	22820
880.605	22812
880.732	23014
880.859	23064
880.986	22801
881.112	22965
881.239	22698
881.366	22580
881.493	22497
881.619	22398
881.746	22478
881.872	22569
881.999	22390
882.125	22459
882.252	22405
882.378	22363
882.505	22421
882.631	22291
882.757	22070
882.883	22188
883.01	22181
883.136	22067
883.262	22040
883.388	21934
883.514	22196
883.64	22105
883.766	22051
883.892	22032
884.018	21884
884.143	22154
884.269	22055
884.395	21846
884.52	21804
884.646	21819
884.772	21656
884.897	21663
885.023	21785
885.148	21968
885.274	21838
885.399	21876
885.524	21800
885.65	21751
885.775	21743
885.9	21751
886.025	21876
886.15	21819
886.275	21751
886.4	21545
886.525	21656
886.65	21743
886.775	21671
886.9	21937
887.025	21770
887.149	21812
887.274	21496
887.399	21553
887.523	21561
887.648	21374
887.773	21401
887.897	21580
888.021	21523
888.146	21526
888.27	21713
888.395	21652
888.519	21568
888.643	21526
888.767	21663
888.891	21397
889.015	21321
889.139	21454
889.263	21351
889.387	21378
889.511	21405
889.635	21397
889.759	21264
889.883	21310
890.006	21268
890.13	21237
890.254	21100
890.377	21142
890.501	21047
890.624	20906
890.748	21180
890.871	21013
890.995	20838
891.118	20796
891.241	20891
891.364	20765
891.488	20963
891.611	20834
891.734	20876
891.857	20975
891.98	20902
892.103	20899
892.226	20845
892.349	20823
892.471	20549
892.594	20625
892.717	20758
892.839	20743
892.962	20735
893.085	20762
893.207	20750
893.33	20590
893.452	20693
893.575	20811
893.697	20785
893.819	20941
893.941	20933
894.064	20902
894.186	20701
894.308	20655
894.43	20743
894.552	20853
894.674	20861
894.796	20659
894.918	20758
895.04	20583
895.161	20842
895.283	20716
895.405	20807
895.526	20750
895.648	20716
895.769	20773
895.891	20667
896.012	20762
896.134	20830
896.255	20826
896.376	20678
896.498	20712
896.619	20838
896.74	20708
896.861	20769
896.982	21116
897.103	21093
897.224	21066
897.345	21032
897.466	20762
897.587	20990
897.708	21081
897.828	21032
897.949	20834
898.07	20830
898.19	20807
898.311	20990
898.431	20963
898.552	20910
898.672	20845
898.792	20872
898.913	20918
899.033	20842
899.153	20686
899.273	20720
899.393	20701
899.513	20731
899.633	20716
899.753	20697
899.873	20788
899.993	20705
900.113	20686
900.232	20682
900.352	20560
900.472	20545
900.591	20446
900.711	20442
900.83	20423
900.95	20556
901.069	20537
901.189	20278
901.308	20050
901.427	19982
901.546	20008
901.665	19989
901.784	20005
901.904	19811
902.023	19803
902.141	19525
902.26	19662
902.379	19620
902.498	19495
902.617	19544
902.735	19537
902.854	19506
902.973	19377
903.091	19301
903.21	19206
903.328	19175
903.446	19076
903.565	19034
903.683	19027
903.801	18932
903.919	18962
904.038	18928
904.156	18814
904.274	18901
904.392	18776
904.51	18738
904.627	18753
904.745	18844
904.863	18802
904.981	18642
905.098	18490
905.216	18445
905.334	18490
905.451	18437
905.569	18448
905.686	18490
905.803	18483
905.921	18334
906.038	18247
906.155	18247
906.272	18106
906.389	18224
906.506	17958
906.623	17988
906.74	17912
906.857	17798
906.974	17908
907.091	18083
907.208	18106
907.324	17946
907.441	17912
907.557	17775
907.674	17687
907.79	17672
907.907	17528
908.023	17592
908.139	17535
908.256	17505
908.372	17604
908.488	17570
908.604	17478
908.72	17353
908.836	17376
908.952	17364
909.068	17501
909.184	17570
909.3	17345
909.415	17395
909.531	17364
909.647	17197
909.762	17117
909.878	17117
909.993	17079
910.108	17083
910.224	17025
910.339	17056
910.454	16904
910.57	16946
910.685	16904
910.8	17102
910.915	17003
911.03	16816
911.145	16645
911.259	16656
911.374	16630
911.489	16565
911.604	16512
911.718	16432
911.833	16363
911.947	16242
912.062	16280
912.176	16424
912.291	16306
912.405	16390
912.519	16584
912.633	16660
912.748	16462
912.862	16421
912.976	16284
913.09	16185
913.204	16230
913.318	16215
913.431	16306
913.545	16257
913.659	16375
913.772	16139
913.886	16051
914	16097
914.113	16162
914.226	16169
914.34	16059
914.453	15918
914.566	16055
914.68	15884
914.793	15884
914.906	15720
915.019	15641
915.132	15549
915.245	15507
915.358	15629
915.47	15633
915.583	15584
915.696	15534
915.809	15720
915.921	15739
916.034	15530
916.146	15500
916.259	15534
916.371	15591
916.483	15553
916.595	15397
916.708	15405
916.82	15420
916.932	15359
917.044	15435
917.156	15340
917.268	15222
917.38	15237
917.491	15245
917.603	15237
917.715	15325
917.826	15348
917.938	15104
918.049	15036
918.161	15165
918.272	15264
918.384	15233
918.495	15165
918.606	15074
918.717	14872
918.828	14986
918.939	14941
919.05	14857
919.161	15005
919.272	14830
919.383	14918
919.494	14986
919.604	15199
919.715	14963
919.826	14906
919.936	15005
920.047	15131
920.157	14929
920.267	15199
920.378	14967
920.488	14845
920.598	15131
920.708	15150
920.818	15020
920.928	15150
921.038	15287
921.148	15222
921.258	14849
921.368	14769
921.477	14640
921.587	14655
921.697	14598
921.806	14648
921.916	14549
922.025	14263
922.134	14180
922.244	14275
922.353	14336
922.462	14130
922.571	14164
922.68	14058
922.789	13894
922.898	13967
923.007	13864
923.116	14005
923.224	13852
923.333	14005
923.442	13814
923.55	13765
923.659	13776
923.767	13940
923.876	13624
923.984	13799
924.092	13734
924.201	13723
924.309	13708
924.417	13753
924.525	13575
924.633	13620
924.741	14381
924.849	13392
924.956	13533
925.064	13396
925.172	13206
925.279	13308
925.387	13324
925.494	13381
925.602	13445
925.709	13396
925.816	13209
925.924	13149
926.031	13430
926.138	13221
926.245	13388
926.352	13126
926.459	13278
926.566	13377
926.673	13236
926.779	13084
926.886	13099
926.993	12970
927.099	13008
927.206	12791
927.312	12856
927.419	12905
927.525	12932
927.631	12913
927.737	12730
927.843	12791
927.95	12616
928.056	12776
928.162	12711
928.267	12760
928.373	13350
928.479	12791
928.585	12509
928.69	12578
928.796	12669
928.901	12612
929.007	12410
929.112	12551
929.218	12486
929.323	12479
929.428	12388
929.533	12578
929.638	12353
929.743	12289
929.848	12460
929.953	12391
930.058	12254
930.163	12167
930.267	12106
930.372	12273
930.477	12030
930.581	12239
930.685	12095
930.79	12011
930.894	11931
930.998	11946
931.103	12091
931.207	11729
931.311	11707
931.415	11524
931.519	11379
931.623	11353
