Data from test_V78500241_110.txt Node
Date: Fri Mar 25 15:42:33 CST 2022
User: usil
Spectrometer: V785-0024
Trigger mode: 0
Integration Time (sec): 4.000000E-1
Scans to average: 1
Nonlinearity correction enabled: false
Boxcar width: 0
Storing dark spectrum: false
XAxis mode: Wavelengths
Number of Pixels in Spectrum: 1024
>>>>>Begin Spectral Data<<<<<
801.071	29760
801.214	29893
801.356	29528
801.499	29528
801.641	29303
801.783	29387
801.926	29414
802.068	29330
802.211	29254
802.353	29242
802.496	29060
802.638	29079
802.78	28972
802.923	28927
803.065	28888
803.208	28877
803.35	28934
803.492	29079
803.635	29075
803.777	28961
803.919	29010
804.061	29334
804.204	28995
804.346	29048
804.488	29025
804.63	29083
804.773	28953
804.915	29075
805.057	29185
805.199	29075
805.341	29181
805.483	29162
805.626	29159
805.768	28934
805.91	29296
806.052	29208
806.194	29151
806.336	29277
806.478	29155
806.62	29143
806.762	29246
806.904	29330
807.046	29653
807.188	29421
807.33	29547
807.472	29558
807.614	29630
807.756	29493
807.898	29318
808.04	29334
808.182	29322
808.324	29250
808.465	29258
808.607	29570
808.749	29642
808.891	29798
809.033	29859
809.174	29695
809.316	29699
809.458	29767
809.6	29771
809.741	29748
809.883	29802
810.025	29980
810.166	30129
810.308	30030
810.45	29958
810.591	29984
810.733	29684
810.875	29585
811.016	29547
811.158	29623
811.299	29821
811.441	29809
811.582	29828
811.724	29646
811.865	29653
812.007	29695
812.148	29493
812.29	29718
812.431	29828
812.573	29946
812.714	30026
812.855	30018
812.997	30197
813.138	30403
813.279	30376
813.421	30190
813.562	30117
813.703	29840
813.845	29775
813.986	29455
814.127	29341
814.268	29280
814.41	29406
814.551	29273
814.692	29421
814.833	29162
814.974	29303
815.115	29132
815.256	29185
815.397	29102
815.539	29113
815.68	29025
815.821	28968
815.962	28831
816.103	28812
816.244	28816
816.385	28862
816.526	28634
816.666	28599
816.807	28424
816.948	28538
817.089	28497
817.23	28455
817.371	28337
817.512	28421
817.653	28291
817.793	28401
817.934	28337
818.075	28417
818.216	28432
818.356	28352
818.497	28154
818.638	28093
818.778	27983
818.919	28154
819.06	28177
819.2	28188
819.341	28318
819.481	28344
819.622	28379
819.762	28641
819.903	28527
820.043	28500
820.184	28421
820.324	28310
820.465	28596
820.605	28432
820.746	28405
820.886	28207
821.026	28322
821.167	28226
821.307	28306
821.447	28257
821.588	28090
821.728	28090
821.868	27804
822.008	27766
822.149	27755
822.289	27713
822.429	27466
822.569	27405
822.709	27447
822.849	27001
822.99	27184
823.13	27154
823.27	27135
823.41	27032
823.55	27062
823.69	27017
823.83	26849
823.97	26918
824.11	26792
824.25	26762
824.389	26705
824.529	26956
824.669	26826
824.809	26880
824.949	26750
825.089	26819
825.228	26815
825.368	26427
825.508	26549
825.648	26579
825.787	26564
825.927	26621
826.067	26514
826.206	26583
826.346	26636
826.485	26625
826.625	26648
826.765	26609
826.904	26606
827.044	26248
827.183	26317
827.323	26100
827.462	26225
827.601	26119
827.741	26290
827.88	26225
828.02	26065
828.159	26092
828.298	26100
828.437	26130
828.577	25974
828.716	26263
828.855	26073
828.994	25856
829.134	25879
829.273	25982
829.412	25799
829.551	25746
829.69	25932
829.829	25906
829.968	25826
830.107	25868
830.246	25826
830.385	25548
830.524	25776
830.663	25685
830.802	25468
830.941	25464
831.08	25346
831.219	25460
831.357	25434
831.496	25651
831.635	25316
831.774	25209
831.913	25308
832.051	25088
832.19	25114
832.329	25160
832.467	25099
832.606	24973
832.744	25110
832.883	24966
833.022	24947
833.16	24905
833.299	25122
833.437	25099
833.576	24992
833.714	25012
833.852	24989
833.991	25080
834.129	25061
834.267	25084
834.406	24962
834.544	25019
834.682	24776
834.821	24890
834.959	25019
835.097	24962
835.235	25004
835.373	24966
835.511	24958
835.65	24795
835.788	24787
835.926	24711
836.064	24566
836.202	24684
836.34	24745
836.478	24852
836.615	24658
836.753	24787
836.891	24875
837.029	24856
837.167	24726
837.305	24578
837.443	24639
837.58	24525
837.718	24787
837.856	24681
837.993	24593
838.131	24540
838.269	24490
838.406	24597
838.544	24429
838.681	24121
838.819	24258
838.956	24098
839.094	24015
839.231	24041
839.369	24243
839.506	24357
839.643	24167
839.781	24007
839.918	23958
840.055	23939
840.193	24053
840.33	23980
840.467	24045
840.604	23984
840.742	24106
840.879	23741
841.016	23764
841.153	23836
841.29	23999
841.427	23821
841.564	24022
841.701	23802
841.838	23935
841.975	23748
842.112	23687
842.249	23779
842.385	23528
842.522	23805
842.659	23562
842.796	23596
842.933	23577
843.069	23474
843.206	23497
843.343	23520
843.479	23649
843.616	23486
843.752	23258
843.889	23356
844.025	23425
844.162	23140
844.298	23296
844.435	23235
844.571	23292
844.708	23288
844.844	23368
844.98	23425
845.117	23341
845.253	23246
845.389	23041
845.525	23132
845.661	23185
845.798	22911
845.934	23064
846.07	23033
846.206	23056
846.342	23117
846.478	22965
846.614	22854
846.75	22573
846.886	22683
847.022	22805
847.158	22790
847.294	22713
847.429	22736
847.565	22668
847.701	22824
847.837	22402
847.972	22371
848.108	22538
848.244	22504
848.379	22253
848.515	22291
848.65	22204
848.786	22268
848.921	22257
849.057	22337
849.192	22291
849.328	22211
849.463	22223
849.598	22223
849.734	22173
849.869	22097
850.004	21964
850.14	21918
850.275	22040
850.41	21804
850.545	21907
850.68	21899
850.815	21991
850.95	22063
851.085	22124
851.22	22021
851.355	21903
851.49	21899
851.625	21808
851.76	21888
851.895	21926
852.03	21979
852.165	21945
852.299	21888
852.434	21998
852.569	22002
852.703	21930
852.838	21991
852.973	22040
853.107	21949
853.242	21732
853.376	21762
853.511	21564
853.645	21641
853.78	21835
853.914	21724
854.048	21747
854.183	21797
854.317	21637
854.451	21793
854.585	21614
854.72	21686
854.854	21770
854.988	21679
855.122	21728
855.256	21633
855.39	21728
855.524	21918
855.658	21743
855.792	21713
855.926	21713
856.06	21956
856.194	21755
856.327	21644
856.461	21644
856.595	21682
856.729	21755
856.862	21857
856.996	21663
857.13	21694
857.263	21793
857.397	21766
857.53	21705
857.664	21793
857.797	21747
857.931	21724
858.064	21759
858.197	21846
858.331	21587
858.464	21648
858.597	21656
858.731	21549
858.864	21542
858.997	21663
859.13	21648
859.263	21606
859.396	21808
859.529	21606
859.662	21614
859.795	21644
859.928	21576
860.061	21831
860.194	21819
860.327	21724
860.46	21603
860.592	21698
860.725	21785
860.858	21781
860.99	21629
861.123	21504
861.256	21561
861.388	21774
861.521	22158
861.653	21587
861.786	21469
861.918	21511
862.05	21663
862.183	21660
862.315	21633
862.447	21781
862.58	21694
862.712	21481
862.844	21336
862.976	21386
863.108	21416
863.24	21580
863.372	21332
863.504	21435
863.636	21428
863.768	21249
863.9	21370
864.032	21214
864.164	21188
864.296	21317
864.428	21348
864.559	21336
864.691	21329
864.823	21389
864.954	21325
865.086	21340
865.217	21195
865.349	21188
865.48	21188
865.612	21195
865.743	21329
865.875	21173
866.006	21237
866.137	21256
866.269	21313
866.4	21287
866.531	21116
866.662	21096
866.793	21317
866.924	21180
867.055	21211
867.186	21062
867.317	21142
867.448	21074
867.579	21154
867.71	21066
867.841	21055
867.972	21169
868.103	21119
868.233	21180
868.364	21089
868.495	21317
868.625	21363
868.756	21545
868.886	21340
869.017	21268
869.147	21625
869.278	21439
869.408	21367
869.539	21393
869.669	21363
869.799	21370
869.929	21481
870.06	21526
870.19	21785
870.32	21656
870.45	21686
870.58	21732
870.71	21861
870.84	21846
870.97	21724
871.1	21827
871.23	21907
871.36	21964
871.489	21850
871.619	21869
871.749	21922
871.879	21934
872.008	21953
872.138	21937
872.267	21907
872.397	21937
872.526	21804
872.656	21774
872.785	21778
872.915	22105
873.044	21998
873.173	21949
873.303	22055
873.432	22013
873.561	22166
873.69	21892
873.819	21922
873.948	22082
874.077	22055
874.206	21941
874.335	22029
874.464	22131
874.593	22306
874.722	22185
874.851	22303
874.979	22276
875.108	22276
875.237	22105
875.365	22105
875.494	22147
875.623	22314
875.751	22272
875.88	22230
876.008	22341
876.136	22478
876.265	22626
876.393	22771
876.521	22626
876.65	22698
876.778	22542
876.906	22611
877.034	22519
877.162	22596
877.29	22504
877.418	22580
877.546	22577
877.674	22523
877.802	22584
877.93	22596
878.058	22474
878.185	22440
878.313	22527
878.441	22478
878.568	22500
878.696	22588
878.824	22706
878.951	22580
879.079	22729
879.206	22828
879.333	22653
879.461	22641
879.588	22729
879.715	22748
879.842	22889
879.97	22759
880.097	22333
880.224	22379
880.351	22424
880.478	22470
880.605	22325
880.732	22402
880.859	22683
880.986	22447
881.112	22443
881.239	22272
881.366	22131
881.493	22120
881.619	21956
881.746	22063
881.872	22025
881.999	21956
882.125	21949
882.252	21964
882.378	21949
882.505	22044
882.631	21865
882.757	21724
882.883	21724
883.01	21610
883.136	21778
883.262	21644
883.388	21583
883.514	21667
883.64	21633
883.766	21633
883.892	21504
884.018	21538
884.143	21663
884.269	21762
884.395	21355
884.52	21317
884.646	21260
884.772	21245
884.897	21150
885.023	21424
885.148	21393
885.274	21485
885.399	21397
885.524	21359
885.65	21302
885.775	21211
885.9	21237
886.025	21340
886.15	21428
886.275	21310
886.4	21127
886.525	21245
886.65	21195
886.775	21214
886.9	21298
887.025	21363
887.149	21332
887.274	21241
887.399	21001
887.523	20998
887.648	21032
887.773	21017
887.897	21157
888.021	21214
888.146	21024
888.27	21169
888.395	21188
888.519	21093
888.643	21100
888.767	21032
888.891	20864
889.015	20823
889.139	20918
889.263	20773
889.387	20868
889.511	21074
889.635	20979
889.759	20834
889.883	20773
890.006	20895
890.13	20830
890.254	20682
890.377	20739
890.501	20552
890.624	20503
890.748	20594
890.871	20423
890.995	20404
891.118	20377
891.241	20495
891.364	20320
891.488	20537
891.611	20533
891.734	20385
891.857	20408
891.98	20415
892.103	20400
892.226	20309
892.349	20298
892.471	20180
892.594	20339
892.717	20457
892.839	20294
892.962	20309
893.085	20431
893.207	20400
893.33	20138
893.452	20195
893.575	20332
893.697	20271
893.819	20465
893.941	20446
894.064	20385
894.186	20214
894.308	20225
894.43	20389
894.552	20461
894.674	20423
894.796	20298
894.918	20412
895.04	20081
895.161	20339
895.283	20336
895.405	20218
895.526	20218
895.648	20233
895.769	20385
895.891	20305
896.012	20423
896.134	20278
896.255	20263
896.376	20320
896.498	20309
896.619	20381
896.74	20328
896.861	20275
896.982	20708
897.103	20781
897.224	20644
897.345	20503
897.466	20431
897.587	20419
897.708	20659
897.828	20640
897.949	20431
898.07	20419
898.19	20484
898.311	20598
898.431	20377
898.552	20446
898.672	20514
898.792	20655
898.913	20511
899.033	20438
899.153	20237
899.273	20130
899.393	20134
899.513	20244
899.633	20096
899.753	20187
899.873	19993
899.993	20336
900.113	20122
900.232	20199
900.352	20180
900.472	20027
900.591	19906
900.711	20043
900.83	20012
900.95	20073
901.069	20122
901.189	19887
901.308	19624
901.427	19514
901.546	19658
901.665	19624
901.784	19491
901.904	19407
902.023	19324
902.141	19114
902.26	19129
902.379	19118
902.498	19129
902.617	19129
902.735	19015
902.854	19099
902.973	19069
903.091	18692
903.21	18711
903.328	18711
903.446	18677
903.565	18627
903.683	18502
903.801	18429
903.919	18414
904.038	18452
904.156	18357
904.274	18372
904.392	18365
904.51	18251
904.627	18346
904.745	18460
904.863	18330
904.981	18011
905.098	18019
905.216	17935
905.334	17950
905.451	17870
905.569	17950
905.686	17908
905.803	17984
905.921	17752
906.038	17855
906.155	17760
906.272	17687
906.389	17684
906.506	17516
906.623	17440
906.74	17493
906.857	17273
906.974	17330
907.091	17440
907.208	17551
907.324	17455
907.441	17337
907.557	17185
907.674	17056
907.79	17025
907.907	17098
908.023	17166
908.139	17147
908.256	17117
908.372	17025
908.488	16942
908.604	16843
908.72	16752
908.836	16790
908.952	16793
909.068	16763
909.184	16885
909.3	16786
909.415	16900
909.531	16774
909.647	16504
909.762	16584
909.878	16592
909.993	16508
910.108	16459
910.224	16474
910.339	16443
910.454	16421
910.57	16382
910.685	16230
910.8	16546
910.915	16462
911.03	16291
911.145	16059
911.259	15998
911.374	16105
911.489	15937
911.604	15979
911.718	15789
911.833	15831
911.947	15701
912.062	15686
912.176	15842
912.291	15838
912.405	15827
912.519	16048
912.633	15991
912.748	15899
912.862	15812
912.976	15504
913.09	15553
913.204	15515
913.318	15515
913.431	15671
913.545	15610
913.659	15732
913.772	15603
913.886	15500
914	15412
914.113	15485
914.226	15519
914.34	15564
914.453	15298
914.566	15477
914.68	15408
914.793	15222
914.906	15123
915.019	15028
915.132	15066
915.245	15066
915.358	15089
915.47	15001
915.583	15112
915.696	15058
915.809	15127
915.921	15127
916.034	14891
916.146	15055
916.259	14960
916.371	15043
916.483	14963
916.595	14887
916.708	14933
916.82	14944
916.932	14815
917.044	14826
917.156	14842
917.268	14708
917.38	14674
917.491	14762
917.603	14773
917.715	14792
917.826	14735
917.938	14746
918.049	14594
918.161	14621
918.272	14758
918.384	14762
918.495	14583
918.606	14648
918.717	14450
918.828	14442
918.939	14541
919.05	14358
919.161	14442
919.272	14214
919.383	14408
919.494	14423
919.604	14579
919.715	14438
919.826	14328
919.936	14339
920.047	14469
920.157	14446
920.267	14587
920.378	14381
920.488	14461
920.598	14533
920.708	14655
920.818	14511
920.928	14594
921.038	14678
921.148	14644
921.258	14408
921.368	14202
921.477	14145
921.587	14157
921.697	13940
921.806	14149
921.916	13993
922.025	13830
922.134	13849
922.244	13643
922.353	13826
922.462	13723
922.571	13613
922.68	13362
922.789	13411
922.898	13476
923.007	13331
923.116	13407
923.224	13396
923.333	13365
923.442	13206
923.55	13244
923.659	13251
923.767	13331
923.876	13198
923.984	13217
924.092	13084
924.201	13141
924.309	13198
924.417	13084
924.525	13179
924.633	13091
924.741	13826
924.849	12901
924.956	12939
925.064	12875
925.172	12833
925.279	12798
925.387	12852
925.494	12810
925.602	12886
925.709	12882
925.816	12734
925.924	12779
926.031	12867
926.138	12863
926.245	12905
926.352	12753
926.459	12738
926.566	12764
926.673	12703
926.779	12589
926.886	12578
926.993	12395
927.099	12426
927.206	12407
927.312	12327
927.419	12414
927.525	12346
927.631	12384
927.737	12239
927.843	12258
927.95	12197
928.056	12152
928.162	12273
928.267	12273
928.373	12852
928.479	12239
928.585	12098
928.69	12194
928.796	12178
928.901	12060
929.007	11840
929.112	12049
929.218	12045
929.323	11958
929.428	11908
929.533	12041
929.638	11885
929.743	11828
929.848	11878
929.953	11961
930.058	11703
930.163	11577
930.267	11627
930.372	11722
930.477	11566
930.581	11874
930.685	11627
930.79	11433
930.894	11516
930.998	11463
931.103	11615
931.207	11159
931.311	11124
931.415	11045
931.519	10831
931.623	10843
