Data from test_V78500241_917.txt Node
Date: Fri Mar 25 15:48:09 CST 2022
User: usil
Spectrometer: V785-0024
Trigger mode: 0
Integration Time (sec): 4.000000E-1
Scans to average: 1
Nonlinearity correction enabled: false
Boxcar width: 0
Storing dark spectrum: false
XAxis mode: Wavelengths
Number of Pixels in Spectrum: 1024
>>>>>Begin Spectral Data<<<<<
801.071	27838
801.214	27770
801.356	27447
801.499	27374
801.641	27332
801.783	27317
801.926	27500
802.068	27218
802.211	27249
802.353	27218
802.496	26906
802.638	26994
802.78	26895
802.923	26902
803.065	26834
803.208	26880
803.35	27043
803.492	27020
803.635	27119
803.777	27001
803.919	27154
804.061	27488
804.204	27294
804.346	27135
804.488	27081
804.63	27211
804.773	27081
804.915	27218
805.057	27173
805.199	27119
805.341	27222
805.483	27294
805.626	27370
805.768	27192
805.91	27359
806.052	27401
806.194	27237
806.336	27401
806.478	27291
806.62	27401
806.762	27405
806.904	27561
807.046	27797
807.188	27804
807.33	27751
807.472	27861
807.614	27652
807.756	27762
807.898	27644
808.04	27443
808.182	27587
808.324	27698
808.465	27644
808.607	27709
808.749	27998
808.891	28017
809.033	28143
809.174	27956
809.316	27720
809.458	27861
809.6	27842
809.741	28021
809.883	28147
810.025	28325
810.166	28219
810.308	28219
810.45	28246
810.591	28204
810.733	27899
810.875	27934
811.016	27759
811.158	27739
811.299	28006
811.441	28177
811.582	28120
811.724	28006
811.865	28006
812.007	27983
812.148	27785
812.29	27975
812.431	28116
812.573	28287
812.714	28428
812.855	28447
812.997	28550
813.138	28630
813.279	28698
813.421	28443
813.562	28500
813.703	28284
813.845	28143
813.986	27884
814.127	27850
814.268	27511
814.41	27686
814.551	27614
814.692	27720
814.833	27549
814.974	27709
815.115	27641
815.256	27614
815.397	27393
815.539	27431
815.68	27325
815.821	27283
815.962	27382
816.103	27291
816.244	27405
816.385	27146
816.526	27176
816.666	27028
816.807	26804
816.948	27100
817.089	27070
817.23	27024
817.371	26967
817.512	26910
817.653	26804
817.793	26819
817.934	26906
818.075	27039
818.216	26986
818.356	26872
818.497	26807
818.638	26484
818.778	26769
818.919	26579
819.06	26773
819.2	26792
819.341	27017
819.481	26925
819.622	27104
819.762	27195
819.903	27173
820.043	27123
820.184	27085
820.324	27028
820.465	27058
820.605	27058
820.746	27135
820.886	26963
821.026	27036
821.167	26963
821.307	27150
821.447	26895
821.588	26857
821.728	26785
821.868	26644
822.008	26511
822.149	26450
822.289	26412
822.429	26191
822.569	26130
822.709	26221
822.849	25944
822.99	25917
823.13	25822
823.27	25769
823.41	25742
823.55	25590
823.69	25811
823.83	25639
823.97	25655
824.11	25582
824.25	25460
824.389	25601
824.529	25677
824.669	25483
824.809	25647
824.949	25715
825.089	25597
825.228	25590
825.368	25388
825.508	25350
825.648	25324
825.787	25422
825.927	25499
826.067	25415
826.206	25559
826.346	25388
826.485	25510
826.625	25373
826.765	25620
826.904	25464
827.044	25247
827.183	25225
827.323	24996
827.462	25179
827.601	25141
827.741	25148
827.88	25190
828.02	24977
828.159	25031
828.298	25194
828.437	25152
828.577	25042
828.716	25171
828.855	25122
828.994	24783
829.134	24894
829.273	24939
829.412	24730
829.551	24791
829.69	24897
829.829	24837
829.968	24920
830.107	24920
830.246	24951
830.385	24719
830.524	24623
830.663	24738
830.802	24658
830.941	24490
831.08	24388
831.219	24486
831.357	24525
831.496	24749
831.635	24467
831.774	24372
831.913	24289
832.051	24121
832.19	24342
832.329	24304
832.467	24064
832.606	24148
832.744	24133
832.883	24114
833.022	24125
833.16	24091
833.299	24057
833.437	24121
833.576	24197
833.714	24087
833.852	24194
833.991	24163
834.129	24251
834.267	24167
834.406	24159
834.544	24270
834.682	24243
834.821	24095
834.959	24342
835.097	24034
835.235	24182
835.373	24087
835.511	24258
835.65	24015
835.788	24148
835.926	23878
836.064	23885
836.202	23836
836.34	23927
836.478	24053
836.615	23973
836.753	24076
836.891	24098
837.029	23931
837.167	23863
837.305	23927
837.443	23866
837.58	23870
837.718	23859
837.856	23950
837.993	23908
838.131	23809
838.269	23630
838.406	23745
838.544	23729
838.681	23402
838.819	23490
838.956	23341
839.094	23288
839.231	23239
839.369	23463
839.506	23668
839.643	23512
839.781	23318
839.918	23379
840.055	23220
840.193	23368
840.33	23265
840.467	23280
840.604	23239
840.742	23501
840.879	23143
841.016	23181
841.153	23086
841.29	23280
841.427	23197
841.564	23311
841.701	23185
841.838	23109
841.975	23197
842.112	23075
842.249	23098
842.385	22927
842.522	23246
842.659	23143
842.796	23006
842.933	22995
843.069	22972
843.206	22957
843.343	22923
843.479	22923
843.616	23174
843.752	22797
843.889	22675
844.025	22915
844.162	22748
844.298	22866
844.435	22717
844.571	22733
844.708	22801
844.844	22839
844.98	22896
845.117	22755
845.253	22660
845.389	22774
845.525	22630
845.661	22630
845.798	22500
845.934	22615
846.07	22421
846.206	22637
846.342	22660
846.478	22577
846.614	22348
846.75	22284
846.886	22188
847.022	22306
847.158	22291
847.294	22257
847.429	22386
847.565	22257
847.701	22481
847.837	21945
847.972	22017
848.108	22109
848.244	21964
848.379	21884
848.515	21747
848.65	21770
848.786	21804
848.921	21884
849.057	21960
849.192	21915
849.328	21945
849.463	21785
849.598	21880
849.734	21838
849.869	21812
850.004	21637
850.14	21587
850.275	21614
850.41	21504
850.545	21526
850.68	21545
850.815	21564
850.95	21648
851.085	21823
851.22	21739
851.355	21587
851.49	21466
851.625	21500
851.76	21618
851.895	21454
852.03	21485
852.165	21568
852.299	21599
852.434	21660
852.569	21583
852.703	21633
852.838	21614
852.973	21690
853.107	21671
853.242	21519
853.376	21500
853.511	21294
853.645	21389
853.78	21587
853.914	21519
854.048	21435
854.183	21351
854.317	21515
854.451	21701
854.585	21374
854.72	21420
854.854	21507
854.988	21378
855.122	21443
855.256	21450
855.39	21481
855.524	21420
855.658	21526
855.792	21458
855.926	21530
856.06	21511
856.194	21408
856.327	21481
856.461	21393
856.595	21416
856.729	21466
856.862	21473
856.996	21530
857.13	21462
857.263	21519
857.397	21523
857.53	21397
857.664	21507
857.797	21462
857.931	21473
858.064	21523
858.197	21500
858.331	21367
858.464	21363
858.597	21195
858.731	21431
858.864	21443
858.997	21374
859.13	21469
859.263	21431
859.396	21488
859.529	21367
859.662	21424
859.795	21382
859.928	21344
860.061	21576
860.194	21507
860.327	21473
860.46	21572
860.592	21469
860.725	21458
860.858	21500
860.99	21443
861.123	21378
861.256	21321
861.388	21431
861.521	22040
861.653	21310
861.786	21287
861.918	21256
862.05	21370
862.183	21367
862.315	21302
862.447	21454
862.58	21325
862.712	21161
862.844	21135
862.976	21207
863.108	21161
863.24	21618
863.372	21112
863.504	21074
863.636	21055
863.768	21108
863.9	21100
864.032	21020
864.164	21005
864.296	21195
864.428	21230
864.559	21176
864.691	21252
864.823	21211
864.954	21180
865.086	21058
865.217	21043
865.349	20971
865.48	20982
865.612	21119
865.743	21169
865.875	21142
866.006	21043
866.137	21043
866.269	20982
866.4	21070
866.531	20967
866.662	20887
866.793	20914
866.924	21089
867.055	20998
867.186	21131
867.317	20941
867.448	20826
867.579	20948
867.71	20788
867.841	20845
867.972	21009
868.103	20971
868.233	20982
868.364	20967
868.495	20963
868.625	21169
868.756	21329
868.886	21131
869.017	21226
869.147	21363
869.278	21230
869.408	21275
869.539	21180
869.669	21298
869.799	21355
869.929	21321
870.06	21302
870.19	21454
870.32	21583
870.45	21580
870.58	21641
870.71	21686
870.84	21641
870.97	21656
871.1	21515
871.23	21724
871.36	21785
871.489	21857
871.619	21675
871.749	21751
871.879	21918
872.008	21994
872.138	21915
872.267	21720
872.397	21705
872.526	21591
872.656	21603
872.785	21785
872.915	21819
873.044	21926
873.173	21854
873.303	21915
873.432	21861
873.561	21869
873.69	21888
873.819	21835
873.948	21838
874.077	21895
874.206	21926
874.335	21819
874.464	21876
874.593	22036
874.722	22105
874.851	22131
874.979	22093
875.108	22238
875.237	22055
875.365	21899
875.494	22128
875.623	22158
875.751	22025
875.88	22082
876.008	22162
876.136	22226
876.265	22470
876.393	22493
876.521	22531
876.65	22535
876.778	22459
876.906	22367
877.034	22348
877.162	22386
877.29	22394
877.418	22413
877.546	22341
877.674	22402
877.802	22375
877.93	22398
878.058	22398
878.185	22295
878.313	22360
878.441	22379
878.568	22200
878.696	22246
878.824	22375
878.951	22504
879.079	22557
879.206	22710
879.333	22550
879.461	22451
879.588	22569
879.715	22565
879.842	22656
879.97	22440
880.097	22234
880.224	22257
880.351	22249
880.478	22272
880.605	22169
880.732	22128
880.859	22421
880.986	22238
881.112	22211
881.239	22128
881.366	21884
881.493	21865
881.619	21800
881.746	21842
881.872	21819
881.999	21854
882.125	21785
882.252	21816
882.378	21766
882.505	21865
882.631	21728
882.757	21526
882.883	21526
883.01	21652
883.136	21454
883.262	21359
883.388	21397
883.514	21466
883.64	21431
883.766	21367
883.892	21302
884.018	21272
884.143	21534
884.269	21466
884.395	21260
884.52	21135
884.646	21100
884.772	21127
884.897	21051
885.023	21081
885.148	21112
885.274	21199
885.399	21218
885.524	21146
885.65	21146
885.775	21123
885.9	21043
886.025	21237
886.15	21157
886.275	21169
886.4	21104
886.525	21135
886.65	21077
886.775	20979
886.9	21260
887.025	21424
887.149	21116
887.274	20967
887.399	20788
887.523	20921
887.648	20834
887.773	20804
887.897	20990
888.021	21055
888.146	20811
888.27	21093
888.395	20899
888.519	20872
888.643	20990
888.767	20952
888.891	20746
889.015	20754
889.139	20731
889.263	20575
889.387	20845
889.511	20899
889.635	20853
889.759	20609
889.883	20613
890.006	20788
890.13	20861
890.254	20648
890.377	20674
890.501	20514
890.624	20419
890.748	20560
890.871	20332
890.995	20172
891.118	20305
891.241	20161
891.364	20237
891.488	20362
891.611	20298
891.734	20278
891.857	20225
891.98	20259
892.103	20336
892.226	20252
892.349	20206
892.471	20199
892.594	20126
892.717	20240
892.839	20180
892.962	20191
893.085	20225
893.207	20142
893.33	20195
893.452	20027
893.575	20271
893.697	20214
893.819	20351
893.941	20358
894.064	20317
894.186	19978
894.308	20122
894.43	20157
894.552	20298
894.674	20214
894.796	20138
894.918	20157
895.04	20138
895.161	20320
895.283	20259
895.405	20199
895.526	20069
895.648	20081
895.769	20138
895.891	20199
896.012	20290
896.134	20115
896.255	20206
896.376	20210
896.498	20233
896.619	20240
896.74	20138
896.861	20263
896.982	20514
897.103	20678
897.224	20412
897.345	20446
897.466	20434
897.587	20484
897.708	20560
897.828	20358
897.949	20313
898.07	20244
898.19	20385
898.311	20438
898.431	20351
898.552	20324
898.672	20465
898.792	20396
898.913	20355
899.033	20172
899.153	20122
899.273	20012
899.393	20210
899.513	20157
899.633	20180
899.753	20149
899.873	20122
899.993	20103
900.113	20107
900.232	20115
900.352	20050
900.472	19944
900.591	19906
900.711	19909
900.83	19890
900.95	19879
901.069	19997
901.189	19811
901.308	19586
901.427	19590
901.546	19571
901.665	19544
901.784	19590
901.904	19255
902.023	19259
902.141	19091
902.26	18985
902.379	19179
902.498	19027
902.617	18989
902.735	19095
902.854	18958
902.973	18954
903.091	18791
903.21	18707
903.328	18722
903.446	18570
903.565	18494
903.683	18547
903.801	18258
903.919	18452
904.038	18418
904.156	18323
904.274	18338
904.392	18235
904.51	18140
904.627	18285
904.745	18228
904.863	18304
904.981	18053
905.098	17965
905.216	18011
905.334	17969
905.451	17931
905.569	17851
905.686	17946
905.803	17737
905.921	17703
906.038	17790
906.155	17726
906.272	17543
906.389	17653
906.506	17608
906.623	17459
906.74	17429
906.857	17273
906.974	17448
907.091	17368
907.208	17687
907.324	17433
907.441	17402
907.557	17189
907.674	17109
907.79	17090
907.907	17079
908.023	17162
908.139	17250
908.256	17197
908.372	16900
908.488	17029
908.604	16953
908.72	16831
908.836	16881
908.952	16854
909.068	16843
909.184	16965
909.3	16858
909.415	16938
909.531	16881
909.647	16634
909.762	16561
909.878	16542
909.993	16615
910.108	16508
910.224	16618
910.339	16493
910.454	16474
910.57	16405
910.685	16272
910.8	16607
910.915	16523
911.03	16310
911.145	16230
911.259	16143
911.374	16363
911.489	16101
911.604	16154
911.718	15918
911.833	16032
911.947	15876
912.062	15770
912.176	15918
912.291	16048
912.405	15930
912.519	16105
912.633	16051
912.748	16067
912.862	15941
912.976	15766
913.09	15625
913.204	15622
913.318	15739
913.431	15797
913.545	15785
913.659	15846
913.772	15709
913.886	15606
914	15572
914.113	15644
914.226	15641
914.34	15603
914.453	15382
914.566	15542
914.68	15382
914.793	15458
914.906	15150
915.019	15184
915.132	15116
915.245	15081
915.358	15173
915.47	15112
915.583	15112
915.696	15157
915.809	15245
915.921	15336
916.034	15138
916.146	15032
916.259	15066
916.371	15245
916.483	15116
916.595	15077
916.708	14998
916.82	14948
916.932	15020
917.044	14979
917.156	14792
917.268	14899
917.38	14823
917.491	14785
917.603	14762
917.715	14941
917.826	14853
917.938	14838
918.049	14682
918.161	14807
918.272	14941
918.384	14918
918.495	14861
918.606	14674
918.717	14606
918.828	14541
918.939	14670
919.05	14541
919.161	14594
919.272	14358
919.383	14374
919.494	14724
919.604	14712
919.715	14499
919.826	14541
919.936	14537
920.047	14568
920.157	14522
920.267	14746
920.378	14632
920.488	14541
920.598	14659
920.708	14804
920.818	14682
920.928	14632
921.038	14899
921.148	14800
921.258	14503
921.368	14499
921.477	14408
921.587	14271
921.697	14168
921.806	14339
921.916	14176
922.025	13970
922.134	14039
922.244	13978
922.353	13928
922.462	13818
922.571	13784
922.68	13605
922.789	13449
922.898	13578
923.007	13567
923.116	13632
923.224	13586
923.333	13639
923.442	13468
923.55	13403
923.659	13384
923.767	13537
923.876	13259
923.984	13419
924.092	13244
924.201	13346
924.309	13335
924.417	13312
924.525	13198
924.633	13187
924.741	14130
924.849	13031
924.956	13266
925.064	13057
925.172	12901
925.279	12905
925.387	13031
925.494	12905
925.602	13164
925.709	13095
925.816	12932
925.924	13012
926.031	13076
926.138	13004
926.245	12901
926.352	12844
926.459	12993
926.566	12996
926.673	12829
926.779	12764
926.886	12711
926.993	12585
927.099	12620
927.206	12471
927.312	12601
927.419	12616
927.525	12494
927.631	12623
927.737	12372
927.843	12350
927.95	12361
928.056	12334
928.162	12395
928.267	12361
928.373	12954
928.479	12479
928.585	12251
928.69	12289
928.796	12452
928.901	12224
929.007	12148
929.112	12273
929.218	12197
929.323	12194
929.428	12041
929.533	12243
929.638	12083
929.743	12045
929.848	12068
929.953	12102
930.058	11958
930.163	11802
930.267	11840
930.372	11927
930.477	11805
930.581	11984
930.685	11821
930.79	11653
930.894	11684
930.998	11589
931.103	11718
931.207	11478
931.311	11391
931.415	11280
931.519	11003
931.623	11014
