Data from test_V78500241_1878.txt Node
Date: Fri Mar 25 15:54:48 CST 2022
User: usil
Spectrometer: V785-0024
Trigger mode: 0
Integration Time (sec): 4.000000E-1
Scans to average: 1
Nonlinearity correction enabled: false
Boxcar width: 0
Storing dark spectrum: false
XAxis mode: Wavelengths
Number of Pixels in Spectrum: 1024
>>>>>Begin Spectral Data<<<<<
801.071	28542
801.214	28341
801.356	28158
801.499	28131
801.641	28082
801.783	28067
801.926	28021
802.068	27926
802.211	28021
802.353	27937
802.496	27778
802.638	27759
802.78	27671
802.923	27778
803.065	27660
803.208	27583
803.35	27724
803.492	27892
803.635	27934
803.777	27781
803.919	27945
804.061	28196
804.204	27956
804.346	27850
804.488	27895
804.63	27793
804.773	27705
804.915	27926
805.057	28147
805.199	27793
805.341	27911
805.483	27964
805.626	28055
805.768	27983
805.91	28139
806.052	28135
806.194	27846
806.336	28185
806.478	27991
806.62	28124
806.762	28318
806.904	28405
807.046	28489
807.188	28603
807.33	28580
807.472	28527
807.614	28447
807.756	28554
807.898	28314
808.04	28375
808.182	28360
808.324	28360
808.465	28382
808.607	28660
808.749	28740
808.891	28831
809.033	28991
809.174	28824
809.316	28729
809.458	28782
809.6	28611
809.741	28759
809.883	29048
810.025	29132
810.166	28987
810.308	29086
810.45	28923
810.591	29022
810.733	28717
810.875	28554
811.016	28767
811.158	28660
811.299	28694
811.441	28847
811.582	28930
811.724	28831
811.865	28786
812.007	28641
812.148	28729
812.29	28816
812.431	28968
812.573	28972
812.714	29155
812.855	29147
812.997	29345
813.138	29535
813.279	29455
813.421	29143
813.562	29208
813.703	29166
813.845	28805
813.986	28710
814.127	28462
814.268	28565
814.41	28500
814.551	28447
814.692	28367
814.833	28398
814.974	28367
815.115	28401
815.256	28390
815.397	28409
815.539	28322
815.68	28192
815.821	28097
815.962	28219
816.103	28147
816.244	28173
816.385	28048
816.526	28093
816.666	27747
816.807	27762
816.948	27705
817.089	27759
817.23	27766
817.371	27762
817.512	27701
817.653	27633
817.793	27667
817.934	27656
818.075	27819
818.216	27743
818.356	27751
818.497	27633
818.638	27473
818.778	27393
818.919	27466
819.06	27580
819.2	27557
819.341	27895
819.481	27713
819.622	27956
819.762	28051
819.903	27979
820.043	27846
820.184	27926
820.324	27854
820.465	27914
820.605	27728
820.746	27789
820.886	27519
821.026	27922
821.167	27641
821.307	27827
821.447	27732
821.588	27618
821.728	27412
821.868	27519
822.008	27294
822.149	27089
822.289	27272
822.429	26925
822.569	26891
822.709	26982
822.849	26781
822.99	26830
823.13	26689
823.27	26537
823.41	26484
823.55	26537
823.69	26549
823.83	26568
823.97	26389
824.11	26317
824.25	26385
824.389	26427
824.529	26438
824.669	26450
824.809	26453
824.949	26465
825.089	26473
825.228	26469
825.368	26214
825.508	26134
825.648	26248
825.787	26233
825.927	26385
826.067	26278
826.206	26172
826.346	26381
826.485	26294
826.625	26278
826.765	26396
826.904	26290
827.044	25776
827.183	26039
827.323	25974
827.462	26024
827.601	26001
827.741	25841
827.88	26031
828.02	25909
828.159	25970
828.298	25932
828.437	26008
828.577	25890
828.716	26035
828.855	25883
828.994	25601
829.134	25784
829.273	25647
829.412	25700
829.551	25632
829.69	25594
829.829	25594
829.968	25696
830.107	25738
830.246	25666
830.385	25628
830.524	25499
830.663	25468
830.802	25381
830.941	25027
831.08	25209
831.219	25187
831.357	25236
831.496	25521
831.635	25236
831.774	25171
831.913	25023
832.051	25080
832.19	25088
832.329	25004
832.467	25023
832.606	24897
832.744	24840
832.883	24897
833.022	24992
833.16	24913
833.299	24977
833.437	24890
833.576	25061
833.714	25004
833.852	25034
833.991	25019
834.129	25065
834.267	25008
834.406	25061
834.544	24951
834.682	25012
834.821	25034
834.959	25019
835.097	24837
835.235	25103
835.373	24890
835.511	25099
835.65	24875
835.788	24837
835.926	24753
836.064	24597
836.202	24669
836.34	24722
836.478	24806
836.615	24791
836.753	24772
836.891	24928
837.029	24719
837.167	24798
837.305	24741
837.443	24734
837.58	24757
837.718	24623
837.856	24574
837.993	24604
838.131	24475
838.269	24525
838.406	24521
838.544	24452
838.681	24315
838.819	24247
838.956	24087
839.094	24110
839.231	24098
839.369	24102
839.506	24380
839.643	24277
839.781	24049
839.918	24167
840.055	24060
840.193	24026
840.33	24060
840.467	24098
840.604	23992
840.742	24292
840.879	23920
841.016	23889
841.153	23847
841.29	24015
841.427	24038
841.564	24106
841.701	24022
841.838	23847
841.975	23878
842.112	23935
842.249	23817
842.385	23756
842.522	23992
842.659	23779
842.796	23687
842.933	23775
843.069	23714
843.206	23703
843.343	23904
843.479	23760
843.616	23764
843.752	23646
843.889	23558
844.025	23535
844.162	23436
844.298	23608
844.435	23539
844.571	23425
844.708	23596
844.844	23794
844.98	23703
845.117	23630
845.253	23452
845.389	23421
845.525	23433
845.661	23414
845.798	23296
845.934	23307
846.07	23227
846.206	23322
846.342	23326
846.478	23231
846.614	23060
846.75	22949
846.886	23029
847.022	23010
847.158	23022
847.294	23064
847.429	23022
847.565	22934
847.701	23239
847.837	22706
847.972	22759
848.108	22774
848.244	22873
848.379	22706
848.515	22493
848.65	22557
848.786	22660
848.921	22577
849.057	22641
849.192	22580
849.328	22656
849.463	22618
849.598	22603
849.734	22440
849.869	22451
850.004	22394
850.14	22352
850.275	22337
850.41	22223
850.545	22253
850.68	22348
850.815	22436
850.95	22280
851.085	22561
851.22	22428
851.355	22287
851.49	22230
851.625	22432
851.76	22348
851.895	22341
852.03	22257
852.165	22344
852.299	22432
852.434	22447
852.569	22409
852.703	22329
852.838	22451
852.973	22413
853.107	22325
853.242	22322
853.376	22219
853.511	22169
853.645	22181
853.78	22314
853.914	22230
854.048	22181
854.183	22230
854.317	22276
854.451	22329
854.585	22162
854.72	22150
854.854	22284
854.988	22093
855.122	22162
855.256	22067
855.39	22055
855.524	22367
855.658	22265
855.792	22253
855.926	22204
856.06	22177
856.194	22268
856.327	22078
856.461	22097
856.595	21934
856.729	22185
856.862	22295
856.996	22329
857.13	22226
857.263	22154
857.397	22253
857.53	22166
857.664	22063
857.797	22322
857.931	22249
858.064	22196
858.197	22211
858.331	22230
858.464	22067
858.597	21994
858.731	22185
858.864	22082
858.997	22048
859.13	22238
859.263	22116
859.396	22253
859.529	22124
859.662	22116
859.795	22147
859.928	22158
860.061	22367
860.194	22421
860.327	22276
860.46	22200
860.592	22341
860.725	22337
860.858	22356
860.99	22284
861.123	22086
861.256	22177
861.388	22185
861.521	23018
861.653	21979
861.786	21991
861.918	22124
862.05	22086
862.183	22090
862.315	22074
862.447	22169
862.58	22017
862.712	21880
862.844	21819
862.976	21968
863.108	21960
863.24	22303
863.372	21911
863.504	22025
863.636	21842
863.768	21857
863.9	21838
864.032	21732
864.164	21884
864.296	21865
864.428	21975
864.559	21926
864.691	22040
864.823	21953
864.954	21918
865.086	21922
865.217	21724
865.349	21686
865.48	21781
865.612	21724
865.743	21880
865.875	21873
866.006	21660
866.137	21690
866.269	21759
866.4	21781
866.531	21751
866.662	21595
866.793	21755
866.924	21755
867.055	21736
867.186	21686
867.317	21743
867.448	21641
867.579	21812
867.71	21564
867.841	21553
867.972	21713
868.103	21572
868.233	21701
868.364	21682
868.495	21850
868.625	21854
868.756	22048
868.886	21854
869.017	21960
869.147	22105
869.278	22109
869.408	21930
869.539	21835
869.669	22017
869.799	21983
869.929	22044
870.06	21956
870.19	22265
870.32	22162
870.45	22200
870.58	22265
870.71	22306
870.84	22329
870.97	22413
871.1	22303
871.23	22561
871.36	22626
871.489	22314
871.619	22470
871.749	22535
871.879	22531
872.008	22618
872.138	22675
872.267	22637
872.397	22394
872.526	22322
872.656	22375
872.785	22310
872.915	22668
873.044	22679
873.173	22523
873.303	22580
873.432	22561
873.561	22607
873.69	22637
873.819	22569
873.948	22599
874.077	22512
874.206	22592
874.335	22500
874.464	22679
874.593	22771
874.722	22729
874.851	22820
874.979	22892
875.108	22778
875.237	22778
875.365	22713
875.494	22759
875.623	22820
875.751	22710
875.88	22862
876.008	22889
876.136	23018
876.265	23216
876.393	23334
876.521	23193
876.65	23140
876.778	23151
876.906	23185
877.034	23056
877.162	23147
877.29	23048
877.418	23212
877.546	23162
877.674	23162
877.802	23067
877.93	23170
878.058	23029
878.185	22908
878.313	23117
878.441	23060
878.568	22934
878.696	23075
878.824	23025
878.951	23250
879.079	23292
879.206	23376
879.333	23288
879.461	23117
879.588	23235
879.715	23265
879.842	23269
879.97	23200
880.097	23060
880.224	22957
880.351	22831
880.478	22911
880.605	22858
880.732	22934
880.859	23174
880.986	22987
881.112	23022
881.239	22733
881.366	22653
881.493	22577
881.619	22546
881.746	22443
881.872	22432
881.999	22394
882.125	22379
882.252	22523
882.378	22546
882.505	22561
882.631	22219
882.757	22143
882.883	22246
883.01	22196
883.136	22131
883.262	22074
883.388	21998
883.514	22181
883.64	22257
883.766	22143
883.892	21816
884.018	21892
884.143	22120
884.269	22211
884.395	21941
884.52	21785
884.646	21846
884.772	21774
884.897	21736
885.023	21835
885.148	21953
885.274	21991
885.399	22040
885.524	21774
885.65	21873
885.775	21838
885.9	21747
886.025	21876
886.15	21835
886.275	21709
886.4	21580
886.525	21774
886.65	21637
886.775	21561
886.9	21991
887.025	21991
887.149	21759
887.274	21572
887.399	21485
887.523	21618
887.648	21458
887.773	21568
887.897	21595
888.021	21641
888.146	21496
888.27	21686
888.395	21629
888.519	21610
888.643	21660
888.767	21667
888.891	21515
889.015	21473
889.139	21298
889.263	21237
889.387	21431
889.511	21545
889.635	21519
889.759	21264
889.883	21222
890.006	21447
890.13	21515
890.254	21389
890.377	21230
890.501	21062
890.624	21043
890.748	21100
890.871	20861
890.995	20952
891.118	20731
891.241	20910
891.364	21096
891.488	21005
891.611	20857
891.734	20906
891.857	20910
891.98	20895
892.103	21055
892.226	20921
892.349	20887
892.471	20724
892.594	20853
892.717	20861
892.839	20804
892.962	20872
893.085	20948
893.207	20864
893.33	20788
893.452	20727
893.575	20807
893.697	20731
893.819	20982
893.941	21039
894.064	20975
894.186	20868
894.308	20762
894.43	20979
894.552	20887
894.674	21001
894.796	20743
894.918	20689
895.04	20800
895.161	20781
895.283	20792
895.405	20667
895.526	20826
895.648	20804
895.769	20845
895.891	20891
896.012	20796
896.134	20887
896.255	20754
896.376	20792
896.498	20716
896.619	20834
896.74	20826
896.861	20773
896.982	21077
897.103	21104
897.224	21108
897.345	21013
897.466	20963
897.587	20906
897.708	21058
897.828	21074
897.949	20823
898.07	20823
898.19	20868
898.311	21089
898.431	21028
898.552	21009
898.672	21096
898.792	20952
898.913	20910
899.033	20956
899.153	20773
899.273	20606
899.393	20708
899.513	20849
899.633	20705
899.753	20697
899.873	20632
899.993	20762
900.113	20746
900.232	20727
900.352	20739
900.472	20648
900.591	20488
900.711	20556
900.83	20541
900.95	20568
901.069	20705
901.189	20305
901.308	20111
901.427	20005
901.546	20088
901.665	20126
901.784	20088
901.904	20100
902.023	19799
902.141	19658
902.26	19616
902.379	19696
902.498	19632
902.617	19556
902.735	19674
902.854	19624
902.973	19533
903.091	19289
903.21	19266
903.328	19324
903.446	19198
903.565	19103
903.683	19084
903.801	18954
903.919	19004
904.038	18985
904.156	18776
904.274	19034
904.392	18791
904.51	18768
904.627	18768
904.745	18875
904.863	18859
904.981	18681
905.098	18536
905.216	18540
905.334	18395
905.451	18483
905.569	18437
905.686	18380
905.803	18399
905.921	18182
906.038	18353
906.155	18311
906.272	18152
906.389	18182
906.506	18060
906.623	18057
906.74	18034
906.857	17882
906.974	17946
907.091	18049
907.208	18064
907.324	18011
907.441	17908
907.557	17661
907.674	17714
907.79	17756
907.907	17756
908.023	17672
908.139	17729
908.256	17722
908.372	17570
908.488	17630
908.604	17471
908.72	17311
908.836	17414
908.952	17360
909.068	17471
909.184	17463
909.3	17425
909.415	17467
909.531	17486
909.647	17098
909.762	17155
909.878	17090
909.993	17079
910.108	17181
910.224	17143
910.339	17064
910.454	16961
910.57	16942
910.685	16930
910.8	17242
910.915	17094
911.03	16957
911.145	16729
911.259	16710
911.374	16702
911.489	16615
911.604	16577
911.718	16504
911.833	16424
911.947	16375
912.062	16314
912.176	16428
912.291	16535
912.405	16375
912.519	16561
912.633	16630
912.748	16512
912.862	16382
912.976	16413
913.09	16219
913.204	16162
913.318	16318
913.431	16322
913.545	16402
913.659	16333
913.772	16226
913.886	16074
914	16074
914.113	16173
914.226	16154
914.34	16097
914.453	15983
914.566	16150
914.68	15899
914.793	15861
914.906	15747
915.019	15686
915.132	15663
915.245	15633
915.358	15698
915.47	15644
915.583	15644
915.696	15606
915.809	15785
915.921	15698
916.034	15557
916.146	15534
916.259	15507
916.371	15557
916.483	15519
916.595	15424
916.708	15458
916.82	15458
916.932	15420
917.044	15428
917.156	15325
917.268	15344
917.38	15302
917.491	15264
917.603	15302
917.715	15306
917.826	15302
917.938	15192
918.049	15085
918.161	15203
918.272	15416
918.384	15355
918.495	15211
918.606	15028
918.717	14990
918.828	15154
918.939	14998
919.05	14815
919.161	14994
919.272	14788
919.383	14853
919.494	15039
919.604	15173
919.715	14956
919.826	14944
919.936	15058
920.047	15089
920.157	15028
920.267	15222
920.378	14914
920.488	14937
920.598	15245
920.708	15287
920.818	15154
920.928	15032
921.038	15245
921.148	15264
921.258	14925
921.368	14838
921.477	14739
921.587	14705
921.697	14659
921.806	14796
921.916	14556
922.025	14320
922.134	14419
922.244	14336
922.353	14328
922.462	14336
922.571	14115
922.68	13982
922.789	13928
922.898	14008
923.007	13909
923.116	13959
923.224	14039
923.333	13868
923.442	13780
923.55	13803
923.659	13837
923.767	13814
923.876	13791
923.984	13856
924.092	13708
924.201	13677
924.309	13719
924.417	13765
924.525	13700
924.633	13571
924.741	14431
924.849	13533
924.956	13586
925.064	13373
925.172	13278
925.279	13381
925.387	13407
925.494	13362
925.602	13476
925.709	13480
925.816	13244
925.924	13350
926.031	13468
926.138	13354
926.245	13377
926.352	13194
926.459	13396
926.566	13320
926.673	13183
926.779	13042
926.886	13042
926.993	13038
927.099	12932
927.206	12867
927.312	12924
927.419	12932
927.525	12905
927.631	12928
927.737	12863
927.843	12711
927.95	12589
928.056	12715
928.162	12764
928.267	12715
928.373	13297
928.479	12764
928.585	12582
928.69	12749
928.796	12654
928.901	12574
929.007	12445
929.112	12566
929.218	12525
929.323	12448
929.428	12483
929.533	12551
929.638	12361
929.743	12502
929.848	12483
929.953	12353
930.058	12334
930.163	12144
930.267	12144
930.372	12262
930.477	12114
930.581	12338
930.685	12129
930.79	12072
930.894	12041
930.998	11999
931.103	12038
931.207	11794
931.311	11699
931.415	11604
931.519	11429
931.623	11311
