Data from test_V78500241_2409.txt Node
Date: Fri Mar 25 15:58:29 CST 2022
User: usil
Spectrometer: V785-0024
Trigger mode: 0
Integration Time (sec): 4.000000E-1
Scans to average: 1
Nonlinearity correction enabled: false
Boxcar width: 0
Storing dark spectrum: false
XAxis mode: Wavelengths
Number of Pixels in Spectrum: 1024
>>>>>Begin Spectral Data<<<<<
801.071	28569
801.214	28584
801.356	28352
801.499	28405
801.641	28147
801.783	28219
801.926	28200
802.068	28185
802.211	28044
802.353	28169
802.496	27918
802.638	27918
802.78	27857
802.923	27854
803.065	27656
803.208	27789
803.35	27861
803.492	28093
803.635	28112
803.777	27914
803.919	28086
804.061	28382
804.204	28242
804.346	28177
804.488	28029
804.63	28070
804.773	28105
804.915	28188
805.057	28192
805.199	28143
805.341	28150
805.483	28128
805.626	28265
805.768	28002
805.91	28177
806.052	28223
806.194	28120
806.336	28455
806.478	28325
806.62	28310
806.762	28428
806.904	28577
807.046	28801
807.188	28736
807.33	28713
807.472	28771
807.614	28634
807.756	28786
807.898	28485
808.04	28455
808.182	28455
808.324	28516
808.465	28584
808.607	28801
808.749	28961
808.891	28953
809.033	29075
809.174	28892
809.316	28953
809.458	29025
809.6	28824
809.741	28946
809.883	29071
810.025	29174
810.166	29155
810.308	29185
810.45	29181
810.591	29086
810.733	28968
810.875	28843
811.016	28839
811.158	28854
811.299	28976
811.441	29086
811.582	29052
811.724	28987
811.865	28892
812.007	28946
812.148	29033
812.29	28999
812.431	29052
812.573	29197
812.714	29372
812.855	29334
812.997	29600
813.138	29691
813.279	29486
813.421	29360
813.562	29459
813.703	29269
813.845	29140
813.986	28869
814.127	28656
814.268	28706
814.41	28668
814.551	28767
814.692	28839
814.833	28500
814.974	28497
815.115	28710
815.256	28577
815.397	28325
815.539	28508
815.68	28405
815.821	28451
815.962	28356
816.103	28405
816.244	28306
816.385	28158
816.526	28196
816.666	28063
816.807	27972
816.948	27998
817.089	28147
817.23	27937
817.371	28002
817.512	27937
817.653	28010
817.793	27911
817.934	28013
818.075	28032
818.216	27991
818.356	27934
818.497	27827
818.638	27587
818.778	27698
818.919	27778
819.06	27728
819.2	28017
819.341	27991
819.481	27888
819.622	28128
819.762	28306
819.903	28230
820.043	28246
820.184	28173
820.324	27968
820.465	28048
820.605	28109
820.746	27987
820.886	27956
821.026	28051
821.167	28154
821.307	28059
821.447	27953
821.588	27941
821.728	27781
821.868	27580
822.008	27526
822.149	27370
822.289	27485
822.429	27370
822.569	27165
822.709	27108
822.849	26925
822.99	26910
823.13	26834
823.27	26845
823.41	26872
823.55	26720
823.69	26777
823.83	26651
823.97	26697
824.11	26530
824.25	26507
824.389	26598
824.529	26659
824.669	26568
824.809	26720
824.949	26648
825.089	26625
825.228	26469
825.368	26396
825.508	26492
825.648	26419
825.787	26415
825.927	26549
826.067	26438
826.206	26488
826.346	26484
826.485	26541
826.625	26507
826.765	26712
826.904	26423
827.044	26320
827.183	26233
827.323	26301
827.462	26240
827.601	26229
827.741	26332
827.88	26065
828.02	25986
828.159	26142
828.298	26168
828.437	26100
828.577	26050
828.716	26218
828.855	26046
828.994	25780
829.134	25940
829.273	25951
829.412	25753
829.551	25894
829.69	25830
829.829	25887
829.968	25955
830.107	25902
830.246	25788
830.385	25769
830.524	25700
830.663	25715
830.802	25624
830.941	25415
831.08	25381
831.219	25487
831.357	25544
831.496	25609
831.635	25381
831.774	25411
831.913	25255
832.051	25362
832.19	25285
832.329	25327
832.467	25247
832.606	25164
832.744	25072
832.883	25091
833.022	25236
833.16	25110
833.299	25141
833.437	25285
833.576	25327
833.714	25141
833.852	25316
833.991	25324
834.129	25221
834.267	25228
834.406	25156
834.544	25232
834.682	25308
834.821	25187
834.959	25293
835.097	25103
835.235	25148
835.373	25171
835.511	25179
835.65	25183
835.788	25107
835.926	24897
836.064	24776
836.202	24916
836.34	25008
836.478	25099
836.615	25012
836.753	25088
836.891	25031
837.029	25084
837.167	24913
837.305	24954
837.443	24996
837.58	24848
837.718	24791
837.856	24859
837.993	24734
838.131	24787
838.269	24802
838.406	24700
838.544	24814
838.681	24437
838.819	24433
838.956	24422
839.094	24251
839.231	24338
839.369	24498
839.506	24707
839.643	24544
839.781	24273
839.918	24213
840.055	24342
840.193	24133
840.33	24194
840.467	24213
840.604	24277
840.742	24505
840.879	24091
841.016	24190
841.153	24083
841.29	24445
841.427	24194
841.564	24369
841.701	24186
841.838	24106
841.975	24072
842.112	24167
842.249	23927
842.385	24026
842.522	24281
842.659	24041
842.796	24034
842.933	24060
843.069	23779
843.206	23897
843.343	24106
843.479	23999
843.616	23950
843.752	23676
843.889	23794
844.025	23824
844.162	23657
844.298	23798
844.435	23798
844.571	23722
844.708	23855
844.844	23935
844.98	23973
845.117	23790
845.253	23676
845.389	23634
845.525	23722
845.661	23577
845.798	23353
845.934	23486
846.07	23577
846.206	23429
846.342	23573
846.478	23463
846.614	23242
846.75	23292
846.886	23273
847.022	23334
847.158	23223
847.294	23193
847.429	23250
847.565	23086
847.701	23440
847.837	22755
847.972	22949
848.108	22976
848.244	22976
848.379	22774
848.515	22889
848.65	22828
848.786	22778
848.921	22843
849.057	22869
849.192	22828
849.328	22885
849.463	22847
849.598	22744
849.734	22755
849.869	22569
850.004	22519
850.14	22478
850.275	22580
850.41	22538
850.545	22561
850.68	22565
850.815	22550
850.95	22443
851.085	22691
851.22	22607
851.355	22573
851.49	22497
851.625	22512
851.76	22523
851.895	22428
852.03	22447
852.165	22424
852.299	22493
852.434	22618
852.569	22580
852.703	22538
852.838	22634
852.973	22538
853.107	22603
853.242	22462
853.376	22405
853.511	22306
853.645	22413
853.78	22421
853.914	22230
854.048	22360
854.183	22398
854.317	22440
854.451	22550
854.585	22249
854.72	22329
854.854	22485
854.988	22424
855.122	22356
855.256	22341
855.39	22310
855.524	22478
855.658	22417
855.792	22348
855.926	22432
856.06	22341
856.194	22497
856.327	22371
856.461	22215
856.595	22356
856.729	22280
856.862	22386
856.996	22527
857.13	22550
857.263	22432
857.397	22489
857.53	22382
857.664	22516
857.797	22405
857.931	22493
858.064	22318
858.197	22493
858.331	22390
858.464	22257
858.597	22261
858.731	22398
858.864	22318
858.997	22322
859.13	22341
859.263	22322
859.396	22451
859.529	22230
859.662	22375
859.795	22276
859.928	22386
860.061	22588
860.194	22561
860.327	22432
860.46	22459
860.592	22554
860.725	22489
860.858	22535
860.99	22398
861.123	22287
861.256	22303
861.388	22379
861.521	23018
861.653	22207
861.786	22166
861.918	22230
862.05	22188
862.183	22306
862.315	22291
862.447	22447
862.58	22242
862.712	22105
862.844	21922
862.976	22162
863.108	22036
863.24	22622
863.372	22131
863.504	22169
863.636	21956
863.768	22063
863.9	22093
864.032	22101
864.164	22082
864.296	22150
864.428	22162
864.559	22093
864.691	22166
864.823	22120
864.954	22101
865.086	22059
865.217	21987
865.349	21972
865.48	21865
865.612	21994
865.743	22036
865.875	21899
866.006	21934
866.137	21831
866.269	21903
866.4	21918
866.531	21880
866.662	21819
866.793	21842
866.924	21819
867.055	21892
867.186	21869
867.317	21937
867.448	21759
867.579	21850
867.71	21774
867.841	21739
867.972	21857
868.103	21907
868.233	21899
868.364	22010
868.495	21884
868.625	22131
868.756	22268
868.886	22242
869.017	22131
869.147	22173
869.278	22242
869.408	22154
869.539	22177
869.669	22207
869.799	22287
869.929	22192
870.06	22268
870.19	22508
870.32	22382
870.45	22382
870.58	22497
870.71	22645
870.84	22691
870.97	22504
871.1	22653
871.23	22618
871.36	22877
871.489	22675
871.619	22645
871.749	22733
871.879	22812
872.008	22713
872.138	22854
872.267	22717
872.397	22577
872.526	22603
872.656	22561
872.785	22538
872.915	22755
873.044	22801
873.173	22740
873.303	22904
873.432	22744
873.561	22835
873.69	22733
873.819	22767
873.948	22706
874.077	22733
874.206	22603
874.335	22774
874.464	22866
874.593	22915
874.722	22873
874.851	23006
874.979	23003
875.108	22991
875.237	22938
875.365	22809
875.494	22885
875.623	22965
875.751	22946
875.88	22965
876.008	23075
876.136	23140
876.265	23292
876.393	23539
876.521	23402
876.65	23337
876.778	23440
876.906	23284
877.034	23288
877.162	23421
877.29	23216
877.418	23372
877.546	23395
877.674	23337
877.802	23136
877.93	23318
878.058	23220
878.185	23193
878.313	23265
878.441	23220
878.568	23102
878.696	23170
878.824	23254
878.951	23410
879.079	23455
879.206	23554
879.333	23505
879.461	23326
879.588	23402
879.715	23471
879.842	23589
879.97	23406
880.097	22999
880.224	23102
880.351	23212
880.478	23075
880.605	23086
880.732	23147
880.859	23292
880.986	23166
881.112	23102
881.239	22984
881.366	22828
881.493	22877
881.619	22706
881.746	22782
881.872	22771
881.999	22706
882.125	22538
882.252	22710
882.378	22664
882.505	22725
882.631	22580
882.757	22386
882.883	22466
883.01	22318
883.136	22261
883.262	22318
883.388	22128
883.514	22299
883.64	22337
883.766	22169
883.892	22097
884.018	22230
884.143	22295
884.269	22337
884.395	22143
884.52	21998
884.646	22048
884.772	22006
884.897	21930
885.023	21907
885.148	22173
885.274	22185
885.399	22120
885.524	21991
885.65	21888
885.775	22006
885.9	21945
886.025	21998
886.15	21972
886.275	21983
886.4	21804
886.525	21899
886.65	21751
886.775	21979
886.9	21968
887.025	22166
887.149	21934
887.274	21713
887.399	21709
887.523	21720
887.648	21656
887.773	21644
887.897	21873
888.021	21644
888.146	21648
888.27	21766
888.395	21819
888.519	21861
888.643	21812
888.767	21800
888.891	21694
889.015	21603
889.139	21576
889.263	21447
889.387	21682
889.511	21686
889.635	21572
889.759	21492
889.883	21549
890.006	21599
890.13	21526
890.254	21466
890.377	21439
890.501	21325
890.624	21294
890.748	21298
890.871	21093
890.995	21081
891.118	21024
891.241	20982
891.364	21123
891.488	21188
891.611	21100
891.734	21051
891.857	21119
891.98	21020
892.103	21123
892.226	21165
892.349	20929
892.471	20929
892.594	21043
892.717	21051
892.839	21081
892.962	21047
893.085	20944
893.207	21017
893.33	20853
893.452	20800
893.575	21009
893.697	20823
893.819	21062
893.941	21245
894.064	21096
894.186	20933
894.308	20857
894.43	21036
894.552	21051
894.674	20948
894.796	20807
894.918	20853
895.04	20864
895.161	21005
895.283	20883
895.405	20845
895.526	21066
895.648	20956
895.769	20941
895.891	21116
896.012	21085
896.134	20914
896.255	20963
896.376	20880
896.498	20948
896.619	21005
896.74	20910
896.861	21077
896.982	21195
897.103	21469
897.224	21214
897.345	21211
897.466	21077
897.587	21112
897.708	21283
897.828	21169
897.949	21119
898.07	20944
898.19	21062
898.311	21195
898.431	21070
898.552	21116
898.672	21226
898.792	21252
898.913	21184
899.033	21146
899.153	20967
899.273	20826
899.393	20891
899.513	21013
899.633	20975
899.753	20769
899.873	20830
899.993	20929
900.113	20792
900.232	20899
900.352	20815
900.472	20705
900.591	20682
900.711	20594
900.83	20568
900.95	20678
901.069	20746
901.189	20518
901.308	20351
901.427	20267
901.546	20164
901.665	20339
901.784	20142
901.904	20039
902.023	19997
902.141	19856
902.26	19738
902.379	19883
902.498	19666
902.617	19628
902.735	19723
902.854	19635
902.973	19616
903.091	19499
903.21	19403
903.328	19552
903.446	19187
903.565	19236
903.683	19244
903.801	19095
903.919	19247
904.038	19012
904.156	18958
904.274	18993
904.392	18913
904.51	18871
904.627	18954
904.745	19088
904.863	19000
904.981	18707
905.098	18593
905.216	18570
905.334	18650
905.451	18597
905.569	18669
905.686	18623
905.803	18521
905.921	18422
906.038	18502
906.155	18384
906.272	18281
906.389	18399
906.506	18133
906.623	18178
906.74	18258
906.857	18076
906.974	17999
907.091	18209
907.208	18254
907.324	18174
907.441	17984
907.557	17897
907.674	17847
907.79	17882
907.907	17882
908.023	17893
908.139	17965
908.256	17710
908.372	17767
908.488	17775
908.604	17611
908.72	17566
908.836	17627
908.952	17398
909.068	17600
909.184	17627
909.3	17516
909.415	17600
909.531	17520
909.647	17372
909.762	17318
909.878	17181
909.993	17326
910.108	17178
910.224	17227
910.339	17288
910.454	17140
910.57	17102
910.685	17071
910.8	17193
910.915	17231
911.03	17067
911.145	16873
911.259	16831
911.374	16824
911.489	16820
911.604	16710
911.718	16584
911.833	16577
911.947	16580
912.062	16333
912.176	16561
912.291	16618
912.405	16645
912.519	16805
912.633	16748
912.748	16668
912.862	16508
912.976	16421
913.09	16181
913.204	16405
913.318	16341
913.431	16531
913.545	16519
913.659	16504
913.772	16249
913.886	16253
914	16196
914.113	16409
914.226	16276
914.34	16219
914.453	16032
914.566	16295
914.68	16074
914.793	15975
914.906	15956
915.019	15854
915.132	15690
915.245	15679
915.358	15778
915.47	15686
915.583	15831
915.696	15751
915.809	15876
915.921	15804
916.034	15724
916.146	15644
916.259	15576
916.371	15682
916.483	15686
916.595	15580
916.708	15545
916.82	15530
916.932	15610
917.044	15542
917.156	15534
917.268	15439
917.38	15420
917.491	15458
917.603	15428
917.715	15542
917.826	15564
917.938	15321
918.049	15260
918.161	15340
918.272	15500
918.384	15450
918.495	15268
918.606	15116
918.717	15108
918.828	15173
918.939	15211
919.05	15119
919.161	15100
919.272	14895
919.383	14979
919.494	15192
919.604	15272
919.715	15036
919.826	15005
919.936	14982
920.047	15157
920.157	15176
920.267	15256
920.378	15047
920.488	15150
920.598	15195
920.708	15435
920.818	15192
920.928	15207
921.038	15374
921.148	15351
921.258	15039
921.368	14910
921.477	14887
921.587	14845
921.697	14602
921.806	14864
921.916	14686
922.025	14473
922.134	14480
922.244	14377
922.353	14488
922.462	14385
922.571	14290
922.68	14263
922.789	14126
922.898	14100
923.007	14073
923.116	14157
923.224	14107
923.333	14088
923.442	13955
923.55	13898
923.659	13906
923.767	14031
923.876	13860
923.984	14024
924.092	13837
924.201	13837
924.309	13765
924.417	13784
924.525	13643
924.633	13818
924.741	14408
924.849	13586
924.956	13761
925.064	13506
925.172	13518
925.279	13537
925.387	13502
925.494	13502
925.602	13544
925.709	13533
925.816	13354
925.924	13407
926.031	13506
926.138	13403
926.245	13422
926.352	13206
926.459	13472
926.566	13544
926.673	13320
926.779	13232
926.886	13206
926.993	13107
927.099	13000
927.206	12989
927.312	12943
927.419	13114
927.525	12928
927.631	13023
927.737	12993
927.843	12890
927.95	12715
928.056	12901
928.162	12875
928.267	12943
928.373	13377
928.479	12932
928.585	12631
928.69	12829
928.796	12859
928.901	12669
929.007	12471
929.112	12749
929.218	12715
929.323	12623
929.428	12585
929.533	12696
929.638	12467
929.743	12456
929.848	12490
929.953	12506
930.058	12426
930.163	12270
930.267	12232
930.372	12369
930.477	12216
930.581	12441
930.685	12304
930.79	12072
930.894	12136
930.998	12091
931.103	12235
931.207	11882
931.311	11790
931.415	11676
931.519	11490
931.623	11463
