Data from test_V78500241_3509.txt Node
Date: Fri Mar 25 16:06:06 CST 2022
User: usil
Spectrometer: V785-0024
Trigger mode: 0
Integration Time (sec): 4.000000E-1
Scans to average: 1
Nonlinearity correction enabled: false
Boxcar width: 0
Storing dark spectrum: false
XAxis mode: Wavelengths
Number of Pixels in Spectrum: 1024
>>>>>Begin Spectral Data<<<<<
801.071	28854
801.214	28790
801.356	28546
801.499	28542
801.641	28318
801.783	28382
801.926	28580
802.068	28280
802.211	28306
802.353	28333
802.496	27960
802.638	28074
802.78	28147
802.923	27892
803.065	27911
803.208	27926
803.35	28124
803.492	28097
803.635	28238
803.777	28147
803.919	28265
804.061	28546
804.204	28253
804.346	28428
804.488	28230
804.63	28424
804.773	28272
804.915	28398
805.057	28584
805.199	28200
805.341	28341
805.483	28436
805.626	28489
805.768	28280
805.91	28470
806.052	28462
806.194	28398
806.336	28630
806.478	28447
806.62	28519
806.762	28698
806.904	28744
807.046	29064
807.188	28885
807.33	28790
807.472	28946
807.614	28713
807.756	28835
807.898	28816
808.04	28672
808.182	28733
808.324	28858
808.465	28881
808.607	28984
808.749	29223
808.891	29269
809.033	29334
809.174	29151
809.316	29124
809.458	29140
809.6	29098
809.741	29193
809.883	29235
810.025	29395
810.166	29436
810.308	29410
810.45	29436
810.591	29444
810.733	29212
810.875	29246
811.016	29220
811.158	28980
811.299	29334
811.441	29311
811.582	29356
811.724	29223
811.865	29033
812.007	29022
812.148	29296
812.29	29216
812.431	29372
812.573	29482
812.714	29634
812.855	29726
812.997	29805
813.138	29889
813.279	29851
813.421	29691
813.562	29570
813.703	29410
813.845	29395
813.986	29235
814.127	28991
814.268	29124
814.41	28790
814.551	28850
814.692	28923
814.833	28892
814.974	28900
815.115	28869
815.256	28740
815.397	28786
815.539	28793
815.68	28786
815.821	28577
815.962	28702
816.103	28729
816.244	28512
816.385	28478
816.526	28470
816.666	28405
816.807	28185
816.948	28341
817.089	28348
817.23	28291
817.371	28124
817.512	28131
817.653	28230
817.793	28116
817.934	28287
818.075	28230
818.216	28207
818.356	28192
818.497	28105
818.638	27968
818.778	27865
818.919	28055
819.06	27865
819.2	28059
819.341	28215
819.481	28295
819.622	28314
819.762	28649
819.903	28432
820.043	28523
820.184	28360
820.324	28466
820.465	28455
820.605	28432
820.746	28234
820.886	28401
821.026	28333
821.167	28424
821.307	28261
821.447	28257
821.588	28185
821.728	27979
821.868	27850
822.008	27770
822.149	27797
822.289	27766
822.429	27481
822.569	27329
822.709	27458
822.849	27226
822.99	27188
823.13	27154
823.27	27268
823.41	27005
823.55	26864
823.69	27093
823.83	27089
823.97	27089
824.11	26796
824.25	26849
824.389	26940
824.529	26788
824.669	26986
824.809	27058
824.949	27005
825.089	26872
825.228	26895
825.368	26644
825.508	26640
825.648	26792
825.787	26773
825.927	26819
826.067	26682
826.206	26830
826.346	26880
826.485	26746
826.625	26655
826.765	26769
826.904	26781
827.044	26617
827.183	26545
827.323	26358
827.462	26594
827.601	26476
827.741	26533
827.88	26480
828.02	26404
828.159	26419
828.298	26431
828.437	26522
828.577	26434
828.716	26473
828.855	26431
828.994	26107
829.134	26157
829.273	26180
829.412	26180
829.551	25993
829.69	26252
829.829	26202
829.968	26218
830.107	26111
830.246	26122
830.385	26138
830.524	26031
830.663	26088
830.802	25894
830.941	25871
831.08	25818
831.219	25753
831.357	25913
831.496	25993
831.635	25700
831.774	25727
831.913	25594
832.051	25700
832.19	25491
832.329	25491
832.467	25502
832.606	25362
832.744	25377
832.883	25537
833.022	25354
833.16	25457
833.299	25529
833.437	25514
833.576	25582
833.714	25487
833.852	25563
833.991	25510
834.129	25597
834.267	25620
834.406	25575
834.544	25472
834.682	25571
834.821	25449
834.959	25670
835.097	25479
835.235	25594
835.373	25556
835.511	25544
835.65	25396
835.788	25228
835.926	25251
836.064	25133
836.202	25133
836.34	25479
836.478	25487
836.615	25354
836.753	25346
836.891	25445
837.029	25384
837.167	25141
837.305	25266
837.443	25350
837.58	25099
837.718	25293
837.856	25129
837.993	25110
838.131	25236
838.269	24985
838.406	25110
838.544	24943
838.681	24859
838.819	24661
838.956	24646
839.094	24620
839.231	24631
839.369	24829
839.506	24985
839.643	24924
839.781	24532
839.918	24536
840.055	24574
840.193	24490
840.33	24574
840.467	24509
840.604	24479
840.742	24798
840.879	24418
841.016	24479
841.153	24319
841.29	24528
841.427	24551
841.564	24460
841.701	24505
841.838	24483
841.975	24483
842.112	24403
842.249	24319
842.385	24171
842.522	24525
842.659	24292
842.796	24174
842.933	24414
843.069	24232
843.206	24235
843.343	24350
843.479	24304
843.616	24186
843.752	24102
843.889	24098
844.025	24174
844.162	24087
844.298	24194
844.435	23950
844.571	24102
844.708	24072
844.844	24289
844.98	24038
845.117	24152
845.253	23923
845.389	23893
845.525	23958
845.661	23878
845.798	23729
845.934	23920
846.07	23821
846.206	23843
846.342	24030
846.478	23733
846.614	23566
846.75	23414
846.886	23505
847.022	23611
847.158	23554
847.294	23570
847.429	23615
847.565	23642
847.701	23729
847.837	23246
847.972	23159
848.108	23349
848.244	23326
848.379	23239
848.515	23193
848.65	23159
848.786	23105
848.921	23102
849.057	23136
849.192	23166
849.328	23216
849.463	23102
849.598	22972
849.734	22938
849.869	22824
850.004	22930
850.14	22949
850.275	22930
850.41	22858
850.545	22873
850.68	22801
850.815	22877
850.95	22866
851.085	23067
851.22	22885
851.355	22809
851.49	22927
851.625	22801
851.76	22752
851.895	22793
852.03	22763
852.165	22835
852.299	22919
852.434	22980
852.569	22858
852.703	22923
852.838	22778
852.973	22946
853.107	22999
853.242	22793
853.376	22767
853.511	22622
853.645	22622
853.78	22774
853.914	22733
854.048	22630
854.183	22691
854.317	22702
854.451	22858
854.585	22729
854.72	22683
854.854	22805
854.988	22634
855.122	22675
855.256	22603
855.39	22599
855.524	22687
855.658	22759
855.792	22660
855.926	22626
856.06	22626
856.194	22721
856.327	22729
856.461	22584
856.595	22641
856.729	22729
856.862	22824
856.996	22698
857.13	22710
857.263	22733
857.397	22736
857.53	22660
857.664	22729
857.797	22797
857.931	22854
858.064	22683
858.197	22767
858.331	22672
858.464	22618
858.597	22565
858.731	22767
858.864	22634
858.997	22656
859.13	22694
859.263	22748
859.396	22691
859.529	22721
859.662	22622
859.795	22618
859.928	22626
860.061	22809
860.194	22862
860.327	22637
860.46	22679
860.592	22774
860.725	22828
860.858	22976
860.99	22698
861.123	22550
861.256	22675
861.388	22630
861.521	23463
861.653	22531
861.786	22462
861.918	22618
862.05	22557
862.183	22546
862.315	22573
862.447	22584
862.58	22508
862.712	22352
862.844	22390
862.976	22478
863.108	22497
863.24	22687
863.372	22466
863.504	22352
863.636	22409
863.768	22508
863.9	22379
864.032	22306
864.164	22337
864.296	22428
864.428	22436
864.559	22519
864.691	22352
864.823	22375
864.954	22398
865.086	22287
865.217	22299
865.349	22135
865.48	22242
865.612	22375
865.743	22352
865.875	22291
866.006	22280
866.137	22303
866.269	22246
866.4	22318
866.531	22139
866.662	22192
866.793	22261
866.924	22223
867.055	22177
867.186	22188
867.317	22086
867.448	22063
867.579	22120
867.71	22147
867.841	22086
867.972	22246
868.103	22181
868.233	22166
868.364	22204
868.495	22261
868.625	22440
868.756	22474
868.886	22379
869.017	22390
869.147	22493
869.278	22489
869.408	22348
869.539	22485
869.669	22493
869.799	22516
869.929	22413
870.06	22618
870.19	22626
870.32	22710
870.45	22733
870.58	22847
870.71	22873
870.84	22953
870.97	22748
871.1	22786
871.23	23105
871.36	23060
871.489	23010
871.619	22957
871.749	23048
871.879	23132
872.008	23143
872.138	23041
872.267	23071
872.397	22942
872.526	22835
872.656	22820
872.785	22801
872.915	23124
873.044	23025
873.173	23208
873.303	23052
873.432	23102
873.561	23132
873.69	23044
873.819	22957
873.948	23075
874.077	23033
874.206	22927
874.335	23109
874.464	23220
874.593	23299
874.722	23151
874.851	23315
874.979	23337
875.108	23372
875.237	23269
875.365	23079
875.494	23284
875.623	23398
875.751	23280
875.88	23284
876.008	23288
876.136	23467
876.265	23551
876.393	23741
876.521	23707
876.65	23672
876.778	23646
876.906	23619
877.034	23486
877.162	23642
877.29	23425
877.418	23516
877.546	23642
877.674	23695
877.802	23501
877.93	23482
878.058	23493
878.185	23524
878.313	23630
878.441	23668
878.568	23448
878.696	23402
878.824	23585
878.951	23562
879.079	23809
879.206	23916
879.333	23817
879.461	23619
879.588	23726
879.715	23836
879.842	23794
879.97	23627
880.097	23417
880.224	23490
880.351	23512
880.478	23467
880.605	23425
880.732	23444
880.859	23642
880.986	23376
881.112	23440
881.239	23254
881.366	23212
881.493	23071
881.619	23044
881.746	22984
881.872	23098
881.999	22999
882.125	22915
882.252	23048
882.378	22999
882.505	23140
882.631	22877
882.757	22653
882.883	22812
883.01	22778
883.136	22653
883.262	22538
883.388	22546
883.514	22546
883.64	22683
883.766	22622
883.892	22516
884.018	22466
884.143	22649
884.269	22519
884.395	22341
884.52	22348
884.646	22238
884.772	22291
884.897	22238
885.023	22287
885.148	22417
885.274	22440
885.399	22417
885.524	22436
885.65	22333
885.775	22253
885.9	22344
886.025	22314
886.15	22261
886.275	22325
886.4	22363
886.525	22318
886.65	22268
886.775	22318
886.9	22409
887.025	22405
887.149	22352
887.274	22025
887.399	22078
887.523	22150
887.648	21972
887.773	22017
887.897	22063
888.021	22082
888.146	22051
888.27	22097
888.395	22169
888.519	22021
888.643	22090
888.767	22063
888.891	21930
889.015	21911
889.139	21876
889.263	21808
889.387	21937
889.511	22010
889.635	21953
889.759	21793
889.883	21785
890.006	21812
890.13	21983
890.254	21759
890.377	21724
890.501	21682
890.624	21462
890.748	21656
890.871	21557
890.995	21492
891.118	21363
891.241	21431
891.364	21466
891.488	21595
891.611	21386
891.734	21401
891.857	21435
891.98	21370
892.103	21545
892.226	21401
892.349	21279
892.471	21150
892.594	21477
892.717	21279
892.839	21268
892.962	21252
893.085	21351
893.207	21272
893.33	21283
893.452	21211
893.575	21260
893.697	21291
893.819	21469
893.941	21412
894.064	21389
894.186	21268
894.308	21260
894.43	21325
894.552	21420
894.674	21340
894.796	21302
894.918	21306
895.04	21321
895.161	21245
895.283	21336
895.405	21077
895.526	21302
895.648	21317
895.769	21218
895.891	21287
896.012	21332
896.134	21260
896.255	21359
896.376	21195
896.498	21089
896.619	21214
896.74	21245
896.861	21386
896.982	21675
897.103	21709
897.224	21523
897.345	21469
897.466	21382
897.587	21511
897.708	21534
897.828	21454
897.949	21412
898.07	21359
898.19	21298
898.311	21542
898.431	21332
898.552	21469
898.672	21507
898.792	21408
898.913	21397
899.033	21332
899.153	21230
899.273	21104
899.393	21203
899.513	21256
899.633	21157
899.753	21192
899.873	21112
899.993	21157
900.113	21116
900.232	21131
900.352	21116
900.472	21009
900.591	20971
900.711	20921
900.83	21001
900.95	21066
901.069	21032
901.189	20834
901.308	20705
901.427	20499
901.546	20511
901.665	20438
901.784	20594
901.904	20393
902.023	20267
902.141	20149
902.26	20115
902.379	20142
902.498	20126
902.617	20012
902.735	20168
902.854	19947
902.973	19879
903.091	19594
903.21	19685
903.328	19533
903.446	19620
903.565	19453
903.683	19411
903.801	19365
903.919	19426
904.038	19362
904.156	19141
904.274	19278
904.392	19217
904.51	19171
904.627	19031
904.745	19160
904.863	19126
904.981	19061
905.098	18890
905.216	18867
905.334	19027
905.451	19008
905.569	18837
905.686	18901
905.803	18901
905.921	18726
906.038	18837
906.155	18722
906.272	18540
906.389	18536
906.506	18528
906.623	18418
906.74	18384
906.857	18243
906.974	18304
907.091	18467
907.208	18608
907.324	18403
907.441	18319
907.557	18148
907.674	18167
907.79	17988
907.907	18136
908.023	18178
908.139	18129
908.256	18026
908.372	17980
908.488	18038
908.604	17851
908.72	17897
908.836	17863
908.952	17874
909.068	17851
909.184	17847
909.3	17756
909.415	17885
909.531	17893
909.647	17490
909.762	17581
909.878	17535
909.993	17493
910.108	17547
910.224	17501
910.339	17516
910.454	17376
910.57	17349
910.685	17307
910.8	17509
910.915	17528
911.03	17307
911.145	17193
911.259	17162
911.374	17151
911.489	17006
911.604	16934
911.718	16873
911.833	16934
911.947	16706
912.062	16702
912.176	16866
912.291	16824
912.405	16953
912.519	17079
912.633	17052
912.748	16919
912.862	16873
912.976	16668
913.09	16485
913.204	16645
913.318	16611
913.431	16797
913.545	16763
913.659	16736
913.772	16615
913.886	16440
914	16398
914.113	16599
914.226	16398
914.34	16493
914.453	16261
914.566	16451
914.68	16371
914.793	16234
914.906	16067
915.019	16059
915.132	16044
915.245	15960
915.358	15991
915.47	16063
915.583	16036
915.696	16032
915.809	16109
915.921	16131
916.034	16048
916.146	15964
916.259	15884
916.371	16021
916.483	15911
916.595	15876
916.708	15949
916.82	15827
916.932	15766
917.044	15747
917.156	15793
917.268	15648
917.38	15686
917.491	15641
917.603	15629
917.715	15660
917.826	15675
917.938	15542
918.049	15431
918.161	15519
918.272	15705
918.384	15739
918.495	15580
918.606	15412
918.717	15317
918.828	15408
918.939	15416
919.05	15268
919.161	15348
919.272	15142
919.383	15256
919.494	15450
919.604	15610
919.715	15272
919.826	15294
919.936	15317
920.047	15374
920.157	15344
920.267	15519
920.378	15435
920.488	15241
920.598	15576
920.708	15660
920.818	15428
920.928	15462
921.038	15641
921.148	15622
921.258	15294
921.368	15161
921.477	15085
921.587	15123
921.697	14956
921.806	15089
921.916	14853
922.025	14648
922.134	14720
922.244	14663
922.353	14712
922.462	14579
922.571	14537
922.68	14290
922.789	14229
922.898	14336
923.007	14259
923.116	14351
923.224	14248
923.333	14263
923.442	14050
923.55	14103
923.659	14233
923.767	14221
923.876	14031
923.984	14187
924.092	14031
924.201	13982
924.309	14088
924.417	14005
924.525	13967
924.633	13864
924.741	14899
924.849	13734
924.956	13963
925.064	13715
925.172	13643
925.279	13662
925.387	13784
925.494	13693
925.602	13875
925.709	13772
925.816	13563
925.924	13693
926.031	13666
926.138	13643
926.245	13704
926.352	13586
926.459	13693
926.566	13677
926.673	13537
926.779	13384
926.886	13403
926.993	13289
927.099	13228
927.206	13247
927.312	13145
927.419	13297
927.525	13190
927.631	13244
927.737	13042
927.843	13057
927.95	12916
928.056	13091
928.162	13076
928.267	13091
928.373	13738
928.479	13050
928.585	12932
928.69	12966
928.796	12981
928.901	12810
929.007	12688
929.112	12840
929.218	12871
929.323	12829
929.428	12741
929.533	12924
929.638	12684
929.743	12589
929.848	12681
929.953	12631
930.058	12673
930.163	12445
930.267	12433
930.372	12525
930.477	12365
930.581	12692
930.685	12490
930.79	12239
930.894	12346
930.998	12296
931.103	12418
931.207	12019
931.311	12026
931.415	11851
931.519	11691
931.623	11699
