Data from test_V78500241_2991.txt Node
Date: Fri Mar 25 16:02:31 CST 2022
User: usil
Spectrometer: V785-0024
Trigger mode: 0
Integration Time (sec): 4.000000E-1
Scans to average: 1
Nonlinearity correction enabled: false
Boxcar width: 0
Storing dark spectrum: false
XAxis mode: Wavelengths
Number of Pixels in Spectrum: 1024
>>>>>Begin Spectral Data<<<<<
801.071	28816
801.214	28713
801.356	28447
801.499	28394
801.641	28253
801.783	28265
801.926	28390
802.068	28318
802.211	28299
802.353	28192
802.496	27994
802.638	28010
802.78	27918
802.923	27800
803.065	27903
803.208	27991
803.35	27979
803.492	28143
803.635	28196
803.777	28040
803.919	28253
804.061	28485
804.204	28356
804.346	28067
804.488	28207
804.63	28219
804.773	28204
804.915	28371
805.057	28375
805.199	28322
805.341	28363
805.483	28432
805.626	28459
805.768	28314
805.91	28360
806.052	28459
806.194	28284
806.336	28485
806.478	28546
806.62	28531
806.762	28504
806.904	28645
807.046	28885
807.188	28942
807.33	28946
807.472	28972
807.614	28927
807.756	28854
807.898	28854
808.04	28630
808.182	28683
808.324	28812
808.465	28733
808.607	29003
808.749	29052
808.891	29128
809.033	29178
809.174	29105
809.316	29086
809.458	29010
809.6	29079
809.741	29246
809.883	29128
810.025	29360
810.166	29307
810.308	29410
810.45	29356
810.591	29296
810.733	29189
810.875	29143
811.016	28927
811.158	29109
811.299	29117
811.441	29322
811.582	29258
811.724	29102
811.865	29079
812.007	29086
812.148	29204
812.29	29147
812.431	29406
812.573	29505
812.714	29554
812.855	29543
812.997	29737
813.138	29745
813.279	29741
813.421	29638
813.562	29414
813.703	29372
813.845	29455
813.986	29113
814.127	28873
814.268	28828
814.41	29033
814.551	28793
814.692	28888
814.833	28744
814.974	28801
815.115	28892
815.256	28759
815.397	28596
815.539	28793
815.68	28554
815.821	28527
815.962	28717
816.103	28725
816.244	28443
816.385	28432
816.526	28596
816.666	28158
816.807	28177
816.948	28322
817.089	28185
817.23	28131
817.371	28067
817.512	28192
817.653	28055
817.793	28105
817.934	28112
818.075	28135
818.216	28192
818.356	28093
818.497	28006
818.638	27846
818.778	27781
818.919	27850
819.06	27854
819.2	28051
819.341	28063
819.481	28166
819.622	28219
819.762	28516
819.903	28413
820.043	28341
820.184	28246
820.324	28405
820.465	28303
820.605	28440
820.746	28401
820.886	28200
821.026	28257
821.167	28192
821.307	28337
821.447	28128
821.588	28105
821.728	27819
821.868	27743
822.008	27648
822.149	27610
822.289	27698
822.429	27359
822.569	27367
822.709	27306
822.849	27123
822.99	27176
823.13	27230
823.27	27195
823.41	26944
823.55	26746
823.69	26929
823.83	27013
823.97	27100
824.11	26857
824.25	26785
824.389	26773
824.529	26895
824.669	26724
824.809	27020
824.949	26891
825.089	26880
825.228	26804
825.368	26655
825.508	26697
825.648	26689
825.787	26785
825.927	26674
826.067	26674
826.206	26670
826.346	26697
826.485	26625
826.625	26613
826.765	26746
826.904	26689
827.044	26552
827.183	26609
827.323	26419
827.462	26453
827.601	26427
827.741	26450
827.88	26442
828.02	26324
828.159	26328
828.298	26358
828.437	26579
828.577	26434
828.716	26450
828.855	26362
828.994	26172
829.134	26073
829.273	26157
829.412	26001
829.551	26016
829.69	26122
829.829	26100
829.968	26126
830.107	26145
830.246	26126
830.385	25997
830.524	25982
830.663	26046
830.802	25894
830.941	25674
831.08	25544
831.219	25883
831.357	25795
831.496	25974
831.635	25799
831.774	25613
831.913	25578
832.051	25460
832.19	25586
832.329	25464
832.467	25381
832.606	25312
832.744	25259
832.883	25301
833.022	25403
833.16	25426
833.299	25430
833.437	25362
833.576	25479
833.714	25472
833.852	25506
833.991	25453
834.129	25575
834.267	25529
834.406	25362
834.544	25339
834.682	25381
834.821	25411
834.959	25533
835.097	25312
835.235	25502
835.373	25422
835.511	25396
835.65	25312
835.788	25289
835.926	25103
836.064	25095
836.202	24992
836.34	25274
836.478	25236
836.615	25312
836.753	25278
836.891	25308
837.029	25346
837.167	25179
837.305	25110
837.443	25141
837.58	25118
837.718	25190
837.856	25057
837.993	25122
838.131	25129
838.269	24878
838.406	25065
838.544	24981
838.681	24745
838.819	24696
838.956	24505
839.094	24555
839.231	24593
839.369	24707
839.506	24928
839.643	24798
839.781	24494
839.918	24475
840.055	24521
840.193	24502
840.33	24410
840.467	24486
840.604	24544
840.742	24810
840.879	24304
841.016	24369
841.153	24380
841.29	24505
841.427	24369
841.564	24429
841.701	24467
841.838	24338
841.975	24262
842.112	24315
842.249	24209
842.385	24194
842.522	24521
842.659	24308
842.796	24247
842.933	24106
843.069	24186
843.206	24144
843.343	24323
843.479	24213
843.616	24235
843.752	23923
843.889	24072
844.025	24110
844.162	23920
844.298	24060
844.435	23977
844.571	23870
844.708	24038
844.844	24140
844.98	24015
845.117	24129
845.253	24060
845.389	23836
845.525	23912
845.661	23752
845.798	23779
845.934	23741
846.07	23832
846.206	23741
846.342	23767
846.478	23566
846.614	23490
846.75	23296
846.886	23486
847.022	23551
847.158	23459
847.294	23562
847.429	23573
847.565	23444
847.701	23687
847.837	23212
847.972	23090
848.108	23273
848.244	23124
848.379	23014
848.515	22961
848.65	22892
848.786	23060
848.921	23105
849.057	23113
849.192	23037
849.328	22999
849.463	22965
849.598	22923
849.734	22889
849.869	22896
850.004	22778
850.14	22881
850.275	22850
850.41	22634
850.545	22786
850.68	22847
850.815	22778
850.95	22866
851.085	22968
851.22	22862
851.355	22915
851.49	22702
851.625	22919
851.76	22774
851.895	22790
852.03	22649
852.165	22801
852.299	22809
852.434	22847
852.569	22896
852.703	22869
852.838	22976
852.973	22877
853.107	22885
853.242	22816
853.376	22672
853.511	22512
853.645	22569
853.78	22744
853.914	22626
854.048	22577
854.183	22592
854.317	22588
854.451	22885
854.585	22607
854.72	22603
854.854	22763
854.988	22542
855.122	22641
855.256	22428
855.39	22706
855.524	22786
855.658	22694
855.792	22603
855.926	22580
856.06	22713
856.194	22721
856.327	22664
856.461	22565
856.595	22603
856.729	22588
856.862	22790
856.996	22599
857.13	22596
857.263	22824
857.397	22782
857.53	22706
857.664	22660
857.797	22831
857.931	22748
858.064	22702
858.197	22706
858.331	22725
858.464	22478
858.597	22523
858.731	22634
858.864	22626
858.997	22557
859.13	22626
859.263	22615
859.396	22801
859.529	22645
859.662	22630
859.795	22580
859.928	22615
860.061	22881
860.194	22805
860.327	22778
860.46	22615
860.592	22790
860.725	22809
860.858	22767
860.99	22615
861.123	22622
861.256	22580
861.388	22615
861.521	23452
861.653	22462
861.786	22371
861.918	22447
862.05	22584
862.183	22603
862.315	22557
862.447	22516
862.58	22618
862.712	22310
862.844	22409
862.976	22322
863.108	22462
863.24	22904
863.372	22341
863.504	22459
863.636	22253
863.768	22470
863.9	22367
864.032	22280
864.164	22390
864.296	22409
864.428	22470
864.559	22466
864.691	22596
864.823	22405
864.954	22185
865.086	22314
865.217	22314
865.349	22185
865.48	22188
865.612	22268
865.743	22432
865.875	22371
866.006	22242
866.137	22154
866.269	22207
866.4	22204
866.531	22086
866.662	22074
866.793	22219
866.924	22120
867.055	22139
867.186	22093
867.317	22078
867.448	21975
867.579	22120
867.71	22040
867.841	21930
867.972	22147
868.103	22177
868.233	22207
868.364	22101
868.495	22230
868.625	22371
868.756	22462
868.886	22287
869.017	22348
869.147	22500
869.278	22489
869.408	22443
869.539	22306
869.669	22459
869.799	22523
869.929	22516
870.06	22424
870.19	22774
870.32	22706
870.45	22710
870.58	22797
870.71	22854
870.84	22831
870.97	22744
871.1	22812
871.23	22934
871.36	22919
871.489	22881
871.619	22995
871.749	23064
871.879	23014
872.008	23151
872.138	22980
872.267	22991
872.397	22816
872.526	22915
872.656	22828
872.785	22786
872.915	23022
873.044	23098
873.173	23037
873.303	23067
873.432	23048
873.561	23136
873.69	22961
873.819	22984
873.948	23143
874.077	23083
874.206	22949
874.335	22934
874.464	23197
874.593	23288
874.722	23242
874.851	23231
874.979	23296
875.108	23246
875.237	23105
875.365	23185
875.494	23064
875.623	23299
875.751	23162
875.88	23273
876.008	23235
876.136	23436
876.265	23592
876.393	23695
876.521	23646
876.65	23668
876.778	23630
876.906	23577
877.034	23608
877.162	23653
877.29	23486
877.418	23577
877.546	23562
877.674	23630
877.802	23486
877.93	23562
878.058	23554
878.185	23429
878.313	23406
878.441	23577
878.568	23497
878.696	23463
878.824	23509
878.951	23600
879.079	23786
879.206	23805
879.333	23752
879.461	23634
879.588	23665
879.715	23870
879.842	23851
879.97	23680
880.097	23410
880.224	23360
880.351	23535
880.478	23318
880.605	23356
880.732	23448
880.859	23703
880.986	23490
881.112	23360
881.239	23223
881.366	23094
881.493	23048
881.619	22991
881.746	23003
881.872	22873
881.999	22805
882.125	22900
882.252	22965
882.378	22961
882.505	23018
882.631	22828
882.757	22554
882.883	22702
883.01	22763
883.136	22478
883.262	22504
883.388	22386
883.514	22706
883.64	22535
883.766	22527
883.892	22253
884.018	22371
884.143	22557
884.269	22615
884.395	22356
884.52	22276
884.646	22226
884.772	22173
884.897	22238
885.023	22363
885.148	22318
885.274	22310
885.399	22295
885.524	22306
885.65	22173
885.775	22284
885.9	22234
886.025	22341
886.15	22352
886.275	22207
886.4	22177
886.525	22215
886.65	22097
886.775	22147
886.9	22303
887.025	22348
887.149	22109
887.274	22101
887.399	22044
887.523	21892
887.648	21899
887.773	22006
887.897	22074
888.021	22093
888.146	21835
888.27	22078
888.395	22105
888.519	21987
888.643	22059
888.767	22044
888.891	21831
889.015	21755
889.139	21770
889.263	21751
889.387	21926
889.511	21972
889.635	21846
889.759	21812
889.883	21819
890.006	21713
890.13	21789
890.254	21778
890.377	21709
890.501	21511
890.624	21542
890.748	21507
890.871	21389
890.995	21233
891.118	21348
891.241	21435
891.364	21370
891.488	21450
891.611	21431
891.734	21424
891.857	21340
891.98	21363
892.103	21386
892.226	21264
892.349	21252
892.471	21203
892.594	21203
892.717	21264
892.839	21123
892.962	21294
893.085	21211
893.207	21268
893.33	21142
893.452	21100
893.575	21214
893.697	21116
893.819	21370
893.941	21332
894.064	21405
894.186	21230
894.308	21169
894.43	21233
894.552	21374
894.674	21382
894.796	21089
894.918	21131
895.04	21161
895.161	21298
895.283	21241
895.405	21142
895.526	21138
895.648	21176
895.769	21272
895.891	21222
896.012	21325
896.134	21298
896.255	21176
896.376	21195
896.498	21142
896.619	21165
896.74	21146
896.861	21275
896.982	21504
897.103	21743
897.224	21439
897.345	21363
897.466	21401
897.587	21397
897.708	21424
897.828	21458
897.949	21317
898.07	21256
898.19	21256
898.311	21408
898.431	21336
898.552	21370
898.672	21416
898.792	21485
898.913	21393
899.033	21233
899.153	21135
899.273	20979
899.393	21157
899.513	21222
899.633	21070
899.753	21131
899.873	20948
899.993	21116
900.113	21028
900.232	21085
900.352	21055
900.472	20815
900.591	20918
900.711	20929
900.83	20887
900.95	20982
901.069	20967
901.189	20872
901.308	20492
901.427	20450
901.546	20609
901.665	20492
901.784	20408
901.904	20328
902.023	20187
902.141	20027
902.26	20039
902.379	19989
902.498	20039
902.617	19989
902.735	20035
902.854	19856
902.973	19890
903.091	19712
903.21	19658
903.328	19495
903.446	19552
903.565	19472
903.683	19381
903.801	19362
903.919	19289
904.038	19388
904.156	19282
904.274	19202
904.392	19133
904.51	19137
904.627	19148
904.745	19282
904.863	19259
904.981	19042
905.098	18837
905.216	18916
905.334	18859
905.451	18840
905.569	18856
905.686	18859
905.803	18821
905.921	18623
906.038	18646
906.155	18665
906.272	18448
906.389	18555
906.506	18426
906.623	18460
906.74	18403
906.857	18144
906.974	18190
907.091	18483
907.208	18456
907.324	18391
907.441	18346
907.557	18091
907.674	18098
907.79	18095
907.907	18019
908.023	18049
908.139	18019
908.256	18019
908.372	17942
908.488	17927
908.604	17847
908.72	17684
908.836	17859
908.952	17733
909.068	17737
909.184	17878
909.3	17752
909.415	17882
909.531	17718
909.647	17604
909.762	17566
909.878	17589
909.993	17467
910.108	17512
910.224	17440
910.339	17376
910.454	17303
910.57	17284
910.685	17223
910.8	17429
910.915	17318
911.03	17197
911.145	17064
911.259	17018
911.374	17090
911.489	16942
911.604	16866
911.718	16774
911.833	16904
911.947	16740
912.062	16558
912.176	16828
912.291	16767
912.405	16782
912.519	16953
912.633	16965
912.748	16767
912.862	16748
912.976	16599
913.09	16596
913.204	16558
913.318	16717
913.431	16721
913.545	16694
913.659	16702
913.772	16523
913.886	16470
914	16375
914.113	16413
914.226	16462
914.34	16409
914.453	16318
914.566	16371
914.68	16333
914.793	16196
914.906	16055
915.019	16002
915.132	15911
915.245	15994
915.358	15975
915.47	16010
915.583	15903
915.696	15876
915.809	16013
915.921	16017
916.034	15937
916.146	15922
916.259	15915
916.371	15930
916.483	15880
916.595	15778
916.708	15652
916.82	15816
916.932	15759
917.044	15637
917.156	15682
917.268	15648
917.38	15492
917.491	15637
917.603	15675
917.715	15618
917.826	15576
917.938	15519
918.049	15397
918.161	15545
918.272	15599
918.384	15614
918.495	15530
918.606	15321
918.717	15317
918.828	15340
918.939	15485
919.05	15214
919.161	15256
919.272	15150
919.383	15176
919.494	15344
919.604	15485
919.715	15260
919.826	15207
919.936	15272
920.047	15351
920.157	15237
920.267	15462
920.378	15306
920.488	15321
920.598	15462
920.708	15538
920.818	15458
920.928	15298
921.038	15523
921.148	15485
921.258	15275
921.368	15070
921.477	14994
921.587	14998
921.697	14868
921.806	15005
921.916	14830
922.025	14651
922.134	14499
922.244	14640
922.353	14629
922.462	14560
922.571	14415
922.68	14336
922.789	14248
922.898	14267
923.007	14263
923.116	14218
923.224	14336
923.333	14252
923.442	14062
923.55	14046
923.659	14145
923.767	14149
923.876	14149
923.984	14103
924.092	13890
924.201	14005
924.309	14039
924.417	13951
924.525	13856
924.633	13986
924.741	14735
924.849	13731
924.956	13814
925.064	13658
925.172	13556
925.279	13658
925.387	13712
925.494	13620
925.602	13742
925.709	13677
925.816	13548
925.924	13567
926.031	13704
926.138	13559
926.245	13643
926.352	13514
926.459	13582
926.566	13613
926.673	13430
926.779	13358
926.886	13400
926.993	13209
927.099	13198
927.206	13171
927.312	13225
927.419	13282
927.525	13118
927.631	13171
927.737	13034
927.843	13080
927.95	12833
928.056	13019
928.162	12932
928.267	13057
928.373	13662
928.479	13004
928.585	12882
928.69	12943
928.796	13019
928.901	12825
929.007	12662
929.112	12871
929.218	12795
929.323	12722
929.428	12715
929.533	12905
929.638	12722
929.743	12601
929.848	12677
929.953	12635
930.058	12464
930.163	12334
930.267	12418
930.372	12483
930.477	12315
930.581	12517
930.685	12426
930.79	12213
930.894	12254
930.998	12228
931.103	12292
931.207	11939
931.311	11847
931.415	11851
931.519	11680
931.623	11657
