Data from test_V78500241_901.txt Node
Date: Fri Mar 25 15:48:02 CST 2022
User: usil
Spectrometer: V785-0024
Trigger mode: 0
Integration Time (sec): 4.000000E-1
Scans to average: 1
Nonlinearity correction enabled: false
Boxcar width: 0
Storing dark spectrum: false
XAxis mode: Wavelengths
Number of Pixels in Spectrum: 1024
>>>>>Begin Spectral Data<<<<<
801.071	27587
801.214	27469
801.356	27180
801.499	27154
801.641	27032
801.783	26899
801.926	27013
802.068	27009
802.211	26998
802.353	26914
802.496	26705
802.638	26648
802.78	26750
802.923	26533
803.065	26560
803.208	26651
803.35	26746
803.492	26727
803.635	26796
803.777	26670
803.919	26910
804.061	27131
804.204	26834
804.346	26815
804.488	26674
804.63	26785
804.773	26701
804.915	26807
805.057	27001
805.199	26842
805.341	26804
805.483	26937
805.626	26777
805.768	26792
805.91	26887
806.052	26929
806.194	26925
806.336	27131
806.478	26807
806.62	26940
806.762	27039
806.904	27260
807.046	27606
807.188	27420
807.33	27310
807.472	27401
807.614	27283
807.756	27427
807.898	27127
808.04	27100
808.182	27287
808.324	27180
808.465	27241
808.607	27374
808.749	27488
808.891	27618
809.033	27762
809.174	27675
809.316	27583
809.458	27454
809.6	27660
809.741	27682
809.883	27759
810.025	27956
810.166	27869
810.308	27720
810.45	27854
810.591	27778
810.733	27724
810.875	27545
811.016	27492
811.158	27473
811.299	27720
811.441	27591
811.582	27690
811.724	27682
811.865	27523
812.007	27526
812.148	27736
812.29	27561
812.431	27686
812.573	27873
812.714	28143
812.855	28128
812.997	28112
813.138	28211
813.279	28048
813.421	28051
813.562	28010
813.703	27926
813.845	27759
813.986	27485
814.127	27291
814.268	27241
814.41	27344
814.551	27195
814.692	27401
814.833	27131
814.974	27157
815.115	27237
815.256	27119
815.397	27093
815.539	27058
815.68	26921
815.821	26887
815.962	27058
816.103	27005
816.244	26800
816.385	26842
816.526	26781
816.666	26682
816.807	26552
816.948	26648
817.089	26727
817.23	26533
817.371	26507
817.512	26511
817.653	26415
817.793	26400
817.934	26503
818.075	26484
818.216	26579
818.356	26480
818.497	26396
818.638	26320
818.778	26138
818.919	26187
819.06	26309
819.2	26419
819.341	26374
819.481	26450
819.622	26758
819.762	26811
819.903	26807
820.043	26598
820.184	26682
820.324	26507
820.465	26609
820.605	26724
820.746	26689
820.886	26465
821.026	26511
821.167	26575
821.307	26625
821.447	26689
821.588	26404
821.728	26214
821.868	26024
822.008	26005
822.149	25989
822.289	25890
822.429	25757
822.569	25738
822.709	25685
822.849	25548
822.99	25487
823.13	25377
823.27	25289
823.41	25316
823.55	25175
823.69	25358
823.83	25422
823.97	25217
824.11	25126
824.25	25107
824.389	25183
824.529	25187
824.669	25095
824.809	25244
824.949	25247
825.089	25209
825.228	25122
825.368	24943
825.508	24894
825.648	25084
825.787	24981
825.927	25091
826.067	25088
826.206	25084
826.346	24939
826.485	24985
826.625	25015
826.765	25072
826.904	25126
827.044	24863
827.183	24658
827.323	24700
827.462	24711
827.601	24642
827.741	24616
827.88	24734
828.02	24551
828.159	24623
828.298	24734
828.437	24665
828.577	24684
828.716	24787
828.855	24540
828.994	24372
829.134	24350
829.273	24479
829.412	24391
829.551	24414
829.69	24365
829.829	24399
829.968	24475
830.107	24475
830.246	24342
830.385	24384
830.524	24258
830.663	24205
830.802	24110
830.941	23939
831.08	24041
831.219	24159
831.357	24114
831.496	24270
831.635	23973
831.774	23923
831.913	23783
832.051	23764
832.19	23916
832.329	23790
832.467	23707
832.606	23710
832.744	23623
832.883	23714
833.022	23638
833.16	23604
833.299	23672
833.437	23710
833.576	23657
833.714	23790
833.852	23824
833.991	23802
834.129	23752
834.267	23615
834.406	23794
834.544	23916
834.682	23718
834.821	23703
834.959	23764
835.097	23638
835.235	23703
835.373	23646
835.511	23741
835.65	23516
835.788	23661
835.926	23604
836.064	23239
836.202	23410
836.34	23573
836.478	23573
836.615	23337
836.753	23512
836.891	23577
837.029	23630
837.167	23539
837.305	23383
837.443	23440
837.58	23334
837.718	23474
837.856	23429
837.993	23467
838.131	23326
838.269	23318
838.406	23364
838.544	23212
838.681	22991
838.819	23086
838.956	22831
839.094	22843
839.231	22900
839.369	23018
839.506	23242
839.643	23261
839.781	22850
839.918	22862
840.055	22877
840.193	22824
840.33	22748
840.467	22919
840.604	22938
840.742	23033
840.879	22603
841.016	22778
841.153	22759
841.29	22850
841.427	22725
841.564	22649
841.701	22721
841.838	22790
841.975	22721
842.112	22710
842.249	22615
842.385	22546
842.522	22618
842.659	22580
842.796	22557
842.933	22516
843.069	22352
843.206	22478
843.343	22630
843.479	22637
843.616	22451
843.752	22226
843.889	22314
844.025	22363
844.162	22211
844.298	22314
844.435	22341
844.571	22276
844.708	22436
844.844	22409
844.98	22531
845.117	22470
845.253	22363
845.389	22158
845.525	22010
845.661	22169
845.798	22013
845.934	22128
846.07	22116
846.206	21953
846.342	22135
846.478	21998
846.614	21865
846.75	21648
846.886	21766
847.022	21888
847.158	21732
847.294	21705
847.429	21937
847.565	21865
847.701	22078
847.837	21587
847.972	21553
848.108	21568
848.244	21667
848.379	21405
848.515	21340
848.65	21405
848.786	21378
848.921	21401
849.057	21477
849.192	21428
849.328	21405
849.463	21332
849.598	21283
849.734	21355
849.869	21329
850.004	21260
850.14	21138
850.275	21184
850.41	21173
850.545	21203
850.68	21024
850.815	21085
850.95	21055
851.085	21256
851.22	21192
851.355	21230
851.49	21169
851.625	21237
851.76	21093
851.895	21013
852.03	21176
852.165	21161
852.299	21173
852.434	21165
852.569	21081
852.703	21184
852.838	21222
852.973	21264
853.107	21264
853.242	21074
853.376	21066
853.511	20708
853.645	20956
853.78	21066
853.914	20948
854.048	20941
854.183	20899
854.317	20948
854.451	21169
854.585	20941
854.72	20872
854.854	21077
854.988	20963
855.122	21009
855.256	20800
855.39	20944
855.524	21055
855.658	21047
855.792	20929
855.926	21024
856.06	20979
856.194	20963
856.327	20948
856.461	20887
856.595	20857
856.729	21039
856.862	21055
856.996	20887
857.13	21070
857.263	21070
857.397	21047
857.53	20971
857.664	20986
857.797	21089
857.931	21047
858.064	20956
858.197	21070
858.331	20952
858.464	21039
858.597	20883
858.731	20998
858.864	20914
858.997	21009
859.13	20944
859.263	21001
859.396	21039
859.529	20967
859.662	20918
859.795	20960
859.928	20990
860.061	21214
860.194	21157
860.327	20994
860.46	21070
860.592	21074
860.725	21104
860.858	21089
860.99	21017
861.123	20918
861.256	20849
861.388	21009
861.521	21500
861.653	20807
861.786	20899
861.918	20823
862.05	20781
862.183	20899
862.315	20925
862.447	20933
862.58	20872
862.712	20765
862.844	20518
862.976	20876
863.108	20720
863.24	20963
863.372	20674
863.504	20667
863.636	20655
863.768	20731
863.9	20731
864.032	20590
864.164	20442
864.296	20712
864.428	20724
864.559	20792
864.691	20800
864.823	20678
864.954	20769
865.086	20651
865.217	20727
865.349	20518
865.48	20648
865.612	20583
865.743	20659
865.875	20590
866.006	20598
866.137	20617
866.269	20609
866.4	20621
866.531	20708
866.662	20511
866.793	20541
866.924	20469
867.055	20598
867.186	20556
867.317	20609
867.448	20419
867.579	20488
867.71	20442
867.841	20457
867.972	20389
868.103	20537
868.233	20423
868.364	20541
868.495	20625
868.625	20807
868.756	20819
868.886	20743
869.017	20670
869.147	21001
869.278	20880
869.408	20693
869.539	20864
869.669	20937
869.799	20823
869.929	20804
870.06	20975
870.19	21142
870.32	21074
870.45	21081
870.58	21195
870.71	21214
870.84	21355
870.97	21180
871.1	21157
871.23	21291
871.36	21431
871.489	21275
871.619	21313
871.749	21287
871.879	21393
872.008	21477
872.138	21287
872.267	21294
872.397	21184
872.526	21195
872.656	21127
872.785	21161
872.915	21447
873.044	21412
873.173	21370
873.303	21549
873.432	21553
873.561	21530
873.69	21405
873.819	21370
873.948	21466
874.077	21306
874.206	21344
874.335	21408
874.464	21545
874.593	21599
874.722	21580
874.851	21701
874.979	21656
875.108	21652
875.237	21488
875.365	21564
875.494	21663
875.623	21679
875.751	21492
875.88	21545
876.008	21827
876.136	21884
876.265	22036
876.393	22173
876.521	22067
876.65	22162
876.778	22010
876.906	22162
877.034	22002
877.162	22006
877.29	21949
877.418	22010
877.546	22101
877.674	22006
877.802	22044
877.93	21804
878.058	22013
878.185	21797
878.313	21838
878.441	21983
878.568	21842
878.696	21979
878.824	21953
878.951	22036
879.079	22173
879.206	22249
879.333	22090
879.461	22131
879.588	22131
879.715	22181
879.842	22242
879.97	22051
880.097	21698
880.224	21679
880.351	21899
880.478	21759
880.605	21732
880.732	21762
880.859	21953
880.986	21895
881.112	21827
881.239	21583
881.366	21515
881.493	21477
881.619	21382
881.746	21401
881.872	21428
881.999	21291
882.125	21325
882.252	21420
882.378	21161
882.505	21386
882.631	21184
882.757	21112
882.883	21222
883.01	21127
883.136	20963
883.262	21024
883.388	20941
883.514	21066
883.64	21135
883.766	21001
883.892	20921
884.018	20948
884.143	21005
884.269	21058
884.395	20807
884.52	20739
884.646	20849
884.772	20712
884.897	20659
885.023	20697
885.148	20807
885.274	20937
885.399	20758
885.524	20743
885.65	20670
885.775	20705
885.9	20606
886.025	20743
886.15	20834
886.275	20712
886.4	20629
886.525	20693
886.65	20617
886.775	20674
886.9	20758
887.025	20823
887.149	20648
887.274	20533
887.399	20434
887.523	20552
887.648	20362
887.773	20457
887.897	20594
888.021	20537
888.146	20362
888.27	20579
888.395	20602
888.519	20579
888.643	20545
888.767	20412
888.891	20434
889.015	20343
889.139	20355
889.263	20324
889.387	20450
889.511	20533
889.635	20492
889.759	20309
889.883	20263
890.006	20225
890.13	20355
890.254	20225
890.377	20233
890.501	20142
890.624	20031
890.748	20054
890.871	19974
890.995	19765
891.118	19944
891.241	19818
891.364	19864
891.488	19856
891.611	19898
891.734	19841
891.857	19970
891.98	19928
892.103	19947
892.226	19898
892.349	19826
892.471	19639
892.594	19750
892.717	19712
892.839	19708
892.962	19795
893.085	19734
893.207	19738
893.33	19544
893.452	19757
893.575	19826
893.697	19791
893.819	19909
893.941	20088
894.064	19940
894.186	19753
894.308	19689
894.43	19852
894.552	19974
894.674	19852
894.796	19693
894.918	19719
895.04	19681
895.161	19841
895.283	19875
895.405	19700
895.526	19742
895.648	19826
895.769	19674
895.891	19704
896.012	19868
896.134	19841
896.255	19852
896.376	19761
896.498	19776
896.619	19845
896.74	19784
896.861	19898
896.982	20107
897.103	20301
897.224	20054
897.345	20069
897.466	20005
897.587	20103
897.708	20149
897.828	20046
897.949	19936
898.07	19738
898.19	19906
898.311	20084
898.431	19989
898.552	20039
898.672	20153
898.792	20046
898.913	19944
899.033	19898
899.153	19841
899.273	19826
899.393	19791
899.513	19906
899.633	19674
899.753	19852
899.873	19734
899.993	19826
900.113	19750
900.232	19822
900.352	19628
900.472	19567
900.591	19499
900.711	19662
900.83	19575
900.95	19635
901.069	19715
901.189	19396
901.308	19221
901.427	19240
901.546	19236
901.665	19187
901.784	19232
901.904	18970
902.023	18970
902.141	18711
902.26	18768
902.379	18654
902.498	18627
902.617	18593
902.735	18646
902.854	18745
902.973	18593
903.091	18490
903.21	18407
903.328	18338
903.446	18262
903.565	18171
903.683	18296
903.801	17980
903.919	18140
904.038	18129
904.156	17920
904.274	17988
904.392	17817
904.51	17783
904.627	17939
904.745	17908
904.863	17904
904.981	17729
905.098	17562
905.216	17623
905.334	17619
905.451	17672
905.569	17566
905.686	17646
905.803	17570
905.921	17299
906.038	17471
906.155	17280
906.272	17307
906.389	17220
906.506	17159
906.623	17220
906.74	17143
906.857	16991
906.974	17102
907.091	17197
907.208	17193
907.324	17102
907.441	17060
907.557	16858
907.674	16828
907.79	16805
907.907	16824
908.023	16847
908.139	16881
908.256	16740
908.372	16675
908.488	16687
908.604	16588
908.72	16481
908.836	16683
908.952	16508
909.068	16580
909.184	16611
909.3	16504
909.415	16565
909.531	16500
909.647	16238
909.762	16348
909.878	16261
909.993	16329
910.108	16215
910.224	16188
910.339	16158
910.454	16139
910.57	16082
910.685	15998
910.8	16101
910.915	16188
911.03	16078
911.145	15899
911.259	15823
911.374	15873
911.489	15781
911.604	15762
911.718	15584
911.833	15599
911.947	15625
912.062	15431
912.176	15507
912.291	15610
912.405	15545
912.519	15751
912.633	15701
912.748	15618
912.862	15603
912.976	15454
913.09	15325
913.204	15431
913.318	15416
913.431	15466
913.545	15519
913.659	15553
913.772	15382
913.886	15264
914	15119
914.113	15260
914.226	15283
914.34	15294
914.453	15195
914.566	15283
914.68	15013
914.793	15169
914.906	14971
915.019	14845
915.132	14800
915.245	14834
915.358	14895
915.47	14902
915.583	14872
915.696	14925
915.809	14906
915.921	15039
916.034	14845
916.146	14705
916.259	14716
916.371	14868
916.483	14727
916.595	14765
916.708	14796
916.82	14716
916.932	14731
917.044	14571
917.156	14689
917.268	14587
917.38	14537
917.491	14473
917.603	14495
917.715	14564
917.826	14617
917.938	14492
918.049	14434
918.161	14454
918.272	14644
918.384	14674
918.495	14431
918.606	14282
918.717	14142
918.828	14233
918.939	14415
919.05	14256
919.161	14351
919.272	14115
919.383	14199
919.494	14263
919.604	14465
919.715	14271
919.826	14218
919.936	14320
920.047	14404
920.157	14294
920.267	14438
920.378	14309
920.488	14275
920.598	14469
920.708	14598
920.818	14366
920.928	14484
921.038	14617
921.148	14594
921.258	14298
921.368	14153
921.477	14016
921.587	13936
921.697	13894
921.806	14024
921.916	13871
922.025	13723
922.134	13742
922.244	13693
922.353	13609
922.462	13556
922.571	13445
922.68	13422
922.789	13244
922.898	13415
923.007	13236
923.116	13419
923.224	13346
923.333	13331
923.442	13114
923.55	13118
923.659	13122
923.767	13232
923.876	13175
923.984	13228
924.092	13038
924.201	13061
924.309	13133
924.417	13091
924.525	13053
924.633	12962
924.741	13906
924.849	12859
924.956	12894
925.064	12844
925.172	12646
925.279	12734
925.387	12730
925.494	12703
925.602	12916
925.709	12783
925.816	12650
925.924	12688
926.031	12810
926.138	12741
926.245	12760
926.352	12627
926.459	12688
926.566	12768
926.673	12726
926.779	12437
926.886	12582
926.993	12395
927.099	12323
927.206	12209
927.312	12224
927.419	12330
927.525	12308
927.631	12330
927.737	12178
927.843	12201
927.95	12091
928.056	12159
928.162	12102
928.267	12292
928.373	12707
928.479	12232
928.585	12079
928.69	12178
928.796	12186
928.901	12045
929.007	11832
929.112	12019
929.218	11931
929.323	11916
929.428	11767
929.533	12022
929.638	11874
929.743	11851
929.848	11923
929.953	11843
930.058	11707
930.163	11490
930.267	11562
930.372	11805
930.477	11516
930.581	11828
930.685	11657
930.79	11562
930.894	11551
930.998	11448
931.103	11661
931.207	11189
931.311	11140
931.415	11105
931.519	10877
931.623	10835
