Data from test_V78500241_2808.txt Node
Date: Fri Mar 25 16:01:15 CST 2022
User: usil
Spectrometer: V785-0024
Trigger mode: 0
Integration Time (sec): 4.000000E-1
Scans to average: 1
Nonlinearity correction enabled: false
Boxcar width: 0
Storing dark spectrum: false
XAxis mode: Wavelengths
Number of Pixels in Spectrum: 1024
>>>>>Begin Spectral Data<<<<<
801.071	29025
801.214	28991
801.356	28752
801.499	28755
801.641	28611
801.783	28683
801.926	28641
802.068	28717
802.211	28656
802.353	28649
802.496	28398
802.638	28421
802.78	28417
802.923	28177
803.065	28204
803.208	28322
803.35	28398
803.492	28440
803.635	28577
803.777	28405
803.919	28516
804.061	28767
804.204	28618
804.346	28508
804.488	28523
804.63	28599
804.773	28561
804.915	28577
805.057	28615
805.199	28580
805.341	28675
805.483	28668
805.626	28698
805.768	28653
805.91	28725
806.052	28930
806.194	28691
806.336	28953
806.478	28748
806.62	28843
806.762	28812
806.904	29109
807.046	29200
807.188	29151
807.33	29303
807.472	29288
807.614	29098
807.756	29064
807.898	29033
808.04	28980
808.182	29006
808.324	28938
808.465	29079
808.607	29315
808.749	29493
808.891	29604
809.033	29661
809.174	29528
809.316	29387
809.458	29501
809.6	29387
809.741	29627
809.883	29615
810.025	29722
810.166	29802
810.308	29619
810.45	29623
810.591	29638
810.733	29535
810.875	29471
811.016	29474
811.158	29375
811.299	29638
811.441	29748
811.582	29630
811.724	29646
811.865	29478
812.007	29554
812.148	29395
812.29	29684
812.431	29668
812.573	29821
812.714	29980
812.855	29882
812.997	30083
813.138	30201
813.279	30239
813.421	30087
813.562	29946
813.703	29821
813.845	29756
813.986	29493
814.127	29288
814.268	29246
814.41	29318
814.551	29136
814.692	29341
814.833	29121
814.974	29162
815.115	29318
815.256	29136
815.397	29067
815.539	29136
815.68	29010
815.821	28949
815.962	28984
816.103	28968
816.244	28774
816.385	28797
816.526	28729
816.666	28550
816.807	28459
816.948	28504
817.089	28584
817.23	28622
817.371	28546
817.512	28436
817.653	28500
817.793	28592
817.934	28577
818.075	28485
818.216	28493
818.356	28344
818.497	28287
818.638	28128
818.778	28310
818.919	28166
819.06	28386
819.2	28379
819.341	28656
819.481	28523
819.622	28713
819.762	28858
819.903	28763
820.043	28736
820.184	28725
820.324	28645
820.465	28812
820.605	28725
820.746	28668
820.886	28478
821.026	28611
821.167	28516
821.307	28759
821.447	28603
821.588	28478
821.728	28219
821.868	28150
822.008	27964
822.149	28044
822.289	27922
822.429	27701
822.569	27660
822.709	27709
822.849	27557
822.99	27557
823.13	27572
823.27	27511
823.41	27340
823.55	27207
823.69	27374
823.83	27389
823.97	27184
824.11	27214
824.25	27127
824.389	27150
824.529	27138
824.669	27226
824.809	27241
824.949	27344
825.089	27275
825.228	27169
825.368	27135
825.508	27039
825.648	26982
825.787	27116
825.927	27203
826.067	26975
826.206	27058
826.346	27157
826.485	27081
826.625	27096
826.765	27150
826.904	27127
827.044	26845
827.183	26880
827.323	26731
827.462	26876
827.601	26872
827.741	26716
827.88	26830
828.02	26667
828.159	26838
828.298	26773
828.437	26800
828.577	26724
828.716	26906
828.855	26712
828.994	26549
829.134	26450
829.273	26530
829.412	26495
829.551	26427
829.69	26377
829.829	26579
829.968	26625
830.107	26606
830.246	26514
830.385	26393
830.524	26415
830.663	26256
830.802	26229
830.941	26077
831.08	26031
831.219	26267
831.357	26084
831.496	26400
831.635	26058
831.774	26069
831.913	25890
832.051	25963
832.19	25974
832.329	25727
832.467	25799
832.606	25837
832.744	25887
832.883	25803
833.022	25597
833.16	25753
833.299	25746
833.437	25715
833.576	25868
833.714	25791
833.852	25814
833.991	25894
834.129	25814
834.267	25811
834.406	25807
834.544	25715
834.682	25807
834.821	25864
834.959	26016
835.097	25689
835.235	25887
835.373	25830
835.511	25753
835.65	25616
835.788	25613
835.926	25468
836.064	25468
836.202	25438
836.34	25620
836.478	25662
836.615	25681
836.753	25601
836.891	25658
837.029	25632
837.167	25689
837.305	25571
837.443	25487
837.58	25575
837.718	25578
837.856	25464
837.993	25449
838.131	25343
838.269	25236
838.406	25369
838.544	25274
838.681	25088
838.819	25103
838.956	24992
839.094	24897
839.231	24890
839.369	25122
839.506	25285
839.643	25293
839.781	24730
839.918	24886
840.055	24943
840.193	24783
840.33	24875
840.467	24730
840.604	24852
840.742	25053
840.879	24722
841.016	24719
841.153	24696
841.29	24932
841.427	24760
841.564	24886
841.701	24726
841.838	24764
841.975	24612
842.112	24692
842.249	24681
842.385	24673
842.522	24798
842.659	24623
842.796	24570
842.933	24639
843.069	24559
843.206	24521
843.343	24555
843.479	24498
843.616	24604
843.752	24414
843.889	24327
844.025	24464
844.162	24315
844.298	24471
844.435	24254
844.571	24418
844.708	24426
844.844	24467
844.98	24475
845.117	24471
845.253	24346
845.389	24167
845.525	24201
845.661	24121
845.798	23973
845.934	24114
846.07	24121
846.206	24148
846.342	24346
846.478	24091
846.614	23783
846.75	23752
846.886	23756
847.022	23771
847.158	23676
847.294	23722
847.429	23764
847.565	23798
847.701	23977
847.837	23471
847.972	23566
848.108	23623
848.244	23539
848.379	23395
848.515	23444
848.65	23337
848.786	23322
848.921	23467
849.057	23471
849.192	23387
849.328	23455
849.463	23330
849.598	23341
849.734	23311
849.869	23231
850.004	23132
850.14	23140
850.275	23121
850.41	23048
850.545	23060
850.68	23162
850.815	23189
850.95	23239
851.085	23433
851.22	23258
851.355	23124
851.49	23185
851.625	23075
851.76	23140
851.895	23003
852.03	23014
852.165	23056
852.299	23090
852.434	23197
852.569	23216
852.703	23178
852.838	23227
852.973	23227
853.107	23345
853.242	22976
853.376	23022
853.511	23006
853.645	22858
853.78	23086
853.914	23060
854.048	22984
854.183	22957
854.317	23006
854.451	23159
854.585	23010
854.72	23014
854.854	22984
854.988	22877
855.122	22949
855.256	22812
855.39	23018
855.524	22972
855.658	23086
855.792	22972
855.926	22980
856.06	22892
856.194	22995
856.327	22953
856.461	22805
856.595	22767
856.729	22953
856.862	22968
856.996	23037
857.13	23048
857.263	22991
857.397	23048
857.53	22965
857.664	22953
857.797	22991
857.931	22968
858.064	22805
858.197	23052
858.331	23010
858.464	22847
858.597	22809
858.731	23014
858.864	22805
858.997	22873
859.13	22972
859.263	23014
859.396	22965
859.529	22889
859.662	22972
859.795	22774
859.928	22850
860.061	23098
860.194	23064
860.327	22889
860.46	22835
860.592	23041
860.725	23162
860.858	23185
860.99	23079
861.123	22869
861.256	22790
861.388	22980
861.521	23585
861.653	22885
861.786	22778
861.918	22736
862.05	22946
862.183	22809
862.315	22782
862.447	22930
862.58	22915
862.712	22634
862.844	22588
862.976	22862
863.108	22694
863.24	23102
863.372	22554
863.504	22748
863.636	22554
863.768	22691
863.9	22565
864.032	22596
864.164	22626
864.296	22653
864.428	22774
864.559	22782
864.691	22683
864.823	22679
864.954	22615
865.086	22577
865.217	22466
865.349	22523
865.48	22561
865.612	22436
865.743	22603
865.875	22443
866.006	22489
866.137	22630
866.269	22516
866.4	22580
866.531	22493
866.662	22405
866.793	22409
866.924	22474
867.055	22466
867.186	22443
867.317	22428
867.448	22424
867.579	22466
867.71	22333
867.841	22409
867.972	22470
868.103	22352
868.233	22413
868.364	22554
868.495	22462
868.625	22641
868.756	22938
868.886	22713
869.017	22687
869.147	22835
869.278	22797
869.408	22675
869.539	22698
869.669	22744
869.799	22668
869.929	22797
870.06	22774
870.19	22866
870.32	23067
870.45	23044
870.58	23083
870.71	23296
870.84	23200
870.97	23090
871.1	23147
871.23	23181
871.36	23292
871.489	23128
871.619	23231
871.749	23303
871.879	23417
872.008	23334
872.138	23330
872.267	23299
872.397	23174
872.526	23022
872.656	23113
872.785	23071
872.915	23265
873.044	23345
873.173	23360
873.303	23429
873.432	23318
873.561	23379
873.69	23322
873.819	23372
873.948	23398
874.077	23410
874.206	23231
874.335	23265
874.464	23512
874.593	23623
874.722	23398
874.851	23474
874.979	23638
875.108	23535
875.237	23486
875.365	23379
875.494	23486
875.623	23417
875.751	23535
875.88	23581
876.008	23570
876.136	23687
876.265	23874
876.393	24148
876.521	23969
876.65	23999
876.778	23954
876.906	23912
877.034	23870
877.162	23821
877.29	23828
877.418	23821
877.546	23843
877.674	23847
877.802	23840
877.93	23695
878.058	23779
878.185	23589
878.313	23726
878.441	23882
878.568	23802
878.696	23775
878.824	23813
878.951	23946
879.079	23912
879.206	24121
879.333	23977
879.461	23729
879.588	24011
879.715	23893
879.842	24174
879.97	23908
880.097	23649
880.224	23642
880.351	23836
880.478	23775
880.605	23703
880.732	23668
880.859	23969
880.986	23661
881.112	23703
881.239	23611
881.366	23345
881.493	23421
881.619	23261
881.746	23250
881.872	23235
881.999	23216
882.125	23105
882.252	23208
882.378	23204
882.505	23341
882.631	23147
882.757	22915
882.883	22987
883.01	22889
883.136	22930
883.262	22771
883.388	22782
883.514	22915
883.64	22946
883.766	22740
883.892	22634
884.018	22683
884.143	22847
884.269	22824
884.395	22577
884.52	22599
884.646	22508
884.772	22489
884.897	22432
885.023	22523
885.148	22512
885.274	22713
885.399	22588
885.524	22535
885.65	22592
885.775	22592
885.9	22459
886.025	22721
886.15	22489
886.275	22523
886.4	22272
886.525	22443
886.65	22375
886.775	22413
886.9	22653
887.025	22717
887.149	22497
887.274	22337
887.399	22242
887.523	22360
887.648	22207
887.773	22226
887.897	22356
888.021	22382
888.146	22253
888.27	22341
888.395	22375
888.519	22246
888.643	22230
888.767	22284
888.891	22280
889.015	22055
889.139	22078
889.263	22070
889.387	22207
889.511	22147
889.635	22185
889.759	22090
889.883	21899
890.006	22219
890.13	22166
890.254	21994
890.377	21979
890.501	21785
890.624	21766
890.748	21812
890.871	21675
890.995	21610
891.118	21542
891.241	21633
891.364	21663
891.488	21679
891.611	21633
891.734	21545
891.857	21709
891.98	21660
892.103	21523
892.226	21538
892.349	21542
892.471	21431
892.594	21519
892.717	21374
892.839	21488
892.962	21397
893.085	21462
893.207	21500
893.33	21450
893.452	21447
893.575	21538
893.697	21408
893.819	21610
893.941	21679
894.064	21610
894.186	21439
894.308	21397
894.43	21599
894.552	21610
894.674	21519
894.796	21348
894.918	21386
895.04	21401
895.161	21557
895.283	21507
895.405	21431
895.526	21450
895.648	21515
895.769	21549
895.891	21549
896.012	21542
896.134	21576
896.255	21538
896.376	21397
896.498	21389
896.619	21473
896.74	21450
896.861	21526
896.982	21743
897.103	21983
897.224	21637
897.345	21652
897.466	21614
897.587	21599
897.708	21857
897.828	21572
897.949	21591
898.07	21580
898.19	21599
898.311	21747
898.431	21580
898.552	21656
898.672	21614
898.792	21572
898.913	21564
899.033	21511
899.153	21492
899.273	21370
899.393	21374
899.513	21378
899.633	21340
899.753	21382
899.873	21439
899.993	21241
900.113	21264
900.232	21336
900.352	21287
900.472	21211
900.591	21180
900.711	21123
900.83	21173
900.95	21428
901.069	21214
901.189	21020
901.308	20708
901.427	20594
901.546	20708
901.665	20712
901.784	20758
901.904	20530
902.023	20419
902.141	20153
902.26	20248
902.379	20221
902.498	20237
902.617	20225
902.735	20237
902.854	20073
902.973	20065
903.091	19841
903.21	19826
903.328	19856
903.446	19807
903.565	19578
903.683	19594
903.801	19537
903.919	19567
904.038	19578
904.156	19449
904.274	19464
904.392	19312
904.51	19396
904.627	19411
904.745	19358
904.863	19499
904.981	19263
905.098	18993
905.216	19050
905.334	19091
905.451	19065
905.569	19046
905.686	19061
905.803	18951
905.921	18897
906.038	19008
906.155	18932
906.272	18848
906.389	18677
906.506	18601
906.623	18547
906.74	18620
906.857	18494
906.974	18532
907.091	18642
907.208	18726
907.324	18536
907.441	18475
907.557	18311
907.674	18254
907.79	18220
907.907	18304
908.023	18262
908.139	18334
908.256	18182
908.372	18197
908.488	18205
908.604	18095
908.72	18015
908.836	18072
908.952	17965
909.068	18026
909.184	18102
909.3	18060
909.415	17821
909.531	17988
909.647	17798
909.762	17680
909.878	17642
909.993	17745
910.108	17699
910.224	17684
910.339	17748
910.454	17570
910.57	17482
910.685	17455
910.8	17649
910.915	17684
911.03	17433
911.145	17280
911.259	17296
911.374	17242
911.489	17258
911.604	17121
911.718	16930
911.833	17056
911.947	16949
912.062	16786
912.176	16908
912.291	16972
912.405	16961
912.519	17185
912.633	17193
912.748	17033
912.862	16957
912.976	16858
913.09	16641
913.204	16759
913.318	16752
913.431	16976
913.545	16908
913.659	16900
913.772	16698
913.886	16538
914	16698
914.113	16687
914.226	16729
914.34	16664
914.453	16398
914.566	16603
914.68	16535
914.793	16424
914.906	16276
915.019	16181
915.132	16162
915.245	16158
915.358	16238
915.47	16204
915.583	16131
915.696	16101
915.809	16230
915.921	16226
916.034	16090
916.146	16040
916.259	16048
916.371	16147
916.483	16082
916.595	16029
916.708	16032
916.82	15903
916.932	15964
917.044	15876
917.156	15827
917.268	15698
917.38	15857
917.491	15732
917.603	15865
917.715	15797
917.826	15926
917.938	15641
918.049	15629
918.161	15606
918.272	15892
918.384	15751
918.495	15679
918.606	15610
918.717	15485
918.828	15580
918.939	15549
919.05	15469
919.161	15542
919.272	15279
919.383	15344
919.494	15500
919.604	15698
919.715	15507
919.826	15447
919.936	15450
920.047	15466
920.157	15393
920.267	15538
920.378	15507
920.488	15504
920.598	15663
920.708	15698
920.818	15603
920.928	15587
921.038	15690
921.148	15682
921.258	15397
921.368	15325
921.477	15142
921.587	15195
921.697	15074
921.806	15256
921.916	15138
922.025	14864
922.134	14815
922.244	14670
922.353	14686
922.462	14697
922.571	14617
922.68	14503
922.789	14415
922.898	14446
923.007	14339
923.116	14560
923.224	14461
923.333	14339
923.442	14298
923.55	14256
923.659	14244
923.767	14332
923.876	14183
923.984	14256
924.092	14130
924.201	14119
924.309	14138
924.417	14069
924.525	14005
924.633	14016
924.741	14994
924.849	13811
924.956	14016
925.064	13807
925.172	13769
925.279	13841
925.387	13917
925.494	13902
925.602	13875
925.709	13826
925.816	13670
925.924	13738
926.031	13864
926.138	13727
926.245	13864
926.352	13571
926.459	13685
926.566	13822
926.673	13620
926.779	13582
926.886	13529
926.993	13415
927.099	13384
927.206	13392
927.312	13327
927.419	13343
927.525	13373
927.631	13339
927.737	13225
927.843	13206
927.95	12970
928.056	13179
928.162	13160
928.267	13145
928.373	13693
928.479	13266
928.585	12989
928.69	13080
928.796	13129
928.901	12993
929.007	12859
929.112	12962
929.218	13015
929.323	12859
929.428	12867
929.533	12954
929.638	12707
929.743	12745
929.848	12867
929.953	12878
930.058	12719
930.163	12540
930.267	12601
930.372	12662
930.477	12494
930.581	12650
930.685	12544
930.79	12426
930.894	12448
930.998	12380
931.103	12445
931.207	12060
931.311	12079
931.415	12022
931.519	11722
931.623	11790
