Data from test_V78500241_3685.txt Node
Date: Fri Mar 25 16:07:19 CST 2022
User: usil
Spectrometer: V785-0024
Trigger mode: 0
Integration Time (sec): 4.000000E-1
Scans to average: 1
Nonlinearity correction enabled: false
Boxcar width: 0
Storing dark spectrum: false
XAxis mode: Wavelengths
Number of Pixels in Spectrum: 1024
>>>>>Begin Spectral Data<<<<<
801.071	28375
801.214	28382
801.356	28131
801.499	28067
801.641	27949
801.783	27922
801.926	27979
802.068	27960
802.211	27876
802.353	27918
802.496	27648
802.638	27793
802.78	27568
802.923	27587
803.065	27504
803.208	27576
803.35	27736
803.492	27781
803.635	27884
803.777	27831
803.919	27930
804.061	28139
804.204	27926
804.346	27797
804.488	27736
804.63	27880
804.773	27755
804.915	27991
805.057	28021
805.199	27972
805.341	28040
805.483	28002
805.626	28040
805.768	27972
805.91	27937
806.052	28131
806.194	28010
806.336	28192
806.478	27975
806.62	27888
806.762	28207
806.904	28299
807.046	28565
807.188	28432
807.33	28485
807.472	28542
807.614	28451
807.756	28272
807.898	28310
808.04	28226
808.182	28211
808.324	28363
808.465	28299
808.607	28611
808.749	28626
808.891	28755
809.033	28782
809.174	28713
809.316	28626
809.458	28687
809.6	28698
809.741	28854
809.883	28797
810.025	28946
810.166	28892
810.308	29018
810.45	28995
810.591	28980
810.733	28767
810.875	28774
811.016	28736
811.158	28603
811.299	28774
811.441	28949
811.582	28881
811.724	28755
811.865	28687
812.007	28843
812.148	28759
812.29	28885
812.431	28896
812.573	29060
812.714	29105
812.855	29254
812.997	29307
813.138	29520
813.279	29463
813.421	29387
813.562	29204
813.703	28968
813.845	28805
813.986	28634
814.127	28573
814.268	28394
814.41	28329
814.551	28428
814.692	28504
814.833	28322
814.974	28344
815.115	28470
815.256	28424
815.397	28325
815.539	28246
815.68	28276
815.821	28223
815.962	28280
816.103	28219
816.244	28272
816.385	27964
816.526	27907
816.666	27850
816.807	27766
816.948	27778
817.089	27759
817.23	27641
817.371	27633
817.512	27686
817.653	27838
817.793	27633
817.934	27747
818.075	27717
818.216	27903
818.356	27709
818.497	27538
818.638	27454
818.778	27610
818.919	27526
819.06	27618
819.2	27591
819.341	27686
819.481	27804
819.622	27991
819.762	28124
819.903	28017
820.043	27899
820.184	27827
820.324	27800
820.465	27930
820.605	27922
820.746	27903
820.886	27827
821.026	27778
821.167	27808
821.307	27911
821.447	27785
821.588	27618
821.728	27603
821.868	27500
822.008	27119
822.149	27138
822.289	27256
822.429	27062
822.569	26834
822.709	26906
822.849	26777
822.99	26754
823.13	26594
823.27	26625
823.41	26632
823.55	26374
823.69	26640
823.83	26613
823.97	26541
824.11	26347
824.25	26259
824.389	26492
824.529	26419
824.669	26415
824.809	26465
824.949	26419
825.089	26499
825.228	26385
825.368	26275
825.508	26138
825.648	26267
825.787	26259
825.927	26298
826.067	26119
826.206	26256
826.346	26317
826.485	26347
826.625	26202
826.765	26256
826.904	26320
827.044	25944
827.183	25955
827.323	25989
827.462	25986
827.601	25978
827.741	25883
827.88	25951
828.02	25841
828.159	25925
828.298	25913
828.437	26065
828.577	25799
828.716	26103
828.855	25864
828.994	25670
829.134	25734
829.273	25712
829.412	25586
829.551	25548
829.69	25647
829.829	25738
829.968	25772
830.107	25791
830.246	25708
830.385	25594
830.524	25483
830.663	25392
830.802	25365
830.941	25320
831.08	25282
831.219	25122
831.357	25316
831.496	25544
831.635	25327
831.774	25202
831.913	25255
832.051	25008
832.19	25095
832.329	25050
832.467	24973
832.606	24878
832.744	24867
832.883	24928
833.022	24859
833.16	24932
833.299	25061
833.437	25076
833.576	25042
833.714	25099
833.852	25046
833.991	24962
834.129	25031
834.267	25091
834.406	25095
834.544	25023
834.682	24909
834.821	24916
834.959	25122
835.097	24878
835.235	25175
835.373	24935
835.511	24992
835.65	24894
835.788	24920
835.926	24612
836.064	24612
836.202	24795
836.34	24749
836.478	24916
836.615	24730
836.753	24806
836.891	24878
837.029	24882
837.167	24829
837.305	24791
837.443	24559
837.58	24722
837.718	24810
837.856	24631
837.993	24429
838.131	24597
838.269	24536
838.406	24536
838.544	24525
838.681	24357
838.819	24350
838.956	24133
839.094	24190
839.231	24129
839.369	24289
839.506	24559
839.643	24346
839.781	24038
839.918	24136
840.055	24186
840.193	24045
840.33	24007
840.467	24045
840.604	23996
840.742	24213
840.879	23939
841.016	24045
841.153	23984
841.29	24197
841.427	24030
841.564	23904
841.701	24018
841.838	24003
841.975	23946
842.112	23988
842.249	23866
842.385	23802
842.522	24091
842.659	23821
842.796	23786
842.933	23802
843.069	23691
843.206	23764
843.343	23851
843.479	23710
843.616	23847
843.752	23592
843.889	23604
844.025	23764
844.162	23577
844.298	23653
844.435	23478
844.571	23570
844.708	23638
844.844	23642
844.98	23653
845.117	23608
845.253	23474
845.389	23398
845.525	23512
845.661	23360
845.798	23303
845.934	23406
846.07	23299
846.206	23311
846.342	23524
846.478	23349
846.614	23102
846.75	22987
846.886	23041
847.022	23060
847.158	23029
847.294	22957
847.429	23029
847.565	23151
847.701	23318
847.837	22755
847.972	22725
848.108	22790
848.244	22900
848.379	22664
848.515	22599
848.65	22607
848.786	22584
848.921	22535
849.057	22759
849.192	22672
849.328	22698
849.463	22622
849.598	22523
849.734	22485
849.869	22478
850.004	22436
850.14	22413
850.275	22424
850.41	22394
850.545	22337
850.68	22333
850.815	22466
850.95	22428
851.085	22561
851.22	22398
851.355	22363
851.49	22352
851.625	22398
851.76	22402
851.895	22246
852.03	22371
852.165	22318
852.299	22474
852.434	22421
852.569	22341
852.703	22443
852.838	22440
852.973	22493
853.107	22523
853.242	22249
853.376	22230
853.511	22048
853.645	22207
853.78	22363
853.914	22268
854.048	22219
854.183	22230
854.317	22223
854.451	22409
854.585	22181
854.72	22287
854.854	22284
854.988	22150
855.122	22257
855.256	22021
855.39	22276
855.524	22265
855.658	22356
855.792	22318
855.926	22128
856.06	22356
856.194	22314
856.327	22090
856.461	22124
856.595	22192
856.729	22166
856.862	22268
856.996	22268
857.13	22341
857.263	22382
857.397	22333
857.53	22109
857.664	22299
857.797	22276
857.931	22333
858.064	22234
858.197	22287
858.331	22196
858.464	22150
858.597	21922
858.731	22158
858.864	22166
858.997	22234
859.13	22143
859.263	22207
859.396	22097
859.529	22112
859.662	22051
859.795	22234
859.928	22280
860.061	22337
860.194	22299
860.327	22325
860.46	22177
860.592	22272
860.725	22348
860.858	22382
860.99	22226
861.123	22109
861.256	22105
861.388	22169
861.521	22889
861.653	22029
861.786	21918
861.918	21991
862.05	22051
862.183	22211
862.315	22207
862.447	22196
862.58	22124
862.712	21941
862.844	21937
862.976	22010
863.108	21979
863.24	22352
863.372	21800
863.504	21861
863.636	21873
863.768	21888
863.9	21937
864.032	21895
864.164	21823
864.296	21895
864.428	22025
864.559	21911
864.691	21983
864.823	21991
864.954	21926
865.086	21949
865.217	21831
865.349	21793
865.48	21759
865.612	21728
865.743	21873
865.875	21941
866.006	21819
866.137	21747
866.269	21880
866.4	21800
866.531	21724
866.662	21701
866.793	21854
866.924	21781
867.055	21743
867.186	21762
867.317	21656
867.448	21652
867.579	21629
867.71	21713
867.841	21545
867.972	21660
868.103	21739
868.233	21804
868.364	21709
868.495	21915
868.625	21861
868.756	22025
868.886	21804
869.017	22006
869.147	22150
869.278	21972
869.408	22017
869.539	21922
869.669	22040
869.799	22093
869.929	22055
870.06	22090
870.19	22314
870.32	22314
870.45	22367
870.58	22363
870.71	22493
870.84	22470
870.97	22310
871.1	22356
871.23	22500
871.36	22618
871.489	22516
871.619	22702
871.749	22557
871.879	22683
872.008	22573
872.138	22683
872.267	22546
872.397	22440
872.526	22352
872.656	22386
872.785	22455
872.915	22584
873.044	22550
873.173	22622
873.303	22672
873.432	22634
873.561	22706
873.69	22656
873.819	22611
873.948	22626
874.077	22611
874.206	22500
874.335	22626
874.464	22687
874.593	22782
874.722	22759
874.851	22938
874.979	22831
875.108	22889
875.237	22866
875.365	22786
875.494	22793
875.623	22896
875.751	22767
875.88	22904
876.008	22885
876.136	22961
876.265	23318
876.393	23322
876.521	23231
876.65	23280
876.778	23185
876.906	23079
877.034	23227
877.162	23197
877.29	23124
877.418	23075
877.546	23204
877.674	23086
877.802	23220
877.93	23170
878.058	23003
878.185	23155
878.313	23197
878.441	23140
878.568	23037
878.696	23067
878.824	23212
878.951	23265
879.079	23330
879.206	23478
879.333	23364
879.461	23170
879.588	23322
879.715	23280
879.842	23497
879.97	23208
880.097	23003
880.224	23025
880.351	23025
880.478	22980
880.605	22972
880.732	22953
880.859	23277
880.986	22927
881.112	23086
881.239	22892
881.366	22725
881.493	22561
881.619	22660
881.746	22736
881.872	22577
881.999	22527
882.125	22375
882.252	22569
882.378	22516
882.505	22611
882.631	22272
882.757	22154
882.883	22333
883.01	22234
883.136	22150
883.262	22177
883.388	22036
883.514	22154
883.64	22234
883.766	22059
883.892	22135
884.018	22029
884.143	22234
884.269	22234
884.395	21850
884.52	21842
884.646	21956
884.772	21857
884.897	21816
885.023	21873
885.148	21907
885.274	21964
885.399	22029
885.524	21846
885.65	21873
885.775	21903
885.9	21755
886.025	21838
886.15	21869
886.275	21766
886.4	21724
886.525	21759
886.65	21736
886.775	21873
886.9	21835
887.025	22021
887.149	21823
887.274	21766
887.399	21682
887.523	21644
887.648	21553
887.773	21606
887.897	21770
888.021	21766
888.146	21660
888.27	21701
888.395	21728
888.519	21610
888.643	21698
888.767	21534
888.891	21485
889.015	21401
889.139	21443
889.263	21348
889.387	21625
889.511	21656
889.635	21644
889.759	21458
889.883	21416
890.006	21428
890.13	21473
890.254	21329
890.377	21367
890.501	21173
890.624	20902
890.748	21173
890.871	21081
890.995	20956
891.118	20902
891.241	21005
891.364	21001
891.488	21039
891.611	20910
891.734	20952
891.857	21055
891.98	20925
892.103	20876
892.226	21024
892.349	20883
892.471	20842
892.594	20849
892.717	20895
892.839	20849
892.962	20929
893.085	20819
893.207	20857
893.33	20644
893.452	20750
893.575	20975
893.697	20861
893.819	20876
893.941	20975
894.064	20998
894.186	20861
894.308	20849
894.43	20887
894.552	21013
894.674	20891
894.796	20724
894.918	20788
895.04	20864
895.161	20906
895.283	20842
895.405	20705
895.526	20746
895.648	20815
895.769	20864
895.891	20899
896.012	20998
896.134	20842
896.255	20807
896.376	20804
896.498	20826
896.619	20906
896.74	20716
896.861	20819
896.982	21062
897.103	21283
897.224	21241
897.345	21093
897.466	20910
897.587	21047
897.708	21161
897.828	21058
897.949	20994
898.07	20929
898.19	21051
898.311	21165
898.431	20990
898.552	20971
898.672	21085
898.792	21226
898.913	21131
899.033	20963
899.153	20804
899.273	20667
899.393	20845
899.513	20902
899.633	20941
899.753	20906
899.873	20739
899.993	20731
900.113	20670
900.232	20769
900.352	20621
900.472	20621
900.591	20461
900.711	20583
900.83	20609
900.95	20560
901.069	20640
901.189	20526
901.308	20237
901.427	20058
901.546	20126
901.665	20092
901.784	20096
901.904	20001
902.023	19947
902.141	19852
902.26	19670
902.379	19765
902.498	19643
902.617	19567
902.735	19647
902.854	19620
902.973	19533
903.091	19354
903.21	19289
903.328	19316
903.446	19236
903.565	19217
903.683	19148
903.801	18989
903.919	19069
904.038	19038
904.156	18909
904.274	18924
904.392	18863
904.51	18677
904.627	18779
904.745	18901
904.863	18833
904.981	18604
905.098	18498
905.216	18536
905.334	18517
905.451	18528
905.569	18582
905.686	18460
905.803	18452
905.921	18327
906.038	18319
906.155	18228
906.272	18190
906.389	18308
906.506	18117
906.623	17946
906.74	18034
906.857	17923
906.974	17885
907.091	18163
907.208	18140
907.324	18003
907.441	17988
907.557	17699
907.674	17779
907.79	17760
907.907	17752
908.023	17714
908.139	17745
908.256	17630
908.372	17657
908.488	17611
908.604	17509
908.72	17429
908.836	17543
908.952	17376
909.068	17482
909.184	17512
909.3	17471
909.415	17417
909.531	17433
909.647	17242
909.762	17208
909.878	17132
909.993	17265
910.108	17067
910.224	17170
910.339	17181
910.454	16991
910.57	16927
910.685	16850
910.8	17239
910.915	17067
911.03	16942
911.145	16820
911.259	16748
911.374	16721
911.489	16717
911.604	16641
911.718	16470
911.833	16550
911.947	16322
912.062	16352
912.176	16531
912.291	16607
912.405	16481
912.519	16729
912.633	16740
912.748	16535
912.862	16402
912.976	16310
913.09	16169
913.204	16261
913.318	16371
913.431	16417
913.545	16386
913.659	16497
913.772	16314
913.886	16135
914	16063
914.113	16246
914.226	16200
914.34	16166
914.453	16032
914.566	16116
914.68	15998
914.793	15983
914.906	15720
915.019	15736
915.132	15667
915.245	15800
915.358	15766
915.47	15679
915.583	15751
915.696	15698
915.809	15747
915.921	15850
916.034	15519
916.146	15545
916.259	15553
916.371	15652
916.483	15656
916.595	15629
916.708	15504
916.82	15595
916.932	15526
917.044	15488
917.156	15351
917.268	15302
917.38	15340
917.491	15249
917.603	15336
917.715	15382
917.826	15408
917.938	15252
918.049	15165
918.161	15317
918.272	15321
918.384	15389
918.495	15241
918.606	15127
918.717	15009
918.828	15142
918.939	15131
919.05	15043
919.161	15055
919.272	14864
919.383	14883
919.494	15081
919.604	15291
919.715	14979
919.826	14902
919.936	15009
920.047	15077
920.157	14963
920.267	15165
920.378	15032
920.488	14956
920.598	15192
920.708	15378
920.818	15058
920.928	15119
921.038	15321
921.148	15230
921.258	15066
921.368	14830
921.477	14804
921.587	14743
921.697	14659
921.806	14735
921.916	14522
922.025	14473
922.134	14461
922.244	14393
922.353	14389
922.462	14195
922.571	14187
922.68	14073
922.789	13963
922.898	14077
923.007	13997
923.116	14020
923.224	14046
923.333	14062
923.442	13909
923.55	13906
923.659	13936
923.767	13906
923.876	13715
923.984	13791
924.092	13738
924.201	13799
924.309	13757
924.417	13761
924.525	13685
924.633	13712
924.741	14629
924.849	13365
924.956	13670
925.064	13472
925.172	13343
925.279	13438
925.387	13495
925.494	13441
925.602	13510
925.709	13407
925.816	13320
925.924	13441
926.031	13411
926.138	13327
926.245	13441
926.352	13278
926.459	13396
926.566	13422
926.673	13217
926.779	13156
926.886	13228
926.993	13015
927.099	12901
927.206	12973
927.312	12890
927.419	13061
927.525	12943
927.631	12966
927.737	12966
927.843	12932
927.95	12692
928.056	12772
928.162	12802
928.267	12852
928.373	13426
928.479	12802
928.585	12551
928.69	12738
928.796	12707
928.901	12760
929.007	12498
929.112	12631
929.218	12593
929.323	12494
929.428	12559
929.533	12635
929.638	12410
929.743	12391
929.848	12456
929.953	12407
930.058	12330
930.163	12159
930.267	12182
930.372	12292
930.477	12140
930.581	12289
930.685	12182
930.79	12079
930.894	12087
930.998	11958
931.103	12136
931.207	11779
931.311	11745
931.415	11657
931.519	11497
931.623	11356
