Data from test_V78500241_3758.txt Node
Date: Fri Mar 25 16:07:50 CST 2022
User: usil
Spectrometer: V785-0024
Trigger mode: 0
Integration Time (sec): 4.000000E-1
Scans to average: 1
Nonlinearity correction enabled: false
Boxcar width: 0
Storing dark spectrum: false
XAxis mode: Wavelengths
Number of Pixels in Spectrum: 1024
>>>>>Begin Spectral Data<<<<<
801.071	20145
801.214	20183
801.356	19963
801.499	20035
801.641	20100
801.783	20206
801.926	20374
802.068	20248
802.211	20252
802.353	20469
802.496	20320
802.638	20339
802.78	20271
802.923	20381
803.065	20511
803.208	20423
803.35	20617
803.492	20712
803.635	20910
803.777	20720
803.919	20971
804.061	21313
804.204	21066
804.346	20921
804.488	20861
804.63	21028
804.773	21024
804.915	21127
805.057	21359
805.199	21279
805.341	21199
805.483	21431
805.626	21447
805.768	21249
805.91	21458
806.052	21363
806.194	21211
806.336	21469
806.478	21310
806.62	21492
806.762	21447
806.904	21759
807.046	21873
807.188	21736
807.33	21766
807.472	21857
807.614	21534
807.756	21606
807.898	21538
808.04	21458
808.182	21504
808.324	21481
808.465	21610
808.607	21720
808.749	21949
808.891	21960
809.033	22017
809.174	21865
809.316	21660
809.458	21827
809.6	21785
809.741	21865
809.883	21953
810.025	22055
810.166	22017
810.308	22074
810.45	21854
810.591	21899
810.733	21797
810.875	21781
811.016	21625
811.158	21751
811.299	21732
811.441	21778
811.582	21861
811.724	21812
811.865	21762
812.007	21819
812.148	21747
812.29	21690
812.431	21880
812.573	22101
812.714	22097
812.855	22253
812.997	22371
813.138	22470
813.279	22417
813.421	22238
813.562	22124
813.703	22074
813.845	21994
813.986	21660
814.127	21679
814.268	21576
814.41	21534
814.551	21500
814.692	21435
814.833	21477
814.974	21443
815.115	21424
815.256	21412
815.397	21332
815.539	21367
815.68	21359
815.821	21184
815.962	21351
816.103	21241
816.244	21237
816.385	21142
816.526	21131
816.666	20967
816.807	20921
816.948	21020
817.089	20967
817.23	20933
817.371	20910
817.512	20849
817.653	20952
817.793	20948
817.934	21039
818.075	20956
818.216	20975
818.356	20883
818.497	20868
818.638	20804
818.778	20769
818.919	20769
819.06	20815
819.2	21028
819.341	21058
819.481	21104
819.622	21287
819.762	21382
819.903	21447
820.043	21268
820.184	21169
820.324	21180
820.465	21340
820.605	21195
820.746	21275
820.886	21192
821.026	21268
821.167	21249
821.307	21348
821.447	21325
821.588	21161
821.728	21150
821.868	20979
822.008	20868
822.149	20929
822.289	20765
822.429	20629
822.569	20526
822.709	20492
822.849	20351
822.99	20396
823.13	20301
823.27	20400
823.41	20267
823.55	20202
823.69	20221
823.83	20278
823.97	20199
824.11	20016
824.25	20046
824.389	20100
824.529	20237
824.669	20237
824.809	20332
824.949	20225
825.089	20263
825.228	20225
825.368	20088
825.508	20062
825.648	19947
825.787	20081
825.927	20138
826.067	20016
826.206	20050
826.346	20084
826.485	20065
826.625	20119
826.765	20202
826.904	20183
827.044	19967
827.183	19845
827.323	19833
827.462	19947
827.601	19856
827.741	19826
827.88	19925
828.02	19753
828.159	19940
828.298	19986
828.437	20073
828.577	19868
828.716	20107
828.855	19871
828.994	19734
829.134	19769
829.273	19822
829.412	19712
829.551	19715
829.69	19795
829.829	19784
829.968	19906
830.107	19799
830.246	19795
830.385	19864
830.524	19715
830.663	19708
830.802	19525
830.941	19483
831.08	19480
831.219	19613
831.357	19575
831.496	19746
831.635	19453
831.774	19483
831.913	19510
832.051	19335
832.19	19324
832.329	19350
832.467	19316
832.606	19240
832.744	19244
832.883	19274
833.022	19255
833.16	19403
833.299	19350
833.437	19426
833.576	19483
833.714	19521
833.852	19468
833.991	19476
834.129	19639
834.267	19529
834.406	19373
834.544	19445
834.682	19476
834.821	19476
834.959	19628
835.097	19620
835.235	19632
835.373	19628
835.511	19582
835.65	19571
835.788	19426
835.926	19350
836.064	19324
836.202	19316
836.34	19552
836.478	19582
836.615	19495
836.753	19578
836.891	19677
837.029	19483
837.167	19525
837.305	19548
837.443	19411
837.58	19411
837.718	19540
837.856	19483
837.993	19388
838.131	19464
838.269	19438
838.406	19472
838.544	19422
838.681	19266
838.819	19133
838.956	19091
839.094	19122
839.231	19194
839.369	19228
839.506	19540
839.643	19388
839.781	19145
839.918	19107
840.055	19236
840.193	19175
840.33	19179
840.467	19213
840.604	19202
840.742	19575
840.879	19076
841.016	19095
841.153	19126
841.29	19438
841.427	19293
841.564	19331
841.701	19285
841.838	19285
841.975	19194
842.112	19369
842.249	19065
842.385	19206
842.522	19362
842.659	19350
842.796	19080
842.933	19179
843.069	19072
843.206	19133
843.343	19274
843.479	19164
843.616	19251
843.752	18996
843.889	19012
844.025	19209
844.162	19050
844.298	19141
844.435	19069
844.571	19072
844.708	19141
844.844	19225
844.98	19156
845.117	19297
845.253	19103
845.389	18996
845.525	19004
845.661	19069
845.798	18905
845.934	19057
846.07	19012
846.206	19103
846.342	19190
846.478	19023
846.614	18757
846.75	18734
846.886	18821
847.022	18916
847.158	18798
847.294	18810
847.429	18760
847.565	18658
847.701	19027
847.837	18544
847.972	18410
848.108	18639
848.244	18563
848.379	18494
848.515	18395
848.65	18509
848.786	18467
848.921	18479
849.057	18506
849.192	18612
849.328	18525
849.463	18498
849.598	18506
849.734	18395
849.869	18334
850.004	18186
850.14	18338
850.275	18315
850.41	18289
850.545	18224
850.68	18201
850.815	18319
850.95	18163
851.085	18448
851.22	18350
851.355	18327
851.49	18197
851.625	18292
851.76	18247
851.895	18247
852.03	18220
852.165	18239
852.299	18353
852.434	18380
852.569	18338
852.703	18319
852.838	18490
852.973	18452
853.107	18380
853.242	18289
853.376	18178
853.511	18095
853.645	18213
853.78	18243
853.914	18205
854.048	18167
854.183	18228
854.317	18323
854.451	18467
854.585	18289
854.72	18251
854.854	18304
854.988	18197
855.122	18213
855.256	18174
855.39	18182
855.524	18384
855.658	18346
855.792	18319
855.926	18273
856.06	18224
856.194	18350
856.327	18224
856.461	18163
856.595	18213
856.729	18216
856.862	18273
856.996	18327
857.13	18258
857.263	18418
857.397	18456
857.53	18285
857.664	18391
857.797	18422
857.931	18350
858.064	18357
858.197	18456
858.331	18323
858.464	18174
858.597	18197
858.731	18369
858.864	18110
858.997	18262
859.13	18308
859.263	18292
859.396	18395
859.529	18220
859.662	18148
859.795	18243
859.928	18376
860.061	18467
860.194	18467
860.327	18338
860.46	18391
860.592	18456
860.725	18483
860.858	18475
860.99	18315
861.123	18300
861.256	18194
861.388	18346
861.521	19027
861.653	18201
861.786	18076
861.918	18152
862.05	18270
862.183	18266
862.315	18342
862.447	18289
862.58	18228
862.712	18102
862.844	17999
862.976	18163
863.108	18167
863.24	18486
863.372	18136
863.504	18106
863.636	18152
863.768	18251
863.9	18171
864.032	17980
864.164	18060
864.296	18098
864.428	18289
864.559	18117
864.691	18140
864.823	18106
864.954	18174
865.086	18060
865.217	18011
865.349	17920
865.48	18106
865.612	18064
865.743	18178
865.875	18068
866.006	17923
866.137	18011
866.269	18015
866.4	17950
866.531	18064
866.662	17980
866.793	17950
866.924	18041
867.055	18019
867.186	17992
867.317	17920
867.448	17912
867.579	17950
867.71	17965
867.841	17817
867.972	17942
868.103	17969
868.233	17973
868.364	18049
868.495	18034
868.625	18201
868.756	18319
868.886	18133
869.017	18167
869.147	18292
869.278	18319
869.408	18262
869.539	18296
869.669	18350
869.799	18266
869.929	18448
870.06	18346
870.19	18585
870.32	18597
870.45	18525
870.58	18684
870.71	18798
870.84	18859
870.97	18738
871.1	18646
871.23	18909
871.36	18920
871.489	18848
871.619	18856
871.749	18890
871.879	19034
872.008	19042
872.138	18859
872.267	18798
872.397	18795
872.526	18681
872.656	18722
872.785	18821
872.915	18897
873.044	19038
873.173	18840
873.303	19000
873.432	19103
873.561	19129
873.69	18928
873.819	18894
873.948	19053
874.077	19099
874.206	18890
874.335	19084
874.464	19038
874.593	19236
874.722	19061
874.851	19316
874.979	19297
875.108	19263
875.237	19198
875.365	19282
875.494	19293
875.623	19343
875.751	19171
875.88	19312
876.008	19502
876.136	19430
876.265	19647
876.393	19742
876.521	19685
876.65	19590
876.778	19609
876.906	19639
877.034	19643
877.162	19559
877.29	19609
877.418	19689
877.546	19715
877.674	19651
877.802	19540
877.93	19616
878.058	19552
878.185	19453
878.313	19620
878.441	19594
878.568	19487
878.696	19491
878.824	19658
878.951	19708
879.079	19871
879.206	19947
879.333	19750
879.461	19715
879.588	19761
879.715	19868
879.842	19944
879.97	19662
880.097	19480
880.224	19468
880.351	19540
880.478	19472
880.605	19495
880.732	19533
880.859	19742
880.986	19567
881.112	19601
881.239	19251
881.366	19194
881.493	19206
881.619	19046
881.746	19099
881.872	19190
881.999	19080
882.125	18989
882.252	19046
882.378	19171
882.505	19091
882.631	18951
882.757	18802
882.883	18970
883.01	18787
883.136	18749
883.262	18852
883.388	18650
883.514	18859
883.64	19046
883.766	18684
883.892	18597
884.018	18646
884.143	18859
884.269	18745
884.395	18616
884.52	18521
884.646	18566
884.772	18521
884.897	18323
885.023	18486
885.148	18525
885.274	18601
885.399	18585
885.524	18509
885.65	18448
885.775	18475
885.9	18429
886.025	18589
886.15	18509
886.275	18456
886.4	18376
886.525	18486
886.65	18372
886.775	18292
886.9	18551
887.025	18768
887.149	18426
887.274	18289
887.399	18292
887.523	18330
887.648	18186
887.773	18171
887.897	18452
888.021	18300
888.146	18155
888.27	18433
888.395	18410
888.519	18296
888.643	18239
888.767	18319
888.891	18228
889.015	17996
889.139	18174
889.263	17992
889.387	18178
889.511	18174
889.635	18136
889.759	18083
889.883	18038
890.006	18136
890.13	18155
890.254	17931
890.377	17973
890.501	17760
890.624	17859
890.748	17863
890.871	17764
890.995	17657
891.118	17463
891.241	17646
891.364	17687
891.488	17707
891.611	17657
891.734	17623
891.857	17585
891.98	17608
892.103	17619
892.226	17707
892.349	17478
892.471	17417
892.594	17573
892.717	17562
892.839	17383
892.962	17501
893.085	17532
893.207	17554
893.33	17364
893.452	17318
893.575	17516
893.697	17455
893.819	17649
893.941	17668
894.064	17615
894.186	17376
894.308	17334
894.43	17433
894.552	17581
894.674	17505
894.796	17269
894.918	17360
895.04	17318
895.161	17417
895.283	17337
895.405	17330
895.526	17296
895.648	17242
895.769	17277
895.891	17345
896.012	17299
896.134	17345
896.255	17296
896.376	17143
896.498	17193
896.619	17254
896.74	17098
896.861	17204
896.982	17505
897.103	17444
897.224	17277
897.345	17337
897.466	17246
897.587	17246
897.708	17353
897.828	17143
897.949	17185
898.07	17109
898.19	17143
898.311	17326
898.431	17121
898.552	17151
898.672	17204
898.792	17235
898.913	17037
899.033	17033
899.153	16782
899.273	16744
899.393	16736
899.513	16729
899.633	16736
899.753	16691
899.873	16721
899.993	16763
900.113	16679
900.232	16656
900.352	16622
900.472	16546
900.591	16481
900.711	16531
900.83	16356
900.95	16615
901.069	16603
901.189	16409
901.308	16223
901.427	16196
901.546	16200
901.665	16135
901.784	16207
901.904	16169
902.023	16074
902.141	15842
902.26	15846
902.379	15926
902.498	15861
902.617	15736
902.735	15918
902.854	15876
902.973	15755
903.091	15660
903.21	15652
903.328	15698
903.446	15739
903.565	15526
903.683	15656
903.801	15584
903.919	15572
904.038	15622
904.156	15386
904.274	15622
904.392	15485
904.51	15542
904.627	15564
904.745	15629
904.863	15629
904.981	15485
905.098	15386
905.216	15336
905.334	15416
905.451	15454
905.569	15355
905.686	15481
905.803	15492
905.921	15192
906.038	15443
906.155	15389
906.272	15214
906.389	15340
906.506	15222
906.623	15275
906.74	15176
906.857	15051
906.974	15005
907.091	15275
907.208	15397
907.324	15355
907.441	15188
907.557	15020
907.674	15070
907.79	15116
907.907	15047
908.023	15123
908.139	15226
908.256	15036
908.372	15013
908.488	15085
908.604	14990
908.72	14861
908.836	14864
908.952	14838
909.068	14902
909.184	15013
909.3	14834
909.415	14933
909.531	14990
909.647	14781
909.762	14708
909.878	14651
909.993	14670
910.108	14682
910.224	14678
910.339	14689
910.454	14667
910.57	14530
910.685	14560
910.8	14815
910.915	14670
911.03	14693
911.145	14541
911.259	14427
911.374	14381
911.489	14320
911.604	14355
911.718	14187
911.833	14172
911.947	14168
912.062	14005
912.176	14134
912.291	14218
912.405	14233
912.519	14332
912.633	14324
912.748	14343
912.862	14263
912.976	14115
913.09	14031
913.204	14058
913.318	14149
913.431	14149
913.545	14195
913.659	14164
913.772	14096
913.886	13940
914	13909
914.113	14119
914.226	13997
914.34	13974
914.453	13753
914.566	13986
914.68	13906
914.793	13811
914.906	13567
915.019	13472
915.132	13563
915.245	13567
915.358	13620
915.47	13525
915.583	13586
915.696	13533
915.809	13639
915.921	13655
916.034	13590
916.146	13495
916.259	13441
916.371	13540
916.483	13651
916.595	13472
916.708	13567
916.82	13563
916.932	13411
917.044	13453
917.156	13419
917.268	13362
917.38	13320
917.491	13247
917.603	13304
917.715	13362
917.826	13400
917.938	13289
918.049	13114
918.161	13312
918.272	13373
918.384	13453
918.495	13312
918.606	13156
918.717	12993
918.828	13084
918.939	13145
919.05	13000
919.161	13133
919.272	12981
919.383	12970
919.494	13149
919.604	13346
919.715	13141
919.826	12954
919.936	13129
920.047	13171
920.157	13202
920.267	13289
920.378	13065
920.488	13046
920.598	13247
920.708	13449
920.818	13202
920.928	13187
921.038	13457
921.148	13365
921.258	13031
921.368	13015
921.477	12897
921.587	12829
921.697	12734
921.806	12909
921.916	12776
922.025	12662
922.134	12544
922.244	12490
922.353	12525
922.462	12494
922.571	12262
922.68	12205
922.789	12251
922.898	12243
923.007	12163
923.116	12251
923.224	12258
923.333	12110
923.442	12079
923.55	12079
923.659	12041
923.767	12095
923.876	11984
923.984	12068
924.092	11920
924.201	11996
924.309	11916
924.417	11950
924.525	11836
924.633	11916
924.741	12920
924.849	11710
924.956	11885
925.064	11748
925.172	11665
925.279	11592
925.387	11691
925.494	11676
925.602	11901
925.709	11684
925.816	11566
925.924	11649
926.031	11752
926.138	11646
926.245	11680
926.352	11551
926.459	11733
926.566	11726
926.673	11577
926.779	11505
926.886	11482
926.993	11254
927.099	11246
927.206	11239
927.312	11208
927.419	11296
927.525	11315
927.631	11353
927.737	11166
927.843	11098
927.95	11018
928.056	11083
928.162	11090
928.267	11185
928.373	11783
928.479	11159
928.585	10946
928.69	11075
928.796	11166
928.901	11071
929.007	10809
929.112	10949
929.218	10900
929.323	10946
929.428	10862
929.533	11003
929.638	10774
929.743	10801
929.848	10873
929.953	10877
930.058	10660
930.163	10546
930.267	10588
930.372	10714
930.477	10432
930.581	10755
930.685	10554
930.79	10527
930.894	10485
930.998	10386
931.103	10588
931.207	10238
931.311	10093
931.415	10131
931.519	9915
931.623	9854
