Data from test_V78500241_556.txt Node
Date: Fri Mar 25 15:45:39 CST 2022
User: usil
Spectrometer: V785-0024
Trigger mode: 0
Integration Time (sec): 4.000000E-1
Scans to average: 1
Nonlinearity correction enabled: false
Boxcar width: 0
Storing dark spectrum: false
XAxis mode: Wavelengths
Number of Pixels in Spectrum: 1024
>>>>>Begin Spectral Data<<<<<
801.071	27412
801.214	27344
801.356	27070
801.499	26975
801.641	26849
801.783	26929
801.926	26986
802.068	26906
802.211	26811
802.353	26746
802.496	26564
802.638	26602
802.78	26503
802.923	26602
803.065	26320
803.208	26606
803.35	26541
803.492	26575
803.635	26864
803.777	26560
803.919	26705
804.061	26971
804.204	26735
804.346	26613
804.488	26625
804.63	26701
804.773	26537
804.915	26762
805.057	26800
805.199	26682
805.341	26693
805.483	26883
805.626	26849
805.768	26800
805.91	26952
806.052	26765
806.194	26686
806.336	26990
806.478	26940
806.62	26826
806.762	26948
806.904	27070
807.046	27226
807.188	27313
807.33	27302
807.472	27306
807.614	27245
807.756	27184
807.898	27207
808.04	27089
808.182	26933
808.324	27123
808.465	27199
808.607	27294
808.749	27370
808.891	27473
809.033	27736
809.174	27481
809.316	27363
809.458	27439
809.6	27534
809.741	27603
809.883	27610
810.025	27732
810.166	27614
810.308	27751
810.45	27663
810.591	27652
810.733	27427
810.875	27454
811.016	27310
811.158	27378
811.299	27549
811.441	27545
811.582	27686
811.724	27439
811.865	27386
812.007	27321
812.148	27359
812.29	27523
812.431	27637
812.573	27606
812.714	27846
812.855	28051
812.997	28131
813.138	28128
813.279	28082
813.421	28006
813.562	27865
813.703	27728
813.845	27599
813.986	27420
814.127	27157
814.268	27085
814.41	27017
814.551	27055
814.692	27154
814.833	27188
814.974	27047
815.115	27256
815.256	27009
815.397	26990
815.539	27020
815.68	26891
815.821	26929
815.962	26899
816.103	26986
816.244	26678
816.385	26655
816.526	26598
816.666	26537
816.807	26404
816.948	26377
817.089	26442
817.23	26400
817.371	26419
817.512	26355
817.653	26492
817.793	26237
817.934	26252
818.075	26218
818.216	26267
818.356	26298
818.497	26218
818.638	25940
818.778	26168
818.919	26073
819.06	25974
819.2	26096
819.341	26286
819.481	26324
819.622	26434
819.762	26629
819.903	26644
820.043	26598
820.184	26415
820.324	26492
820.465	26549
820.605	26503
820.746	26434
820.886	26381
821.026	26358
821.167	26469
821.307	26492
821.447	26286
821.588	26240
821.728	26248
821.868	25966
822.008	25822
822.149	25799
822.289	25772
822.429	25575
822.569	25464
822.709	25464
822.849	25202
822.99	25343
823.13	25350
823.27	25263
823.41	25190
823.55	24970
823.69	25080
823.83	25038
823.97	25038
824.11	24992
824.25	24875
824.389	25053
824.529	24943
824.669	24932
824.809	25015
824.949	24928
825.089	25160
825.228	24973
825.368	24757
825.508	24802
825.648	24878
825.787	24935
825.927	24783
826.067	24741
826.206	24814
826.346	24798
826.485	24760
826.625	24768
826.765	24875
826.904	24749
827.044	24627
827.183	24635
827.323	24502
827.462	24631
827.601	24494
827.741	24513
827.88	24551
828.02	24437
828.159	24551
828.298	24574
828.437	24513
828.577	24410
828.716	24661
828.855	24426
828.994	24232
829.134	24270
829.273	24201
829.412	24308
829.551	24079
829.69	24216
829.829	24228
829.968	24254
830.107	24448
830.246	24068
830.385	24197
830.524	24087
830.663	24174
830.802	23813
830.941	23946
831.08	23760
831.219	23931
831.357	23916
831.496	23954
831.635	23783
831.774	23779
831.913	23646
832.051	23604
832.19	23581
832.329	23524
832.467	23581
832.606	23452
832.744	23440
832.883	23452
833.022	23528
833.16	23512
833.299	23535
833.437	23539
833.576	23672
833.714	23539
833.852	23551
833.991	23493
834.129	23611
834.267	23695
834.406	23570
834.544	23452
834.682	23577
834.821	23528
834.959	23703
835.097	23551
835.235	23512
835.373	23395
835.511	23509
835.65	23414
835.788	23364
835.926	23330
836.064	23246
836.202	23258
836.34	23398
836.478	23467
836.615	23379
836.753	23360
836.891	23429
837.029	23421
837.167	23387
837.305	23239
837.443	23094
837.58	23117
837.718	23208
837.856	23360
837.993	23166
838.131	23162
838.269	23067
838.406	23071
838.544	22991
838.681	22919
838.819	22847
838.956	22664
839.094	22683
839.231	22797
839.369	22828
839.506	23227
839.643	23006
839.781	22774
839.918	22668
840.055	22683
840.193	22675
840.33	22687
840.467	22862
840.604	22721
840.742	23010
840.879	22508
841.016	22535
841.153	22508
841.29	22858
841.427	22542
841.564	22763
841.701	22622
841.838	22436
841.975	22413
842.112	22630
842.249	22421
842.385	22474
842.522	22622
842.659	22424
842.796	22409
842.933	22303
843.069	22329
843.206	22417
843.343	22329
843.479	22276
843.616	22329
843.752	22147
843.889	22097
844.025	22215
844.162	21998
844.298	22128
844.435	22070
844.571	22207
844.708	22299
844.844	22379
844.98	22226
845.117	22265
845.253	22109
845.389	21983
845.525	22177
845.661	22040
845.798	21819
845.934	22002
846.07	21953
846.206	22021
846.342	22051
846.478	21819
846.614	21660
846.75	21576
846.886	21587
847.022	21759
847.158	21572
847.294	21679
847.429	21686
847.565	21606
847.701	21926
847.837	21405
847.972	21351
848.108	21507
848.244	21420
848.379	21348
848.515	21226
848.65	21199
848.786	21165
848.921	21260
849.057	21359
849.192	21108
849.328	21310
849.463	21241
849.598	21272
849.734	21096
849.869	21017
850.004	20994
850.14	21005
850.275	20986
850.41	20933
850.545	20906
850.68	20929
850.815	21020
850.95	21009
851.085	21245
851.22	21135
851.355	20963
851.49	20899
851.625	21108
851.76	21005
851.895	20887
852.03	20929
852.165	20990
852.299	20990
852.434	21039
852.569	20895
852.703	20963
852.838	21074
852.973	20960
853.107	21074
853.242	20933
853.376	20777
853.511	20743
853.645	20796
853.78	20872
853.914	20819
854.048	20697
854.183	20834
854.317	20762
854.451	20990
854.585	20857
854.72	20842
854.854	20883
854.988	20716
855.122	20815
855.256	20625
855.39	20720
855.524	20857
855.658	20796
855.792	20773
855.926	20838
856.06	20883
856.194	20746
856.327	20830
856.461	20720
856.595	20769
856.729	20530
856.862	21005
856.996	20800
857.13	20891
857.263	20906
857.397	20876
857.53	20948
857.664	20781
857.797	20899
857.931	21001
858.064	20948
858.197	20963
858.331	20849
858.464	20758
858.597	20724
858.731	20693
858.864	20765
858.997	20838
859.13	20918
859.263	20804
859.396	21028
859.529	20792
859.662	20838
859.795	20644
859.928	20788
860.061	21043
860.194	20975
860.327	20944
860.46	20716
860.592	20986
860.725	21020
860.858	20933
860.99	20883
861.123	20735
861.256	20815
861.388	20876
861.521	21447
861.653	20686
861.786	20655
861.918	20564
862.05	20625
862.183	20743
862.315	20720
862.447	20830
862.58	20765
862.712	20537
862.844	20533
862.976	20625
863.108	20590
863.24	20975
863.372	20514
863.504	20564
863.636	20526
863.768	20636
863.9	20568
864.032	20469
864.164	20579
864.296	20556
864.428	20606
864.559	20644
864.691	20701
864.823	20636
864.954	20621
865.086	20606
865.217	20469
865.349	20434
865.48	20533
865.612	20465
865.743	20617
865.875	20484
866.006	20480
866.137	20332
866.269	20461
866.4	20454
866.531	20313
866.662	20396
866.793	20355
866.924	20415
867.055	20488
867.186	20377
867.317	20336
867.448	20355
867.579	20461
867.71	20286
867.841	20286
867.972	20328
868.103	20404
868.233	20419
868.364	20400
868.495	20590
868.625	20594
868.756	20769
868.886	20556
869.017	20682
869.147	20807
869.278	20769
869.408	20735
869.539	20701
869.669	20720
869.799	20708
869.929	20864
870.06	20849
870.19	21036
870.32	20872
870.45	20887
870.58	20998
870.71	21146
870.84	21116
870.97	21062
871.1	21047
871.23	21169
871.36	21348
871.489	21230
871.619	21233
871.749	21245
871.879	21291
872.008	21348
872.138	21188
872.267	21226
872.397	21058
872.526	21020
872.656	20960
872.785	21020
872.915	21317
873.044	21462
873.173	21359
873.303	21245
873.432	21287
873.561	21382
873.69	21370
873.819	21211
873.948	21260
874.077	21439
874.206	21222
874.335	21313
874.464	21325
874.593	21454
874.722	21454
874.851	21561
874.979	21538
875.108	21603
875.237	21405
875.365	21401
875.494	21507
875.623	21481
875.751	21488
875.88	21618
876.008	21614
876.136	21736
876.265	21869
876.393	21983
876.521	21983
876.65	21895
876.778	21865
876.906	21781
877.034	21800
877.162	21854
877.29	21812
877.418	21770
877.546	21827
877.674	21804
877.802	21793
877.93	21945
878.058	21755
878.185	21698
878.313	21873
878.441	21880
878.568	21739
878.696	21778
878.824	21724
878.951	21918
879.079	22070
879.206	22226
879.333	22093
879.461	21899
879.588	21930
879.715	21892
879.842	21953
879.97	22040
880.097	21618
880.224	21713
880.351	21652
880.478	21614
880.605	21713
880.732	21671
880.859	21968
880.986	21663
881.112	21728
881.239	21595
881.366	21332
881.493	21287
881.619	21370
881.746	21325
881.872	21222
881.999	21283
882.125	21176
882.252	21222
882.378	21108
882.505	21378
882.631	21070
882.757	20864
882.883	21005
883.01	20956
883.136	20887
883.262	20872
883.388	20796
883.514	21001
883.64	21036
883.766	20899
883.892	20746
884.018	20762
884.143	20876
884.269	20963
884.395	20739
884.52	20746
884.646	20609
884.772	20648
884.897	20431
885.023	20659
885.148	20689
885.274	20632
885.399	20682
885.524	20590
885.65	20571
885.775	20575
885.9	20655
886.025	20819
886.15	20674
886.275	20629
886.4	20415
886.525	20499
886.65	20503
886.775	20552
886.9	20598
887.025	20838
887.149	20579
887.274	20530
887.399	20480
887.523	20518
887.648	20362
887.773	20393
887.897	20514
888.021	20309
888.146	20286
888.27	20461
888.395	20473
888.519	20423
888.643	20514
888.767	20415
888.891	20309
889.015	20221
889.139	20206
889.263	20103
889.387	20229
889.511	20347
889.635	20210
889.759	20176
889.883	20100
890.006	20218
890.13	20267
890.254	20096
890.377	20100
890.501	19989
890.624	19849
890.748	20024
890.871	19902
890.995	19685
891.118	19605
891.241	19712
891.364	19719
891.488	19921
891.611	19734
891.734	19734
891.857	19803
891.98	19746
892.103	19887
892.226	19734
892.349	19708
892.471	19495
892.594	19639
892.717	19655
892.839	19643
892.962	19590
893.085	19761
893.207	19635
893.33	19441
893.452	19487
893.575	19647
893.697	19620
893.819	19875
893.941	19864
894.064	19772
894.186	19563
894.308	19620
894.43	19795
894.552	19814
894.674	19753
894.796	19559
894.918	19727
895.04	19544
895.161	19811
895.283	19674
895.405	19613
895.526	19670
895.648	19609
895.769	19643
895.891	19662
896.012	19712
896.134	19791
896.255	19609
896.376	19666
896.498	19803
896.619	19734
896.74	19677
896.861	19693
896.982	20016
897.103	20161
897.224	19951
897.345	19967
897.466	19864
897.587	19875
897.708	20050
897.828	19913
897.949	19875
898.07	19674
898.19	19883
898.311	20077
898.431	19833
898.552	20005
898.672	19997
898.792	20069
898.913	19921
899.033	19826
899.153	19780
899.273	19578
899.393	19681
899.513	19674
899.633	19719
899.753	19578
899.873	19540
899.993	19750
900.113	19635
900.232	19628
900.352	19544
900.472	19499
900.591	19495
900.711	19499
900.83	19438
900.95	19487
901.069	19540
901.189	19407
901.308	19190
901.427	19076
901.546	19034
901.665	19088
901.784	18985
901.904	18943
902.023	18890
902.141	18654
902.26	18540
902.379	18753
902.498	18475
902.617	18426
902.735	18589
902.854	18578
902.973	18429
903.091	18266
903.21	18243
903.328	18262
903.446	18125
903.565	18034
903.683	18186
903.801	17977
903.919	17958
904.038	17927
904.156	17885
904.274	17897
904.392	17798
904.51	17760
904.627	17737
904.745	17855
904.863	17722
904.981	17501
905.098	17417
905.216	17490
905.334	17532
905.451	17596
905.569	17376
905.686	17524
905.803	17547
905.921	17334
906.038	17383
906.155	17280
906.272	17239
906.389	17181
906.506	16991
906.623	17025
906.74	17018
906.857	16961
906.974	16957
907.091	17124
907.208	17159
907.324	17025
907.441	16869
907.557	16820
907.674	16755
907.79	16691
907.907	16698
908.023	16755
908.139	16862
908.256	16683
908.372	16618
908.488	16615
908.604	16569
908.72	16424
908.836	16485
908.952	16413
909.068	16386
909.184	16618
909.3	16390
909.415	16497
909.531	16341
909.647	16211
909.762	16230
909.878	16124
909.993	16204
910.108	16124
910.224	16131
910.339	16196
910.454	15975
910.57	16017
910.685	15926
910.8	16219
910.915	16185
911.03	15991
911.145	15842
911.259	15732
911.374	15736
911.489	15637
911.604	15572
911.718	15473
911.833	15553
911.947	15393
912.062	15443
912.176	15507
912.291	15606
912.405	15553
912.519	15739
912.633	15675
912.748	15530
912.862	15534
912.976	15397
913.09	15203
913.204	15351
913.318	15382
913.431	15485
913.545	15428
913.659	15488
913.772	15310
913.886	15157
914	15157
914.113	15150
914.226	15264
914.34	15256
914.453	14952
914.566	15165
914.68	15123
914.793	15005
914.906	14842
915.019	14788
915.132	14705
915.245	14823
915.358	14785
915.47	14773
915.583	14800
915.696	14746
915.809	14891
915.921	14925
916.034	14693
916.146	14659
916.259	14720
916.371	14697
916.483	14720
916.595	14571
916.708	14659
916.82	14625
916.932	14590
917.044	14530
917.156	14533
917.268	14541
917.38	14362
917.491	14400
917.603	14434
917.715	14492
917.826	14469
917.938	14393
918.049	14290
918.161	14362
918.272	14499
918.384	14533
918.495	14366
918.606	14263
918.717	14145
918.828	14244
918.939	14225
919.05	14119
919.161	14206
919.272	13970
919.383	14035
919.494	14256
919.604	14446
919.715	14145
919.826	14073
919.936	14191
920.047	14286
920.157	14218
920.267	14347
920.378	14191
920.488	14096
920.598	14294
920.708	14522
920.818	14305
920.928	14347
921.038	14408
921.148	14434
921.258	14115
921.368	14046
921.477	13936
921.587	13879
921.697	13799
921.806	13906
921.916	13761
922.025	13719
922.134	13590
922.244	13491
922.353	13601
922.462	13472
922.571	13388
922.68	13304
922.789	13145
922.898	13194
923.007	13202
923.116	13270
923.224	13312
923.333	13175
923.442	13046
923.55	13004
923.659	13091
923.767	13141
923.876	12951
923.984	13156
924.092	12954
924.201	13000
924.309	12924
924.417	12970
924.525	12867
924.633	12913
924.741	13917
924.849	12646
924.956	12821
925.064	12726
925.172	12475
925.279	12677
925.387	12578
925.494	12719
925.602	12730
925.709	12719
925.816	12528
925.924	12589
926.031	12783
926.138	12654
926.245	12582
926.352	12498
926.459	12692
926.566	12684
926.673	12563
926.779	12346
926.886	12475
926.993	12315
927.099	12235
927.206	12186
927.312	12213
927.419	12334
927.525	12216
927.631	12353
927.737	12117
927.843	12148
927.95	11946
928.056	12098
928.162	12049
928.267	12102
928.373	12711
928.479	12175
928.585	11893
928.69	12133
928.796	12098
928.901	11939
929.007	11813
929.112	11942
929.218	11885
929.323	11855
929.428	11752
929.533	12011
929.638	11809
929.743	11775
929.848	11920
929.953	11726
930.058	11676
930.163	11455
930.267	11554
930.372	11722
930.477	11539
930.581	11756
930.685	11676
930.79	11433
930.894	11417
930.998	11570
931.103	11482
931.207	11197
931.311	11083
931.415	11003
931.519	10805
931.623	10782
