Data from test_V78500241_642.txt Node
Date: Fri Mar 25 15:46:14 CST 2022
User: usil
Spectrometer: V785-0024
Trigger mode: 0
Integration Time (sec): 4.000000E-1
Scans to average: 1
Nonlinearity correction enabled: false
Boxcar width: 0
Storing dark spectrum: false
XAxis mode: Wavelengths
Number of Pixels in Spectrum: 1024
>>>>>Begin Spectral Data<<<<<
801.071	27469
801.214	27530
801.356	27408
801.499	27192
801.641	27036
801.783	27119
801.926	27195
802.068	26990
802.211	26925
802.353	26891
802.496	26830
802.638	26716
802.78	26693
802.923	26765
803.065	26560
803.208	26507
803.35	26807
803.492	26800
803.635	26823
803.777	26674
803.919	26929
804.061	27116
804.204	26902
804.346	26785
804.488	26762
804.63	26785
804.773	26765
804.915	26872
805.057	27036
805.199	26861
805.341	26990
805.483	27066
805.626	26899
805.768	26921
805.91	26914
806.052	27051
806.194	26940
806.336	27085
806.478	27043
806.62	27058
806.762	26975
806.904	27264
807.046	27370
807.188	27336
807.33	27401
807.472	27420
807.614	27416
807.756	27275
807.898	27245
808.04	27226
808.182	27203
808.324	27154
808.465	27283
808.607	27321
808.749	27534
808.891	27656
809.033	27781
809.174	27743
809.316	27583
809.458	27705
809.6	27705
809.741	27743
809.883	27819
810.025	27892
810.166	27953
810.308	27964
810.45	27854
810.591	27774
810.733	27519
810.875	27564
811.016	27599
811.158	27477
811.299	27694
811.441	27774
811.582	27622
811.724	27412
811.865	27580
812.007	27530
812.148	27557
812.29	27610
812.431	27778
812.573	27983
812.714	28082
812.855	28029
812.997	28253
813.138	28379
813.279	28284
813.421	28177
813.562	28128
813.703	28002
813.845	27819
813.986	27500
814.127	27351
814.268	27272
814.41	27336
814.551	27077
814.692	27298
814.833	27230
814.974	27298
815.115	27233
815.256	27100
815.397	27058
815.539	27154
815.68	27135
815.821	27081
815.962	27020
816.103	27116
816.244	26864
816.385	26918
816.526	26792
816.666	26777
816.807	26644
816.948	26571
817.089	26689
817.23	26579
817.371	26594
817.512	26640
817.653	26427
817.793	26499
817.934	26568
818.075	26609
818.216	26530
818.356	26518
818.497	26377
818.638	26317
818.778	26286
818.919	26286
819.06	26484
819.2	26419
819.341	26560
819.481	26518
819.622	26765
819.762	26872
819.903	26823
820.043	26792
820.184	26636
820.324	26560
820.465	26648
820.605	26724
820.746	26571
820.886	26492
821.026	26750
821.167	26609
821.307	26762
821.447	26579
821.588	26396
821.728	26332
821.868	26035
822.008	26016
822.149	26020
822.289	26062
822.429	25799
822.569	25597
822.709	25677
822.849	25510
822.99	25548
823.13	25479
823.27	25464
823.41	25320
823.55	25297
823.69	25377
823.83	25354
823.97	25244
824.11	25061
824.25	25194
824.389	25145
824.529	25202
824.669	25206
824.809	25422
824.949	25259
825.089	25118
825.228	25225
825.368	24924
825.508	25091
825.648	25088
825.787	24985
825.927	25194
826.067	25008
826.206	24943
826.346	25053
826.485	25103
826.625	25038
826.765	25187
826.904	25156
827.044	24806
827.183	24779
827.323	24684
827.462	24772
827.601	24681
827.741	24719
827.88	24791
828.02	24658
828.159	24658
828.298	24593
828.437	24757
828.577	24749
828.716	24749
828.855	24616
828.994	24388
829.134	24445
829.273	24589
829.412	24357
829.551	24228
829.69	24403
829.829	24426
829.968	24540
830.107	24566
830.246	24372
830.385	24395
830.524	24228
830.663	24232
830.802	24106
830.941	24053
831.08	23988
831.219	23927
831.357	24045
831.496	24232
831.635	23996
831.774	23836
831.913	23901
832.051	23783
832.19	23805
832.329	23843
832.467	23691
832.606	23581
832.744	23737
832.883	23760
833.022	23570
833.16	23790
833.299	23691
833.437	23733
833.576	23752
833.714	23771
833.852	23760
833.991	23779
834.129	23851
834.267	23843
834.406	23855
834.544	23802
834.682	23741
834.821	23726
834.959	23939
835.097	23600
835.235	23828
835.373	23786
835.511	23760
835.65	23665
835.788	23611
835.926	23539
836.064	23383
836.202	23436
836.34	23592
836.478	23619
836.615	23493
836.753	23581
836.891	23623
837.029	23630
837.167	23535
837.305	23566
837.443	23543
837.58	23459
837.718	23497
837.856	23486
837.993	23406
838.131	23417
838.269	23326
838.406	23368
838.544	23170
838.681	23025
838.819	23075
838.956	22930
839.094	22957
839.231	22984
839.369	23022
839.506	23341
839.643	23090
839.781	22892
839.918	22949
840.055	22930
840.193	22812
840.33	22812
840.467	22831
840.604	22850
840.742	23124
840.879	22725
841.016	22721
841.153	22721
841.29	22942
841.427	22778
841.564	22877
841.701	22858
841.838	22702
841.975	22771
842.112	22672
842.249	22702
842.385	22717
842.522	22828
842.659	22694
842.796	22527
842.933	22554
843.069	22626
843.206	22554
843.343	22599
843.479	22672
843.616	22527
843.752	22432
843.889	22318
844.025	22466
844.162	22348
844.298	22500
844.435	22280
844.571	22291
844.708	22386
844.844	22481
844.98	22485
845.117	22352
845.253	22371
845.389	22230
845.525	22154
845.661	22272
845.798	22215
845.934	22158
846.07	22002
846.206	22185
846.342	22287
846.478	22017
846.614	22013
846.75	21770
846.886	21835
847.022	21953
847.158	21793
847.294	21816
847.429	21888
847.565	21869
847.701	22055
847.837	21625
847.972	21515
848.108	21675
848.244	21618
848.379	21492
848.515	21466
848.65	21351
848.786	21382
848.921	21412
849.057	21447
849.192	21496
849.328	21523
849.463	21370
849.598	21249
849.734	21306
849.869	21348
850.004	21241
850.14	21199
850.275	21150
850.41	21116
850.545	21127
850.68	21199
850.815	21173
850.95	21127
851.085	21317
851.22	21306
851.355	21157
851.49	21161
851.625	21218
851.76	21112
851.895	21104
852.03	21081
852.165	21165
852.299	21241
852.434	21245
852.569	21233
852.703	21256
852.838	21222
852.973	21348
853.107	21226
853.242	21081
853.376	20967
853.511	20883
853.645	20956
853.78	21093
853.914	21085
854.048	20956
854.183	21032
854.317	21017
854.451	21127
854.585	21013
854.72	21028
854.854	21123
854.988	21039
855.122	20994
855.256	20781
855.39	20925
855.524	21001
855.658	21062
855.792	21085
855.926	20963
856.06	20948
856.194	21036
856.327	21039
856.461	20944
856.595	20975
856.729	20918
856.862	21085
856.996	21074
857.13	21074
857.263	21081
857.397	21138
857.53	20941
857.664	21043
857.797	20998
857.931	21135
858.064	21013
858.197	21146
858.331	20963
858.464	20925
858.597	20937
858.731	20944
858.864	21001
858.997	20933
859.13	21028
859.263	21020
859.396	20960
859.529	20925
859.662	20960
859.795	20960
859.928	20982
860.061	21241
860.194	21154
860.327	21017
860.46	20998
860.592	21089
860.725	21165
860.858	21100
860.99	21051
861.123	21051
861.256	20967
861.388	20971
861.521	21523
861.653	20925
861.786	20807
861.918	20853
862.05	20765
862.183	20880
862.315	20933
862.447	20941
862.58	20910
862.712	20743
862.844	20834
862.976	20758
863.108	20823
863.24	21089
863.372	20613
863.504	20773
863.636	20648
863.768	20777
863.9	20796
864.032	20651
864.164	20644
864.296	20788
864.428	20804
864.559	20758
864.691	20853
864.823	20613
864.954	20708
865.086	20716
865.217	20644
865.349	20697
865.48	20689
865.612	20689
865.743	20788
865.875	20682
866.006	20598
866.137	20545
866.269	20575
866.4	20495
866.531	20393
866.662	20488
866.793	20533
866.924	20518
867.055	20526
867.186	20663
867.317	20476
867.448	20393
867.579	20457
867.71	20431
867.841	20499
867.972	20522
868.103	20587
868.233	20659
868.364	20522
868.495	20644
868.625	20777
868.756	20963
868.886	20800
869.017	20701
869.147	20876
869.278	20990
869.408	20735
869.539	20746
869.669	20906
869.799	20857
869.929	20876
870.06	20941
870.19	21142
870.32	21203
870.45	21112
870.58	21302
870.71	21245
870.84	21279
870.97	21138
871.1	21180
871.23	21294
871.36	21310
871.489	21249
871.619	21408
871.749	21367
871.879	21348
872.008	21393
872.138	21351
872.267	21389
872.397	21298
872.526	21173
872.656	21222
872.785	21268
872.915	21431
873.044	21386
873.173	21424
873.303	21424
873.432	21454
873.561	21367
873.69	21435
873.819	21488
873.948	21458
874.077	21359
874.206	21447
874.335	21420
874.464	21473
874.593	21720
874.722	21660
874.851	21682
874.979	21713
875.108	21587
875.237	21572
875.365	21530
875.494	21466
875.623	21660
875.751	21599
875.88	21759
876.008	21728
876.136	21873
876.265	22109
876.393	22162
876.521	22200
876.65	22032
876.778	22078
876.906	22040
877.034	21994
877.162	22070
877.29	21892
877.418	22032
877.546	22063
877.674	21953
877.802	22021
877.93	22013
878.058	21968
878.185	21903
878.313	21884
878.441	21949
878.568	21892
878.696	21907
878.824	22006
878.951	22093
879.079	22280
879.206	22314
879.333	22188
879.461	22029
879.588	22150
879.715	22158
879.842	22291
879.97	22048
880.097	21835
880.224	21808
880.351	21774
880.478	21922
880.605	21831
880.732	21713
880.859	22036
880.986	21953
881.112	21915
881.239	21675
881.366	21523
881.493	21504
881.619	21348
881.746	21530
881.872	21447
881.999	21378
882.125	21355
882.252	21428
882.378	21370
882.505	21443
882.631	21252
882.757	21150
882.883	21317
883.01	21275
883.136	21180
883.262	20929
883.388	20918
883.514	21150
883.64	21138
883.766	21062
883.892	20819
884.018	20948
884.143	20986
884.269	21043
884.395	20842
884.52	20838
884.646	20765
884.772	20750
884.897	20583
885.023	20716
885.148	20845
885.274	20925
885.399	20826
885.524	20800
885.65	20773
885.775	20785
885.9	20724
886.025	20876
886.15	20853
886.275	20750
886.4	20594
886.525	20739
886.65	20727
886.775	20716
886.9	20910
887.025	20891
887.149	20705
887.274	20530
887.399	20522
887.523	20609
887.648	20511
887.773	20408
887.897	20613
888.021	20617
888.146	20332
888.27	20678
888.395	20552
888.519	20495
888.643	20526
888.767	20575
888.891	20495
889.015	20305
889.139	20377
889.263	20366
889.387	20507
889.511	20438
889.635	20480
889.759	20347
889.883	20199
890.006	20434
890.13	20374
890.254	20244
890.377	20267
890.501	20100
890.624	19986
890.748	20206
890.871	19978
890.995	19845
891.118	19830
891.241	19807
891.364	20069
891.488	20005
891.611	19917
891.734	19959
891.857	19955
891.98	19974
892.103	19917
892.226	19963
892.349	19887
892.471	19594
892.594	19788
892.717	19769
892.839	19742
892.962	19906
893.085	19928
893.207	19826
893.33	19662
893.452	19753
893.575	19909
893.697	19753
893.819	19894
893.941	20046
894.064	19788
894.186	19757
894.308	19708
894.43	19814
894.552	19925
894.674	19894
894.796	19765
894.918	19677
895.04	19731
895.161	19959
895.283	19833
895.405	19734
895.526	19822
895.648	19708
895.769	19803
895.891	19818
896.012	19959
896.134	19845
896.255	19841
896.376	19765
896.498	19822
896.619	19913
896.74	19856
896.861	19849
896.982	20195
897.103	20332
897.224	20115
897.345	20122
897.466	19974
897.587	19970
897.708	20115
897.828	20161
897.949	19909
898.07	19913
898.19	19978
898.311	20020
898.431	19947
898.552	19970
898.672	20149
898.792	20107
898.913	20088
899.033	19921
899.153	19864
899.273	19761
899.393	19803
899.513	19833
899.633	19772
899.753	19738
899.873	19719
899.993	19795
900.113	19734
900.232	19780
900.352	19715
900.472	19632
900.591	19506
900.711	19624
900.83	19548
900.95	19658
901.069	19674
901.189	19525
901.308	19217
901.427	19103
901.546	19145
901.665	19145
901.784	19194
901.904	19027
902.023	18920
902.141	18787
902.26	18730
902.379	18821
902.498	18776
902.617	18563
902.735	18798
902.854	18711
902.973	18601
903.091	18467
903.21	18289
903.328	18311
903.446	18273
903.565	18167
903.683	18091
903.801	18026
903.919	18197
904.038	18060
904.156	17840
904.274	17977
904.392	17996
904.51	18034
904.627	17912
904.745	18015
904.863	17931
904.981	17752
905.098	17668
905.216	17589
905.334	17695
905.451	17668
905.569	17509
905.686	17665
905.803	17573
905.921	17478
906.038	17467
906.155	17425
906.272	17322
906.389	17273
906.506	17166
906.623	17200
906.74	17151
906.857	17022
906.974	17071
907.091	17193
907.208	17212
907.324	17124
907.441	16980
907.557	16828
907.674	16889
907.79	16778
907.907	16824
908.023	16847
908.139	16881
908.256	16816
908.372	16706
908.488	16740
908.604	16546
908.72	16637
908.836	16637
908.952	16538
909.068	16660
909.184	16660
909.3	16634
909.415	16752
909.531	16550
909.647	16371
909.762	16394
909.878	16265
909.993	16322
910.108	16341
910.224	16169
910.339	16257
910.454	16177
910.57	16112
910.685	16105
910.8	16344
910.915	16367
911.03	16105
911.145	15987
911.259	15854
911.374	16010
911.489	15831
911.604	15789
911.718	15595
911.833	15595
911.947	15576
912.062	15462
912.176	15667
912.291	15705
912.405	15644
912.519	15804
912.633	15899
912.748	15690
912.862	15663
912.976	15473
913.09	15325
913.204	15458
913.318	15454
913.431	15591
913.545	15561
913.659	15625
913.772	15367
913.886	15279
914	15264
914.113	15348
914.226	15389
914.34	15294
914.453	15097
914.566	15325
914.68	15119
914.793	15116
914.906	14944
915.019	14895
915.132	14781
915.245	14952
915.358	14979
915.47	14887
915.583	14887
915.696	14914
915.809	15028
915.921	15051
916.034	14758
916.146	14830
916.259	14727
916.371	14838
916.483	14667
916.595	14788
916.708	14693
916.82	14739
916.932	14724
917.044	14678
917.156	14674
917.268	14484
917.38	14514
917.491	14480
917.603	14571
917.715	14518
917.826	14598
917.938	14503
918.049	14271
918.161	14473
918.272	14648
918.384	14663
918.495	14503
918.606	14290
918.717	14320
918.828	14332
918.939	14355
919.05	14240
919.161	14313
919.272	14119
919.383	14278
919.494	14351
919.604	14541
919.715	14278
919.826	14199
919.936	14210
920.047	14332
920.157	14256
920.267	14408
920.378	14301
920.488	14183
920.598	14488
920.708	14518
920.818	14503
920.928	14328
921.038	14625
921.148	14537
921.258	14187
921.368	14073
921.477	13967
921.587	14031
921.697	13932
921.806	13997
921.916	13860
922.025	13666
922.134	13696
922.244	13643
922.353	13670
922.462	13674
922.571	13529
922.68	13411
922.789	13282
922.898	13244
923.007	13266
923.116	13373
923.224	13324
923.333	13274
923.442	13141
923.55	13194
923.659	13133
923.767	13103
923.876	13072
923.984	13034
924.092	13091
924.201	13008
924.309	13027
924.417	13050
924.525	12924
924.633	13015
924.741	13746
924.849	12817
924.956	12951
925.064	12779
925.172	12681
925.279	12734
925.387	12677
925.494	12730
925.602	12916
925.709	12703
925.816	12597
925.924	12703
926.031	12798
926.138	12646
926.245	12711
926.352	12646
926.459	12726
926.566	12772
926.673	12642
926.779	12574
926.886	12456
926.993	12369
927.099	12319
927.206	12300
927.312	12209
927.419	12380
927.525	12289
927.631	12357
927.737	12209
927.843	12216
927.95	12068
928.056	12064
928.162	12155
928.267	12140
928.373	12844
928.479	12213
928.585	11992
928.69	12129
928.796	12030
928.901	11992
929.007	11916
929.112	12057
929.218	12003
929.323	11935
929.428	11901
929.533	12076
929.638	11821
929.743	11824
929.848	11874
929.953	11802
930.058	11741
930.163	11573
930.267	11600
930.372	11703
930.477	11512
930.581	11813
930.685	11627
930.79	11490
930.894	11467
930.998	11482
931.103	11615
931.207	11155
931.311	11208
931.415	11166
931.519	10820
931.623	10862
