Data from test_V78500241_594.txt Node
Date: Fri Mar 25 15:45:54 CST 2022
User: usil
Spectrometer: V785-0024
Trigger mode: 0
Integration Time (sec): 4.000000E-1
Scans to average: 1
Nonlinearity correction enabled: false
Boxcar width: 0
Storing dark spectrum: false
XAxis mode: Wavelengths
Number of Pixels in Spectrum: 1024
>>>>>Begin Spectral Data<<<<<
801.071	27561
801.214	27511
801.356	27226
801.499	27116
801.641	27085
801.783	27039
801.926	27077
802.068	27051
802.211	27020
802.353	26796
802.496	26857
802.638	26629
802.78	26682
802.923	26705
803.065	26568
803.208	26583
803.35	26724
803.492	26674
803.635	26830
803.777	26632
803.919	26667
804.061	27116
804.204	26826
804.346	26765
804.488	26754
804.63	26891
804.773	26636
804.915	26883
805.057	26940
805.199	26815
805.341	26979
805.483	26963
805.626	26883
805.768	26876
805.91	26914
806.052	27150
806.194	26815
806.336	27104
806.478	26948
806.62	26925
806.762	27180
806.904	27184
807.046	27462
807.188	27439
807.33	27294
807.472	27431
807.614	27283
807.756	27348
807.898	27264
808.04	27195
808.182	27013
808.324	27256
808.465	27245
808.607	27370
808.749	27625
808.891	27690
809.033	27918
809.174	27606
809.316	27606
809.458	27641
809.6	27526
809.741	27884
809.883	27720
810.025	27865
810.166	27717
810.308	27873
810.45	27800
810.591	27991
810.733	27629
810.875	27515
811.016	27583
811.158	27564
811.299	27644
811.441	27667
811.582	27785
811.724	27542
811.865	27549
812.007	27519
812.148	27504
812.29	27629
812.431	27720
812.573	27835
812.714	28032
812.855	28021
812.997	28181
813.138	28299
813.279	28257
813.421	28139
813.562	28044
813.703	27854
813.845	27751
813.986	27587
814.127	27298
814.268	27245
814.41	27298
814.551	27161
814.692	27222
814.833	27176
814.974	27230
815.115	27199
815.256	27157
815.397	27165
815.539	27028
815.68	27047
815.821	27001
815.962	27005
816.103	26944
816.244	26929
816.385	26872
816.526	26800
816.666	26693
816.807	26488
816.948	26625
817.089	26590
817.23	26552
817.371	26511
817.512	26518
817.653	26541
817.793	26488
817.934	26575
818.075	26514
818.216	26606
818.356	26575
818.497	26453
818.638	26389
818.778	26355
818.919	26244
819.06	26377
819.2	26210
819.341	26427
819.481	26476
819.622	26648
819.762	26769
819.903	26731
820.043	26667
820.184	26640
820.324	26587
820.465	26640
820.605	26682
820.746	26575
820.886	26511
821.026	26648
821.167	26575
821.307	26568
821.447	26442
821.588	26408
821.728	26275
821.868	26153
822.008	26073
822.149	25936
822.289	25841
822.429	25685
822.569	25597
822.709	25609
822.849	25548
822.99	25506
823.13	25392
823.27	25491
823.41	25156
823.55	25259
823.69	25350
823.83	25183
823.97	25133
824.11	25091
824.25	25133
824.389	25171
824.529	25095
824.669	25137
824.809	25228
824.949	25209
825.089	25152
825.228	25137
825.368	25031
825.508	24905
825.648	24966
825.787	24989
825.927	25080
826.067	25038
826.206	24985
826.346	24897
826.485	24958
826.625	24856
826.765	25148
826.904	24981
827.044	24669
827.183	24871
827.323	24620
827.462	24753
827.601	24772
827.741	24658
827.88	24711
828.02	24555
828.159	24608
828.298	24700
828.437	24730
828.577	24612
828.716	24772
828.855	24597
828.994	24334
829.134	24384
829.273	24509
829.412	24315
829.551	24471
829.69	24384
829.829	24467
829.968	24483
830.107	24334
830.246	24414
830.385	24384
830.524	24361
830.663	24190
830.802	24087
830.941	23939
831.08	23946
831.219	23988
831.357	24011
831.496	24213
831.635	24018
831.774	23946
831.913	23760
832.051	23817
832.19	23718
832.329	23821
832.467	23657
832.606	23687
832.744	23707
832.883	23615
833.022	23604
833.16	23726
833.299	23653
833.437	23691
833.576	23687
833.714	23805
833.852	23756
833.991	23668
834.129	23885
834.267	23794
834.406	23824
834.544	23752
834.682	23543
834.821	23703
834.959	23920
835.097	23634
835.235	23627
835.373	23737
835.511	23627
835.65	23570
835.788	23573
835.926	23387
836.064	23341
836.202	23474
836.34	23589
836.478	23691
836.615	23543
836.753	23554
836.891	23554
837.029	23573
837.167	23543
837.305	23551
837.443	23433
837.58	23372
837.718	23379
837.856	23379
837.993	23467
838.131	23341
838.269	23239
838.406	23235
838.544	23155
838.681	23018
838.819	23037
838.956	22896
839.094	22831
839.231	22919
839.369	23018
839.506	23239
839.643	23109
839.781	22797
839.918	22820
840.055	22862
840.193	22850
840.33	22786
840.467	22843
840.604	22911
840.742	23075
840.879	22706
841.016	22790
841.153	22736
841.29	22911
841.427	22778
841.564	22759
841.701	22786
841.838	22816
841.975	22729
842.112	22626
842.249	22584
842.385	22436
842.522	22736
842.659	22580
842.796	22478
842.933	22596
843.069	22386
843.206	22493
843.343	22626
843.479	22637
843.616	22497
843.752	22341
843.889	22443
844.025	22333
844.162	22291
844.298	22398
844.435	22306
844.571	22265
844.708	22417
844.844	22367
844.98	22421
845.117	22386
845.253	22249
845.389	22109
845.525	22284
845.661	22097
845.798	22006
845.934	22188
846.07	22120
846.206	21983
846.342	22196
846.478	22082
846.614	21808
846.75	21755
846.886	21675
847.022	21789
847.158	21789
847.294	21838
847.429	21911
847.565	21732
847.701	22097
847.837	21511
847.972	21466
848.108	21618
848.244	21534
848.379	21473
848.515	21317
848.65	21283
848.786	21317
848.921	21458
849.057	21443
849.192	21447
849.328	21443
849.463	21302
849.598	21298
849.734	21272
849.869	21195
850.004	21184
850.14	21214
850.275	21017
850.41	21157
850.545	21207
850.68	21039
850.815	21161
850.95	21062
851.085	21211
851.22	21211
851.355	21127
851.49	21119
851.625	20944
851.76	21093
851.895	21032
852.03	21112
852.165	21089
852.299	21214
852.434	21310
852.569	21226
852.703	21074
852.838	21294
852.973	21173
853.107	21192
853.242	21188
853.376	21070
853.511	20823
853.645	20941
853.78	21089
853.914	20887
854.048	20956
854.183	20963
854.317	21043
854.451	21150
854.585	20876
854.72	21032
854.854	20929
854.988	20933
855.122	20952
855.256	20765
855.39	20948
855.524	20960
855.658	21047
855.792	20944
855.926	20895
856.06	21047
856.194	21043
856.327	20975
856.461	20925
856.595	20944
856.729	20921
856.862	21070
856.996	20994
857.13	20986
857.263	21161
857.397	21028
857.53	20906
857.664	20982
857.797	21005
857.931	21047
858.064	21043
858.197	21150
858.331	20929
858.464	20861
858.597	20773
858.731	20899
858.864	20956
858.997	20933
859.13	20982
859.263	20933
859.396	20948
859.529	20891
859.662	20937
859.795	20792
859.928	20937
860.061	21093
860.194	21211
860.327	20979
860.46	20944
860.592	21001
860.725	21116
860.858	21070
860.99	20914
861.123	20918
861.256	20788
861.388	20933
861.521	21564
861.653	20971
861.786	20636
861.918	20834
862.05	20842
862.183	20975
862.315	20800
862.447	20960
862.58	20933
862.712	20629
862.844	20701
862.976	20773
863.108	20727
863.24	21055
863.372	20625
863.504	20670
863.636	20716
863.768	20670
863.9	20613
864.032	20545
864.164	20590
864.296	20735
864.428	20773
864.559	20655
864.691	20743
864.823	20686
864.954	20609
865.086	20708
865.217	20636
865.349	20461
865.48	20533
865.612	20629
865.743	20746
865.875	20590
866.006	20556
866.137	20564
866.269	20598
866.4	20431
866.531	20465
866.662	20461
866.793	20518
866.924	20457
867.055	20602
867.186	20484
867.317	20511
867.448	20415
867.579	20480
867.71	20347
867.841	20351
867.972	20476
868.103	20533
868.233	20571
868.364	20549
868.495	20583
868.625	20708
868.756	20739
868.886	20693
869.017	20686
869.147	20876
869.278	20979
869.408	20807
869.539	20720
869.669	20933
869.799	20887
869.929	20925
870.06	20933
870.19	21077
870.32	21036
870.45	21161
870.58	21104
870.71	21256
870.84	21233
870.97	21173
871.1	21180
871.23	21336
871.36	21359
871.489	21249
871.619	21264
871.749	21382
871.879	21424
872.008	21431
872.138	21325
872.267	21230
872.397	21100
872.526	21150
872.656	21230
872.785	21173
872.915	21351
873.044	21504
873.173	21405
873.303	21325
873.432	21424
873.561	21336
873.69	21431
873.819	21363
873.948	21382
874.077	21439
874.206	21447
874.335	21294
874.464	21500
874.593	21603
874.722	21568
874.851	21701
874.979	21568
875.108	21736
875.237	21492
875.365	21580
875.494	21545
875.623	21561
875.751	21576
875.88	21507
876.008	21595
876.136	21759
876.265	22063
876.393	22090
876.521	22021
876.65	22029
876.778	21994
876.906	21964
877.034	21960
877.162	22002
877.29	21838
877.418	21945
877.546	21983
877.674	21888
877.802	21964
877.93	21911
878.058	21945
878.185	21983
878.313	21907
878.441	21930
878.568	21732
878.696	21865
878.824	22078
878.951	21975
879.079	22173
879.206	22337
879.333	22143
879.461	21991
879.588	22188
879.715	22067
879.842	22226
879.97	21983
880.097	21857
880.224	21766
880.351	21804
880.478	21800
880.605	21686
880.732	21812
880.859	22044
880.986	21800
881.112	21698
881.239	21701
881.366	21447
881.493	21447
881.619	21256
881.746	21393
881.872	21313
881.999	21348
882.125	21481
882.252	21306
882.378	21359
882.505	21393
882.631	21150
882.757	21096
882.883	21252
883.01	21051
883.136	21062
883.262	20902
883.388	20967
883.514	21039
883.64	21138
883.766	20986
883.892	20895
884.018	20823
884.143	20990
884.269	21195
884.395	20807
884.52	20746
884.646	20762
884.772	20689
884.897	20617
885.023	20689
885.148	20659
885.274	20826
885.399	20777
885.524	20708
885.65	20735
885.775	20731
885.9	20716
886.025	20845
886.15	20769
886.275	20617
886.4	20514
886.525	20773
886.65	20568
886.775	20606
886.9	20773
887.025	20918
887.149	20636
887.274	20389
887.399	20469
887.523	20484
887.648	20408
887.773	20423
887.897	20533
888.021	20571
888.146	20374
888.27	20514
888.395	20434
888.519	20549
888.643	20606
888.767	20594
888.891	20301
889.015	20408
889.139	20431
889.263	20164
889.387	20389
889.511	20461
889.635	20492
889.759	20240
889.883	20309
890.006	20332
890.13	20393
890.254	20218
890.377	20134
890.501	20164
890.624	19841
890.748	20031
890.871	20043
890.995	19890
891.118	19784
891.241	19837
891.364	19864
891.488	19902
891.611	19860
891.734	19871
891.857	19932
891.98	19822
892.103	19849
892.226	19875
892.349	19685
892.471	19772
892.594	19830
892.717	19776
892.839	19708
892.962	19822
893.085	19822
893.207	19868
893.33	19632
893.452	19723
893.575	19772
893.697	19769
893.819	19852
893.941	19955
894.064	19868
894.186	19666
894.308	19765
894.43	19860
894.552	19864
894.674	19860
894.796	19712
894.918	19731
895.04	19731
895.161	19864
895.283	19807
895.405	19811
895.526	19837
895.648	19738
895.769	19875
895.891	19811
896.012	19807
896.134	19909
896.255	19750
896.376	19807
896.498	19780
896.619	19723
896.74	19799
896.861	19841
896.982	20142
897.103	20298
897.224	20107
897.345	20100
897.466	19879
897.587	19940
897.708	20157
897.828	20084
897.949	19989
898.07	19894
898.19	19947
898.311	20187
898.431	20001
898.552	20062
898.672	20130
898.792	20107
898.913	20001
899.033	20001
899.153	19837
899.273	19738
899.393	19830
899.513	19784
899.633	19681
899.753	19864
899.873	19715
899.993	19833
900.113	19681
900.232	19708
900.352	19670
900.472	19776
900.591	19571
900.711	19514
900.83	19499
900.95	19693
901.069	19655
901.189	19457
901.308	19232
901.427	19194
901.546	19194
901.665	19285
901.784	19183
901.904	19072
902.023	18985
902.141	18703
902.26	18631
902.379	18817
902.498	18703
902.617	18658
902.735	18798
902.854	18745
902.973	18601
903.091	18426
903.21	18384
903.328	18380
903.446	18296
903.565	18277
903.683	18239
903.801	18064
903.919	18152
904.038	18110
904.156	17999
904.274	18030
904.392	17908
904.51	17824
904.627	17916
904.745	17889
904.863	18064
904.981	17779
905.098	17668
905.216	17703
905.334	17649
905.451	17691
905.569	17589
905.686	17646
905.803	17558
905.921	17482
906.038	17543
906.155	17406
906.272	17261
906.389	17273
906.506	17239
906.623	17181
906.74	17079
906.857	17003
906.974	17128
907.091	17288
907.208	17220
907.324	17121
907.441	17147
907.557	17022
907.674	16885
907.79	16790
907.907	16782
908.023	16869
908.139	16755
908.256	16850
908.372	16752
908.488	16774
908.604	16565
908.72	16485
908.836	16622
908.952	16550
909.068	16592
909.184	16660
909.3	16599
909.415	16531
909.531	16542
909.647	16356
909.762	16280
909.878	16211
909.993	16337
910.108	16360
910.224	16265
910.339	16306
910.454	16154
910.57	16124
910.685	16036
910.8	16341
910.915	16238
911.03	16074
911.145	15911
911.259	15861
911.374	15949
911.489	15842
911.604	15804
911.718	15625
911.833	15591
911.947	15488
912.062	15511
912.176	15679
912.291	15675
912.405	15648
912.519	15907
912.633	15907
912.748	15720
912.862	15610
912.976	15485
913.09	15348
913.204	15485
913.318	15500
913.431	15534
913.545	15504
913.659	15648
913.772	15485
913.886	15302
914	15203
914.113	15378
914.226	15317
914.34	15249
914.453	15108
914.566	15241
914.68	15138
914.793	15135
914.906	14876
915.019	14845
915.132	14902
915.245	14868
915.358	14883
915.47	14906
915.583	14887
915.696	14906
915.809	15005
915.921	15074
916.034	14834
916.146	14872
916.259	14754
916.371	14880
916.483	14891
916.595	14785
916.708	14883
916.82	14743
916.932	14678
917.044	14716
917.156	14663
917.268	14575
917.38	14545
917.491	14552
917.603	14610
917.715	14590
917.826	14712
917.938	14507
918.049	14415
918.161	14610
918.272	14571
918.384	14598
918.495	14476
918.606	14339
918.717	14256
918.828	14427
918.939	14438
919.05	14214
919.161	14324
919.272	14077
919.383	14202
919.494	14366
919.604	14556
919.715	14278
919.826	14202
919.936	14229
920.047	14313
920.157	14263
920.267	14492
920.378	14343
920.488	14317
920.598	14404
920.708	14617
920.818	14408
920.928	14434
921.038	14602
921.148	14587
921.258	14161
921.368	14050
921.477	14046
921.587	14031
921.697	13856
921.806	14035
921.916	13807
922.025	13734
922.134	13696
922.244	13594
922.353	13750
922.462	13495
922.571	13434
922.68	13354
922.789	13343
922.898	13331
923.007	13285
923.116	13388
923.224	13304
923.333	13255
923.442	13072
923.55	13095
923.659	13179
923.767	13206
923.876	13008
923.984	13107
924.092	12973
924.201	13118
924.309	13065
924.417	13141
924.525	13065
924.633	12966
924.741	13928
924.849	12821
924.956	12970
925.064	12840
925.172	12745
925.279	12749
925.387	12764
925.494	12741
925.602	12837
925.709	12798
925.816	12730
925.924	12662
926.031	12741
926.138	12715
926.245	12749
926.352	12608
926.459	12791
926.566	12745
926.673	12570
926.779	12494
926.886	12483
926.993	12338
927.099	12369
927.206	12296
927.312	12228
927.419	12376
927.525	12403
927.631	12330
927.737	12247
927.843	12121
927.95	12133
928.056	12140
928.162	12102
928.267	12152
928.373	12757
928.479	12178
928.585	11939
928.69	12114
928.796	12148
928.901	12049
929.007	11882
929.112	12045
929.218	11882
929.323	11920
929.428	12003
929.533	12102
929.638	11794
929.743	11847
929.848	11916
929.953	11847
930.058	11764
930.163	11570
930.267	11680
930.372	11680
930.477	11532
930.581	11843
930.685	11596
930.79	11615
930.894	11573
930.998	11478
931.103	11547
931.207	11235
931.311	11174
931.415	10984
931.519	10854
931.623	10778
