Data from test_V78500241_3153.txt Node
Date: Fri Mar 25 16:03:38 CST 2022
User: usil
Spectrometer: V785-0024
Trigger mode: 0
Integration Time (sec): 4.000000E-1
Scans to average: 1
Nonlinearity correction enabled: false
Boxcar width: 0
Storing dark spectrum: false
XAxis mode: Wavelengths
Number of Pixels in Spectrum: 1024
>>>>>Begin Spectral Data<<<<<
801.071	28462
801.214	28325
801.356	28143
801.499	28131
801.641	28021
801.783	28025
801.926	28120
802.068	27968
802.211	28070
802.353	27907
802.496	27804
802.638	27686
802.78	27599
802.923	27561
803.065	27663
803.208	27564
803.35	27660
803.492	27747
803.635	27918
803.777	27823
803.919	28090
804.061	28242
804.204	27975
804.346	27991
804.488	27789
804.63	27838
804.773	27816
804.915	27949
805.057	27964
805.199	27861
805.341	28074
805.483	27949
805.626	28082
805.768	28051
805.91	28101
806.052	28063
806.194	28025
806.336	28207
806.478	28150
806.62	28067
806.762	28188
806.904	28398
807.046	28626
807.188	28478
807.33	28542
807.472	28599
807.614	28481
807.756	28424
807.898	28405
808.04	28211
808.182	28375
808.324	28428
808.465	28436
808.607	28580
808.749	28881
808.891	28733
809.033	28873
809.174	28888
809.316	28706
809.458	28816
809.6	28668
809.741	28752
809.883	28999
810.025	29094
810.166	29105
810.308	28980
810.45	28911
810.591	28930
810.733	28812
810.875	28809
811.016	28675
811.158	28679
811.299	28850
811.441	28892
811.582	28915
811.724	28698
811.865	28805
812.007	28816
812.148	28790
812.29	28713
812.431	28972
812.573	29185
812.714	29273
812.855	29292
812.997	29341
813.138	29493
813.279	29292
813.421	29265
813.562	29242
813.703	29067
813.845	29071
813.986	28866
814.127	28653
814.268	28462
814.41	28459
814.551	28504
814.692	28611
814.833	28333
814.974	28485
815.115	28451
815.256	28162
815.397	28356
815.539	28421
815.68	28261
815.821	28204
815.962	28337
816.103	28238
816.244	28105
816.385	27991
816.526	28116
816.666	27797
816.807	27755
816.948	27797
817.089	27861
817.23	27816
817.371	27762
817.512	27800
817.653	27713
817.793	27755
817.934	27804
818.075	27732
818.216	27876
818.356	27865
818.497	27728
818.638	27492
818.778	27485
818.919	27507
819.06	27603
819.2	27614
819.341	27850
819.481	27660
819.622	27876
819.762	28200
819.903	28166
820.043	28025
820.184	28040
820.324	27987
820.465	27960
820.605	27930
820.746	27953
820.886	27785
821.026	27793
821.167	27907
821.307	27994
821.447	27785
821.588	27694
821.728	27747
821.868	27416
822.008	27386
822.149	27233
822.289	27233
822.429	26902
822.569	26967
822.709	27005
822.849	26788
822.99	26800
823.13	26868
823.27	26762
823.41	26640
823.55	26446
823.69	26545
823.83	26651
823.97	26564
824.11	26286
824.25	26332
824.389	26412
824.529	26408
824.669	26434
824.809	26655
824.949	26552
825.089	26549
825.228	26415
825.368	26233
825.508	26267
825.648	26381
825.787	26347
825.927	26412
826.067	26195
826.206	26286
826.346	26427
826.485	26374
826.625	26294
826.765	26427
826.904	26419
827.044	26142
827.183	26142
827.323	25944
827.462	26145
827.601	26005
827.741	25951
827.88	26016
828.02	25932
828.159	25993
828.298	26001
828.437	26039
828.577	25909
828.716	26111
828.855	25921
828.994	25750
829.134	25620
829.273	25955
829.412	25639
829.551	25651
829.69	25651
829.829	25708
829.968	25814
830.107	25795
830.246	25696
830.385	25620
830.524	25757
830.663	25468
830.802	25499
830.941	25346
831.08	25403
831.219	25407
831.357	25419
831.496	25518
831.635	25289
831.774	25365
831.913	25244
832.051	25194
832.19	25099
832.329	25145
832.467	25091
832.606	24970
832.744	25019
832.883	24943
833.022	25031
833.16	25042
833.299	25008
833.437	24943
833.576	25053
833.714	25027
833.852	25118
833.991	25095
834.129	25088
834.267	25312
834.406	24935
834.544	24962
834.682	25187
834.821	25175
834.959	25240
835.097	24901
835.235	25019
835.373	25137
835.511	25050
835.65	24833
835.788	25015
835.926	24772
836.064	24722
836.202	24802
836.34	24996
836.478	24909
836.615	24856
836.753	24973
836.891	24977
837.029	24852
837.167	24791
837.305	24776
837.443	24665
837.58	24646
837.718	24817
837.856	24688
837.993	24802
838.131	24764
838.269	24623
838.406	24532
838.544	24532
838.681	24395
838.819	24281
838.956	24106
839.094	24095
839.231	24243
839.369	24346
839.506	24498
839.643	24494
839.781	24186
839.918	24163
840.055	24155
840.193	24144
840.33	24102
840.467	24133
840.604	24068
840.742	24254
840.879	23969
841.016	24057
841.153	23840
841.29	24171
841.427	24007
841.564	24102
841.701	24091
841.838	24079
841.975	24030
842.112	24110
842.249	23874
842.385	23882
842.522	23916
842.659	24057
842.796	23828
842.933	23832
843.069	23840
843.206	23847
843.343	23935
843.479	23942
843.616	23847
843.752	23783
843.889	23741
844.025	23813
844.162	23653
844.298	23707
844.435	23676
844.571	23600
844.708	23608
844.844	23718
844.98	23885
845.117	23600
845.253	23547
845.389	23452
845.525	23455
845.661	23520
845.798	23368
845.934	23410
846.07	23315
846.206	23307
846.342	23425
846.478	23326
846.614	23231
846.75	23117
846.886	23124
847.022	23105
847.158	23132
847.294	23109
847.429	23003
847.565	23083
847.701	23326
847.837	22805
847.972	22736
848.108	22892
848.244	22896
848.379	22812
848.515	22755
848.65	22713
848.786	22660
848.921	22691
849.057	22831
849.192	22801
849.328	22694
849.463	22683
849.598	22721
849.734	22603
849.869	22527
850.004	22485
850.14	22519
850.275	22527
850.41	22371
850.545	22390
850.68	22352
850.815	22451
850.95	22504
851.085	22607
851.22	22497
851.355	22493
851.49	22363
851.625	22382
851.76	22424
851.895	22242
852.03	22367
852.165	22554
852.299	22424
852.434	22550
852.569	22493
852.703	22497
852.838	22569
852.973	22550
853.107	22596
853.242	22371
853.376	22303
853.511	22188
853.645	22219
853.78	22280
853.914	22325
854.048	22150
854.183	22246
854.317	22238
854.451	22493
854.585	22295
854.72	22268
854.854	22230
854.988	22234
855.122	22356
855.256	22257
855.39	22200
855.524	22379
855.658	22424
855.792	22291
855.926	22329
856.06	22356
856.194	22223
856.327	22223
856.461	22158
856.595	22128
856.729	22268
856.862	22474
856.996	22265
857.13	22295
857.263	22440
857.397	22356
857.53	22284
857.664	22261
857.797	22303
857.931	22470
858.064	22219
858.197	22337
858.331	22196
858.464	22196
858.597	22230
858.731	22402
858.864	22226
858.997	22207
859.13	22207
859.263	22230
859.396	22386
859.529	22215
859.662	22207
859.795	22230
859.928	22196
860.061	22443
860.194	22382
860.327	22390
860.46	22284
860.592	22459
860.725	22417
860.858	22363
860.99	22230
861.123	22162
861.256	22207
861.388	22230
861.521	22736
861.653	22173
861.786	22017
861.918	22211
862.05	22063
862.183	22067
862.315	22207
862.447	22295
862.58	22162
862.712	21918
862.844	21895
862.976	22017
863.108	22013
863.24	22379
863.372	21846
863.504	21991
863.636	21964
863.768	22036
863.9	21926
864.032	21895
864.164	21850
864.296	21979
864.428	22070
864.559	21998
864.691	22044
864.823	21934
864.954	21983
865.086	21964
865.217	21819
865.349	21789
865.48	21823
865.612	21789
865.743	22010
865.875	21915
866.006	21850
866.137	21759
866.269	21785
866.4	21778
866.531	21850
866.662	21732
866.793	21709
866.924	21728
867.055	21804
867.186	21819
867.317	21812
867.448	21488
867.579	21720
867.71	21774
867.841	21762
867.972	21778
868.103	21694
868.233	21785
868.364	21747
868.495	21953
868.625	22032
868.756	22226
868.886	21892
869.017	22032
869.147	22097
869.278	22261
869.408	22135
869.539	21945
869.669	22055
869.799	21991
869.929	22177
870.06	22173
870.19	22242
870.32	22352
870.45	22371
870.58	22386
870.71	22557
870.84	22504
870.97	22432
871.1	22306
871.23	22382
871.36	22679
871.489	22512
871.619	22622
871.749	22577
871.879	22577
872.008	22771
872.138	22554
872.267	22546
872.397	22519
872.526	22421
872.656	22386
872.785	22424
872.915	22592
873.044	22687
873.173	22748
873.303	22618
873.432	22653
873.561	22759
873.69	22740
873.819	22660
873.948	22668
874.077	22679
874.206	22630
874.335	22489
874.464	22744
874.593	22793
874.722	22790
874.851	22801
874.979	22847
875.108	22877
875.237	22812
875.365	22755
875.494	22809
875.623	23018
875.751	22778
875.88	22953
876.008	22946
876.136	23143
876.265	23178
876.393	23315
876.521	23406
876.65	23311
876.778	23299
876.906	23128
877.034	23216
877.162	23235
877.29	23147
877.418	23200
877.546	23174
877.674	23166
877.802	23242
877.93	23273
878.058	23197
878.185	23086
878.313	23151
878.441	23296
878.568	23037
878.696	23189
878.824	23197
878.951	23315
879.079	23269
879.206	23592
879.333	23379
879.461	23204
879.588	23433
879.715	23296
879.842	23341
879.97	23311
880.097	23086
880.224	23086
880.351	23014
880.478	22995
880.605	22976
880.732	22991
880.859	23303
880.986	23037
881.112	22984
881.239	22824
881.366	22763
881.493	22630
881.619	22588
881.746	22637
881.872	22592
881.999	22596
882.125	22519
882.252	22622
882.378	22618
882.505	22767
882.631	22310
882.757	22306
882.883	22348
883.01	22242
883.136	22276
883.262	22211
883.388	22116
883.514	22257
883.64	22177
883.766	22162
883.892	21994
884.018	22124
884.143	22196
884.269	22246
884.395	21983
884.52	21888
884.646	21835
884.772	21808
884.897	21785
885.023	21937
885.148	22055
885.274	22010
885.399	21926
885.524	21663
885.65	21930
885.775	21899
885.9	21797
886.025	21998
886.15	21854
886.275	21804
886.4	21804
886.525	21869
886.65	21778
886.775	21816
886.9	21926
887.025	22086
887.149	21751
887.274	21717
887.399	21679
887.523	21580
887.648	21622
887.773	21542
887.897	21751
888.021	21709
888.146	21686
888.27	21785
888.395	21819
888.519	21561
888.643	21694
888.767	21713
888.891	21507
889.015	21378
889.139	21504
889.263	21466
889.387	21572
889.511	21694
889.635	21507
889.759	21469
889.883	21412
890.006	21458
890.13	21557
890.254	21454
890.377	21473
890.501	21230
890.624	21119
890.748	21157
890.871	20982
890.995	20994
891.118	21013
891.241	20990
891.364	20944
891.488	21150
891.611	20975
891.734	21009
891.857	21058
891.98	21020
892.103	21020
892.226	20982
892.349	20914
892.471	20880
892.594	20937
892.717	20883
892.839	20807
892.962	20956
893.085	21043
893.207	20887
893.33	20842
893.452	20830
893.575	21001
893.697	20781
893.819	21020
893.941	21032
894.064	21119
894.186	20811
894.308	20823
894.43	20967
894.552	21093
894.674	20849
894.796	20769
894.918	20830
895.04	20819
895.161	20929
895.283	20906
895.405	20937
895.526	20819
895.648	20785
895.769	20963
895.891	21043
896.012	20956
896.134	20933
896.255	20887
896.376	20815
896.498	20967
896.619	20944
896.74	20849
896.861	20933
896.982	21176
897.103	21302
897.224	21154
897.345	20994
897.466	21028
897.587	21043
897.708	21135
897.828	21165
897.949	21047
898.07	21043
898.19	20986
898.311	21138
898.431	21024
898.552	21051
898.672	21127
898.792	21173
898.913	21070
899.033	21047
899.153	20918
899.273	20739
899.393	20918
899.513	20830
899.633	20891
899.753	20830
899.873	20819
899.993	20861
900.113	20781
900.232	20765
900.352	20678
900.472	20579
900.591	20560
900.711	20564
900.83	20507
900.95	20712
901.069	20648
901.189	20427
901.308	20309
901.427	20164
901.546	20164
901.665	20115
901.784	20191
901.904	20008
902.023	19849
902.141	19685
902.26	19742
902.379	19788
902.498	19655
902.617	19552
902.735	19609
902.854	19601
902.973	19597
903.091	19358
903.21	19335
903.328	19388
903.446	19213
903.565	19107
903.683	19107
903.801	19122
903.919	19076
904.038	19080
904.156	18867
904.274	18932
904.392	18817
904.51	18802
904.627	18856
904.745	18897
904.863	18829
904.981	18821
905.098	18555
905.216	18528
905.334	18570
905.451	18509
905.569	18509
905.686	18707
905.803	18551
905.921	18384
906.038	18414
906.155	18315
906.272	18292
906.389	18285
906.506	17984
906.623	18106
906.74	18034
906.857	17973
906.974	17931
907.091	18129
907.208	18163
907.324	18190
907.441	17965
907.557	17828
907.674	17828
907.79	17718
907.907	17771
908.023	17779
908.139	17946
908.256	17714
908.372	17672
908.488	17703
908.604	17535
908.72	17600
908.836	17493
908.952	17372
909.068	17554
909.184	17520
909.3	17539
909.415	17467
909.531	17421
909.647	17200
909.762	17334
909.878	17189
909.993	17246
910.108	17208
910.224	17121
910.339	17178
910.454	16995
910.57	17041
910.685	16987
910.8	17216
910.915	17200
911.03	16976
911.145	16877
911.259	16850
911.374	16744
911.489	16698
911.604	16668
911.718	16550
911.833	16607
911.947	16386
912.062	16390
912.176	16592
912.291	16668
912.405	16626
912.519	16816
912.633	16634
912.748	16554
912.862	16440
912.976	16291
913.09	16128
913.204	16310
913.318	16265
913.431	16462
913.545	16474
913.659	16363
913.772	16295
913.886	16154
914	16128
914.113	16154
914.226	16310
914.34	16093
914.453	16067
914.566	16192
914.68	16071
914.793	15918
914.906	15816
915.019	15698
915.132	15717
915.245	15633
915.358	15789
915.47	15831
915.583	15747
915.696	15709
915.809	15800
915.921	15808
916.034	15671
916.146	15644
916.259	15584
916.371	15694
916.483	15610
916.595	15431
916.708	15515
916.82	15526
916.932	15526
917.044	15542
917.156	15507
917.268	15340
917.38	15386
917.491	15294
917.603	15382
917.715	15519
917.826	15477
917.938	15245
918.049	15245
918.161	15275
918.272	15496
918.384	15447
918.495	15260
918.606	15104
918.717	15043
918.828	15165
918.939	15066
919.05	15032
919.161	15077
919.272	14937
919.383	14933
919.494	15119
919.604	15249
919.715	15131
919.826	14956
919.936	15009
920.047	15051
920.157	15058
920.267	15192
920.378	15066
920.488	14944
920.598	15249
920.708	15294
920.818	15180
920.928	15116
921.038	15264
921.148	15310
921.258	15009
921.368	14845
921.477	14880
921.587	14853
921.697	14731
921.806	14823
921.916	14556
922.025	14476
922.134	14457
922.244	14454
922.353	14457
922.462	14202
922.571	14233
922.68	13993
922.789	14046
922.898	13970
923.007	14046
923.116	14164
923.224	14035
923.333	14005
923.442	13799
923.55	13837
923.659	13883
923.767	13932
923.876	13791
923.984	13776
924.092	13731
924.201	13734
924.309	13769
924.417	13738
924.525	13605
924.633	13647
924.741	14355
924.849	13495
924.956	13620
925.064	13575
925.172	13392
925.279	13464
925.387	13430
925.494	13468
925.602	13518
925.709	13491
925.816	13362
925.924	13331
926.031	13426
926.138	13362
926.245	13388
926.352	13354
926.459	13331
926.566	13441
926.673	13282
926.779	13160
926.886	13160
926.993	12993
927.099	13015
927.206	13000
927.312	12871
927.419	12993
927.525	12966
927.631	12973
927.737	12764
927.843	12825
927.95	12726
928.056	12852
928.162	12825
928.267	12852
928.373	13441
928.479	12901
928.585	12684
928.69	12715
928.796	12791
928.901	12578
929.007	12521
929.112	12608
929.218	12612
929.323	12593
929.428	12513
929.533	12612
929.638	12357
929.743	12506
929.848	12391
929.953	12403
930.058	12372
930.163	12228
930.267	12178
930.372	12311
930.477	12140
930.581	12407
930.685	12129
930.79	12060
930.894	12102
930.998	12057
931.103	12163
931.207	11756
931.311	11752
931.415	11627
931.519	11463
931.623	11410
