Data from test_V78500241_732.txt Node
Date: Fri Mar 25 15:46:52 CST 2022
User: usil
Spectrometer: V785-0024
Trigger mode: 0
Integration Time (sec): 4.000000E-1
Scans to average: 1
Nonlinearity correction enabled: false
Boxcar width: 0
Storing dark spectrum: false
XAxis mode: Wavelengths
Number of Pixels in Spectrum: 1024
>>>>>Begin Spectral Data<<<<<
801.071	28436
801.214	28352
801.356	28013
801.499	27876
801.641	27937
801.783	27835
801.926	28006
802.068	27911
802.211	27808
802.353	27793
802.496	27587
802.638	27576
802.78	27564
802.923	27492
803.065	27545
803.208	27606
803.35	27705
803.492	27793
803.635	27682
803.777	27568
803.919	27831
804.061	28135
804.204	27800
804.346	27720
804.488	27705
804.63	27797
804.773	27625
804.915	27797
805.057	27869
805.199	27667
805.341	27930
805.483	27987
805.626	27880
805.768	27850
805.91	27941
806.052	27895
806.194	27823
806.336	28116
806.478	28017
806.62	27907
806.762	28002
806.904	28215
807.046	28596
807.188	28398
807.33	28436
807.472	28462
807.614	28527
807.756	28516
807.898	28188
808.04	28109
808.182	28268
808.324	28090
808.465	28306
808.607	28367
808.749	28516
808.891	28694
809.033	28748
809.174	28702
809.316	28649
809.458	28626
809.6	28527
809.741	28778
809.883	28854
810.025	28919
810.166	28930
810.308	28885
810.45	28797
810.591	28828
810.733	28512
810.875	28561
811.016	28440
811.158	28459
811.299	28672
811.441	28725
811.582	28824
811.724	28592
811.865	28531
812.007	28580
812.148	28668
812.29	28774
812.431	28694
812.573	28991
812.714	28835
812.855	29212
812.997	29292
813.138	29356
813.279	29280
813.421	29151
813.562	29064
813.703	28888
813.845	28752
813.986	28599
814.127	28516
814.268	28284
814.41	28344
814.551	28257
814.692	28284
814.833	28257
814.974	28226
815.115	28246
815.256	28162
815.397	28162
815.539	28181
815.68	28086
815.821	28078
815.962	28284
816.103	27983
816.244	27895
816.385	27869
816.526	27774
816.666	27686
816.807	27686
816.948	27831
817.089	27614
817.23	27587
817.371	27675
817.512	27705
817.653	27519
817.793	27526
817.934	27583
818.075	27656
818.216	27705
818.356	27515
818.497	27485
818.638	27401
818.778	27374
818.919	27340
819.06	27439
819.2	27492
819.341	27416
819.481	27656
819.622	27827
819.762	27975
819.903	27728
820.043	27827
820.184	27747
820.324	27846
820.465	27869
820.605	27671
820.746	27854
820.886	27618
821.026	27553
821.167	27686
821.307	27705
821.447	27644
821.588	27473
821.728	27435
821.868	27378
822.008	27058
822.149	27055
822.289	26979
822.429	26804
822.569	26891
822.709	26826
822.849	26640
822.99	26575
823.13	26590
823.27	26583
823.41	26473
823.55	26313
823.69	26518
823.83	26473
823.97	26347
824.11	26176
824.25	26358
824.389	26259
824.529	26286
824.669	26370
824.809	26332
824.949	26328
825.089	26434
825.228	26347
825.368	26282
825.508	26347
825.648	26210
825.787	26214
825.927	26149
826.067	26122
826.206	26221
826.346	26210
826.485	26176
826.625	26134
826.765	26267
826.904	26145
827.044	25883
827.183	25868
827.323	25677
827.462	25795
827.601	25875
827.741	25811
827.88	25860
828.02	25643
828.159	25890
828.298	25875
828.437	25894
828.577	25852
828.716	25750
828.855	25811
828.994	25502
829.134	25643
829.273	25605
829.412	25453
829.551	25533
829.69	25464
829.829	25632
829.968	25540
830.107	25597
830.246	25696
830.385	25445
830.524	25369
830.663	25266
830.802	25343
830.941	25091
831.08	25221
831.219	25206
831.357	25354
831.496	25236
831.635	25160
831.774	25046
831.913	25099
832.051	24981
832.19	24798
832.329	24924
832.467	24863
832.606	24757
832.744	24734
832.883	24837
833.022	24821
833.16	24772
833.299	24897
833.437	24798
833.576	24989
833.714	24707
833.852	24882
833.991	24897
834.129	24916
834.267	24977
834.406	24844
834.544	24859
834.682	24886
834.821	24890
834.959	24943
835.097	24844
835.235	24897
835.373	24928
835.511	24859
835.65	24848
835.788	24700
835.926	24536
836.064	24471
836.202	24547
836.34	24741
836.478	24764
836.615	24692
836.753	24719
836.891	24753
837.029	24791
837.167	24696
837.305	24604
837.443	24555
837.58	24574
837.718	24475
837.856	24540
837.993	24521
838.131	24505
838.269	24505
838.406	24403
838.544	24391
838.681	24171
838.819	24171
838.956	23973
839.094	24015
839.231	24125
839.369	24201
839.506	24452
839.643	24281
839.781	23950
839.918	23954
840.055	23984
840.193	24007
840.33	23859
840.467	24045
840.604	23980
840.742	24136
840.879	23779
841.016	23824
841.153	23794
841.29	24003
841.427	24007
841.564	23832
841.701	23984
841.838	23813
841.975	23668
842.112	23794
842.249	23729
842.385	23859
842.522	23931
842.659	23748
842.796	23638
842.933	23581
843.069	23668
843.206	23623
843.343	23646
843.479	23676
843.616	23630
843.752	23482
843.889	23417
844.025	23482
844.162	23531
844.298	23501
844.435	23433
844.571	23326
844.708	23436
844.844	23619
844.98	23577
845.117	23512
845.253	23349
845.389	23303
845.525	23303
845.661	23216
845.798	23121
845.934	23269
846.07	23189
846.206	23151
846.342	23250
846.478	23162
846.614	22987
846.75	22873
846.886	22889
847.022	22946
847.158	23033
847.294	22930
847.429	22965
847.565	22904
847.701	23124
847.837	22637
847.972	22691
848.108	22736
848.244	22641
848.379	22516
848.515	22577
848.65	22451
848.786	22413
848.921	22440
849.057	22615
849.192	22596
849.328	22504
849.463	22550
849.598	22478
849.734	22451
849.869	22276
850.004	22280
850.14	22265
850.275	22265
850.41	22253
850.545	22223
850.68	22082
850.815	22379
850.95	22158
851.085	22459
851.22	22230
851.355	22219
851.49	22322
851.625	22120
851.76	22280
851.895	22219
852.03	22158
852.165	22280
852.299	22276
852.434	22341
852.569	22268
852.703	22329
852.838	22287
852.973	22390
853.107	22337
853.242	22070
853.376	22223
853.511	22029
853.645	22067
853.78	22181
853.914	22032
854.048	22086
854.183	22044
854.317	22067
854.451	22249
854.585	22021
854.72	21998
854.854	22147
854.988	22006
855.122	22036
855.256	21857
855.39	22025
855.524	22143
855.658	22086
855.792	22055
855.926	22059
856.06	22101
856.194	22143
856.327	22135
856.461	21972
856.595	21979
856.729	22067
856.862	22158
856.996	22059
857.13	22154
857.263	22173
857.397	22158
857.53	21972
857.664	22150
857.797	22116
857.931	22067
858.064	22067
858.197	22154
858.331	22112
858.464	21968
858.597	21975
858.731	21937
858.864	22006
858.997	22006
859.13	21983
859.263	21960
859.396	22048
859.529	22074
859.662	22017
859.795	21880
859.928	22067
860.061	22139
860.194	22219
860.327	22116
860.46	22131
860.592	22109
860.725	22162
860.858	22105
860.99	22082
861.123	22029
861.256	21994
861.388	22048
861.521	22752
861.653	21926
861.786	21899
861.918	21762
862.05	21937
862.183	22040
862.315	22002
862.447	22017
862.58	22109
862.712	21865
862.844	21660
862.976	21960
863.108	21827
863.24	22253
863.372	21671
863.504	21789
863.636	21728
863.768	21812
863.9	21789
864.032	21736
864.164	21709
864.296	21823
864.428	21800
864.559	21800
864.691	21728
864.823	21774
864.954	21922
865.086	21736
865.217	21663
865.349	21576
865.48	21614
865.612	21705
865.743	21819
865.875	21739
866.006	21743
866.137	21652
866.269	21648
866.4	21648
866.531	21660
866.662	21576
866.793	21637
866.924	21667
867.055	21660
867.186	21583
867.317	21515
867.448	21473
867.579	21545
867.71	21561
867.841	21492
867.972	21625
868.103	21557
868.233	21606
868.364	21599
868.495	21698
868.625	21827
868.756	21857
868.886	21751
869.017	21937
869.147	21937
869.278	22055
869.408	21934
869.539	21888
869.669	21903
869.799	21937
869.929	21979
870.06	21998
870.19	22139
870.32	22192
870.45	22166
870.58	22257
870.71	22379
870.84	22314
870.97	22211
871.1	22173
871.23	22390
871.36	22462
871.489	22341
871.619	22325
871.749	22561
871.879	22493
872.008	22569
872.138	22470
872.267	22569
872.397	22329
872.526	22325
872.656	22428
872.785	22268
872.915	22550
873.044	22512
873.173	22436
873.303	22596
873.432	22485
873.561	22519
873.69	22554
873.819	22478
873.948	22672
874.077	22413
874.206	22402
874.335	22367
874.464	22634
874.593	22725
874.722	22759
874.851	22736
874.979	22843
875.108	22660
875.237	22645
875.365	22611
875.494	22634
875.623	22835
875.751	22603
875.88	22664
876.008	22938
876.136	22656
876.265	23041
876.393	23246
876.521	23136
876.65	23140
876.778	23014
876.906	22946
877.034	22911
877.162	23010
877.29	22927
877.418	22999
877.546	23052
877.674	23029
877.802	22942
877.93	23025
878.058	22972
878.185	22869
878.313	23006
878.441	22965
878.568	22820
878.696	22828
878.824	23037
878.951	23006
879.079	23269
879.206	23204
879.333	23174
879.461	22999
879.588	23121
879.715	23200
879.842	23261
879.97	23181
880.097	22911
880.224	22839
880.351	22949
880.478	22850
880.605	22767
880.732	22873
880.859	23128
880.986	22862
881.112	22767
881.239	22725
881.366	22535
881.493	22603
881.619	22485
881.746	22265
881.872	22474
881.999	22409
882.125	22341
882.252	22424
882.378	22382
882.505	22466
882.631	22219
882.757	22135
882.883	22223
883.01	22120
883.136	22078
883.262	22090
883.388	21842
883.514	22078
883.64	22109
883.766	21915
883.892	21850
884.018	21956
884.143	22029
884.269	22101
884.395	21831
884.52	21759
884.646	21804
884.772	21504
884.897	21633
885.023	21739
885.148	21865
885.274	21915
885.399	21876
885.524	21694
885.65	21739
885.775	21774
885.9	21759
886.025	21865
886.15	21736
886.275	21686
886.4	21542
886.525	21679
886.65	21766
886.775	21648
886.9	21800
887.025	21926
887.149	21713
887.274	21610
887.399	21412
887.523	21447
887.648	21332
887.773	21412
887.897	21603
888.021	21580
888.146	21462
888.27	21523
888.395	21568
888.519	21572
888.643	21458
888.767	21416
888.891	21378
889.015	21287
889.139	21332
889.263	21237
889.387	21416
889.511	21454
889.635	21336
889.759	21279
889.883	21359
890.006	21302
890.13	21351
890.254	21279
890.377	21336
890.501	20971
890.624	20906
890.748	21154
890.871	20910
890.995	20853
891.118	20804
891.241	20815
891.364	20914
891.488	20914
891.611	20933
891.734	20777
891.857	20963
891.98	20990
892.103	20880
892.226	20952
892.349	20853
892.471	20590
892.594	20834
892.717	20891
892.839	20849
892.962	20773
893.085	20872
893.207	20674
893.33	20617
893.452	20731
893.575	20842
893.697	20693
893.819	20868
893.941	20944
894.064	20864
894.186	20655
894.308	20674
894.43	20750
894.552	20880
894.674	20792
894.796	20678
894.918	20636
895.04	20708
895.161	20765
895.283	20682
895.405	20689
895.526	20674
895.648	20648
895.769	20705
895.891	20876
896.012	20800
896.134	20750
896.255	20697
896.376	20708
896.498	20769
896.619	20758
896.74	20769
896.861	20781
896.982	21001
897.103	21077
897.224	21039
897.345	20891
897.466	20910
897.587	20876
897.708	21085
897.828	20929
897.949	20872
898.07	20644
898.19	20781
898.311	21001
898.431	20933
898.552	20918
898.672	21001
898.792	20952
898.913	21013
899.033	20864
899.153	20720
899.273	20693
899.393	20716
899.513	20674
899.633	20636
899.753	20602
899.873	20537
899.993	20731
900.113	20708
900.232	20731
900.352	20514
900.472	20492
900.591	20427
900.711	20492
900.83	20313
900.95	20499
901.069	20568
901.189	20278
901.308	20115
901.427	20008
901.546	19944
901.665	20046
901.784	19986
901.904	19989
902.023	19742
902.141	19620
902.26	19578
902.379	19651
902.498	19495
902.617	19346
902.735	19483
902.854	19430
902.973	19377
903.091	19171
903.21	19190
903.328	19297
903.446	19110
903.565	18970
903.683	18875
903.801	18757
903.919	18943
904.038	18939
904.156	18768
904.274	18867
904.392	18684
904.51	18681
904.627	18745
904.745	18817
904.863	18837
904.981	18456
905.098	18418
905.216	18475
905.334	18437
905.451	18403
905.569	18380
905.686	18414
905.803	18494
905.921	18136
906.038	18304
906.155	18186
906.272	18110
906.389	18076
906.506	17958
906.623	18121
906.74	17916
906.857	17889
906.974	17878
907.091	17996
907.208	18083
907.324	17950
907.441	17866
907.557	17729
907.674	17707
907.79	17611
907.907	17695
908.023	17695
908.139	17817
908.256	17611
908.372	17524
908.488	17566
908.604	17315
908.72	17284
908.836	17410
908.952	17372
909.068	17414
909.184	17398
909.3	17318
909.415	17421
909.531	17322
909.647	17113
909.762	17124
909.878	17113
909.993	17029
910.108	17090
910.224	17037
910.339	17075
910.454	16976
910.57	16839
910.685	16744
910.8	17117
910.915	16984
911.03	16847
911.145	16698
911.259	16630
911.374	16618
911.489	16683
911.604	16493
911.718	16375
911.833	16329
911.947	16379
912.062	16295
912.176	16379
912.291	16402
912.405	16367
912.519	16535
912.633	16687
912.748	16398
912.862	16318
912.976	16192
913.09	16097
913.204	16238
913.318	16280
913.431	16314
913.545	16287
913.659	16318
913.772	16124
913.886	16059
914	15956
914.113	16078
914.226	16120
914.34	16067
914.453	15953
914.566	16021
914.68	15861
914.793	15819
914.906	15709
915.019	15591
915.132	15572
915.245	15606
915.358	15614
915.47	15545
915.583	15553
915.696	15564
915.809	15736
915.921	15751
916.034	15469
916.146	15450
916.259	15359
916.371	15542
916.483	15534
916.595	15435
916.708	15367
916.82	15389
916.932	15348
917.044	15359
917.156	15393
917.268	15275
917.38	15252
917.491	15154
917.603	15192
917.715	15249
917.826	15310
917.938	15097
918.049	15055
918.161	15142
918.272	15370
918.384	15279
918.495	15150
918.606	14967
918.717	14941
918.828	14986
918.939	14998
919.05	14826
919.161	14998
919.272	14785
919.383	14811
919.494	14998
919.604	15237
919.715	14982
919.826	14838
919.936	14842
920.047	14937
920.157	14891
920.267	15131
920.378	14941
920.488	15005
920.598	15032
920.708	15237
920.818	15058
920.928	15127
921.038	15214
921.148	15237
921.258	14880
921.368	14796
921.477	14781
921.587	14602
921.697	14541
921.806	14693
921.916	14617
922.025	14400
922.134	14298
922.244	14393
922.353	14366
922.462	14183
922.571	14092
922.68	13898
922.789	13883
922.898	13906
923.007	13894
923.116	13982
923.224	13860
923.333	13868
923.442	13860
923.55	13715
923.659	13757
923.767	13788
923.876	13696
923.984	13807
924.092	13556
924.201	13776
924.309	13704
924.417	13674
924.525	13563
924.633	13605
924.741	14564
924.849	13388
924.956	13525
925.064	13381
925.172	13304
925.279	13335
925.387	13320
925.494	13324
925.602	13426
925.709	13468
925.816	13175
925.924	13225
926.031	13381
926.138	13316
926.245	13377
926.352	13202
926.459	13449
926.566	13365
926.673	13149
926.779	13065
926.886	12993
926.993	13065
927.099	12863
927.206	12814
927.312	12722
927.419	12928
927.525	12833
927.631	12996
927.737	12692
927.843	12677
927.95	12665
928.056	12665
928.162	12734
928.267	12707
928.373	13304
928.479	12901
928.585	12620
928.69	12563
928.796	12703
928.901	12563
929.007	12361
929.112	12623
929.218	12464
929.323	12395
929.428	12429
929.533	12570
929.638	12311
929.743	12471
929.848	12410
929.953	12323
930.058	12163
930.163	12110
930.267	12155
930.372	12273
930.477	11992
930.581	12209
930.685	12114
930.79	12026
930.894	12022
930.998	11923
931.103	12019
931.207	11665
931.311	11688
931.415	11585
931.519	11402
931.623	11383
