Data from test_V78500241_1316.txt Node
Date: Fri Mar 25 15:50:55 CST 2022
User: usil
Spectrometer: V785-0024
Trigger mode: 0
Integration Time (sec): 4.000000E-1
Scans to average: 1
Nonlinearity correction enabled: false
Boxcar width: 0
Storing dark spectrum: false
XAxis mode: Wavelengths
Number of Pixels in Spectrum: 1024
>>>>>Begin Spectral Data<<<<<
801.071	27956
801.214	27857
801.356	27652
801.499	27576
801.641	27580
801.783	27386
801.926	27488
802.068	27370
802.211	27370
802.353	27192
802.496	27146
802.638	27119
802.78	27184
802.923	27055
803.065	27020
803.208	26986
803.35	27119
803.492	27165
803.635	27218
803.777	27116
803.919	27435
804.061	27587
804.204	27287
804.346	27256
804.488	27222
804.63	27306
804.773	27176
804.915	27264
805.057	27310
805.199	27252
805.341	27340
805.483	27462
805.626	27485
805.768	27332
805.91	27355
806.052	27420
806.194	27264
806.336	27614
806.478	27431
806.62	27500
806.762	27675
806.904	27759
807.046	27907
807.188	27797
807.33	27808
807.472	27861
807.614	27698
807.756	27781
807.898	27648
808.04	27644
808.182	27637
808.324	27774
808.465	27797
808.607	27892
808.749	28044
808.891	28234
809.033	28268
809.174	28143
809.316	28101
809.458	28230
809.6	28013
809.741	28192
809.883	28363
810.025	28424
810.166	28394
810.308	28310
810.45	28291
810.591	28242
810.733	28211
810.875	27914
811.016	27918
811.158	27930
811.299	28348
811.441	28246
811.582	28169
811.724	28021
811.865	27937
812.007	27926
812.148	28082
812.29	28112
812.431	28112
812.573	28371
812.714	28474
812.855	28649
812.997	28637
813.138	28793
813.279	28733
813.421	28584
813.562	28588
813.703	28413
813.845	28280
813.986	28082
814.127	27857
814.268	27759
814.41	27911
814.551	27846
814.692	27865
814.833	27717
814.974	27701
815.115	27732
815.256	27542
815.397	27648
815.539	27671
815.68	27424
815.821	27504
815.962	27675
816.103	27427
816.244	27313
816.385	27264
816.526	27260
816.666	27112
816.807	27112
816.948	26952
817.089	27268
817.23	27081
817.371	27146
817.512	26921
817.653	27112
817.793	26990
817.934	27028
818.075	27157
818.216	27089
818.356	27009
818.497	26899
818.638	26720
818.778	26765
818.919	26655
819.06	26792
819.2	26861
819.341	26986
819.481	27043
819.622	27100
819.762	27294
819.903	27211
820.043	27203
820.184	27123
820.324	27135
820.465	27165
820.605	27028
820.746	27249
820.886	27135
821.026	27070
821.167	27184
821.307	27123
821.447	27135
821.588	26998
821.728	26902
821.868	26644
822.008	26492
822.149	26731
822.289	26518
822.429	26305
822.569	26111
822.709	26180
822.849	25966
822.99	26119
823.13	25951
823.27	25982
823.41	25837
823.55	25734
823.69	25883
823.83	25715
823.97	25894
824.11	25651
824.25	25620
824.389	25651
824.529	25689
824.669	25780
824.809	25803
824.949	25845
825.089	25723
825.228	25674
825.368	25670
825.508	25559
825.648	25578
825.787	25457
825.927	25651
826.067	25468
826.206	25540
826.346	25597
826.485	25601
826.625	25419
826.765	25658
826.904	25586
827.044	25373
827.183	25293
827.323	25179
827.462	25381
827.601	25129
827.741	25289
827.88	25460
828.02	25171
828.159	25206
828.298	25236
828.437	25320
828.577	25297
828.716	25304
828.855	25350
828.994	24958
829.134	24958
829.273	25141
829.412	24996
829.551	24909
829.69	24966
829.829	24985
829.968	25000
830.107	24996
830.246	24810
830.385	24848
830.524	24829
830.663	24700
830.802	24623
830.941	24513
831.08	24536
831.219	24798
831.357	24585
831.496	24711
831.635	24437
831.774	24578
831.913	24448
832.051	24342
832.19	24391
832.329	24254
832.467	24281
832.606	24068
832.744	24152
832.883	24342
833.022	24167
833.16	24251
833.299	24289
833.437	24224
833.576	24315
833.714	24247
833.852	24391
833.991	24247
834.129	24376
834.267	24281
834.406	24251
834.544	24163
834.682	24330
834.821	24369
834.959	24502
835.097	24194
835.235	24281
835.373	24197
835.511	24205
835.65	24243
835.788	24125
835.926	24087
836.064	23946
836.202	24083
836.34	23988
836.478	24243
836.615	24041
836.753	23931
836.891	24239
837.029	24091
837.167	24205
837.305	24049
837.443	23950
837.58	23988
837.718	24007
837.856	23942
837.993	23805
838.131	24121
838.269	23790
838.406	23988
838.544	23798
838.681	23646
838.819	23551
838.956	23433
839.094	23421
839.231	23455
839.369	23592
839.506	23916
839.643	23581
839.781	23345
839.918	23303
840.055	23444
840.193	23376
840.33	23246
840.467	23353
840.604	23364
840.742	23600
840.879	23170
841.016	23376
841.153	23246
841.29	23387
841.427	23322
841.564	23337
841.701	23520
841.838	23227
841.975	23147
842.112	23299
842.249	23204
842.385	23090
842.522	23265
842.659	23060
842.796	23006
842.933	23029
843.069	23067
843.206	23003
843.343	23208
843.479	23143
843.616	23178
843.752	22869
843.889	22824
844.025	22938
844.162	22744
844.298	22889
844.435	22885
844.571	22843
844.708	22900
844.844	22976
844.98	22984
845.117	22991
845.253	22839
845.389	22748
845.525	22767
845.661	22698
845.798	22565
845.934	22622
846.07	22462
846.206	22668
846.342	22725
846.478	22702
846.614	22462
846.75	22394
846.886	22234
847.022	22447
847.158	22413
847.294	22409
847.429	22246
847.565	22276
847.701	22649
847.837	22124
847.972	21922
848.108	22048
848.244	22120
848.379	21907
848.515	21994
848.65	21895
848.786	21880
848.921	21922
849.057	22017
849.192	21991
849.328	21960
849.463	21895
849.598	21823
849.734	21808
849.869	21739
850.004	21755
850.14	21720
850.275	21774
850.41	21549
850.545	21568
850.68	21667
850.815	21686
850.95	21625
851.085	21694
851.22	21838
851.355	21778
851.49	21599
851.625	21648
851.76	21504
851.895	21561
852.03	21637
852.165	21728
852.299	21694
852.434	21747
852.569	21705
852.703	21736
852.838	21785
852.973	22055
853.107	21762
853.242	21682
853.376	21557
853.511	21443
853.645	21439
853.78	21431
853.914	21515
854.048	21424
854.183	21382
854.317	21488
854.451	21698
854.585	21511
854.72	21595
854.854	21682
854.988	21488
855.122	21633
855.256	21279
855.39	21477
855.524	21580
855.658	21629
855.792	21435
855.926	21561
856.06	21553
856.194	21660
856.327	21329
856.461	21526
856.595	21412
856.729	21405
856.862	21568
856.996	21477
857.13	21454
857.263	21667
857.397	21667
857.53	21481
857.664	21564
857.797	21420
857.931	21538
858.064	21530
858.197	21682
858.331	21542
858.464	21477
858.597	21428
858.731	21595
858.864	21488
858.997	21469
859.13	21496
859.263	21572
859.396	21603
859.529	21317
859.662	21553
859.795	21507
859.928	21462
860.061	21614
860.194	21743
860.327	21660
860.46	21401
860.592	21576
860.725	21762
860.858	21557
860.99	21519
861.123	21450
861.256	21466
861.388	21424
861.521	22272
861.653	21275
861.786	21146
861.918	21218
862.05	21348
862.183	21412
862.315	21477
862.447	21542
862.58	21367
862.712	21195
862.844	21165
862.976	21283
863.108	21195
863.24	21641
863.372	21157
863.504	21150
863.636	21138
863.768	21138
863.9	21176
864.032	21192
864.164	21096
864.296	21275
864.428	21317
864.559	21275
864.691	21272
864.823	21173
864.954	21184
865.086	21142
865.217	21184
865.349	21093
865.48	20998
865.612	21142
865.743	21184
865.875	21165
866.006	21096
866.137	21077
866.269	21066
866.4	21055
866.531	21028
866.662	21055
866.793	20967
866.924	21058
867.055	21150
867.186	21020
867.317	20979
867.448	21070
867.579	20944
867.71	21013
867.841	20887
867.972	21032
868.103	21062
868.233	21116
868.364	21077
868.495	21184
868.625	21313
868.756	21439
868.886	21233
869.017	21397
869.147	21416
869.278	21405
869.408	21184
869.539	21306
869.669	21329
869.799	21264
869.929	21443
870.06	21325
870.19	21656
870.32	21515
870.45	21629
870.58	21614
870.71	21743
870.84	21850
870.97	21762
871.1	21675
871.23	21895
871.36	21915
871.489	21789
871.619	21755
871.749	21842
871.879	21842
872.008	22059
872.138	21918
872.267	21960
872.397	21736
872.526	21823
872.656	21736
872.785	21724
872.915	21911
873.044	21857
873.173	21922
873.303	21945
873.432	21911
873.561	21945
873.69	21892
873.819	21812
873.948	21964
874.077	21873
874.206	21945
874.335	21846
874.464	21991
874.593	22173
874.722	22101
874.851	22143
874.979	22116
875.108	22162
875.237	22067
875.365	22029
875.494	22109
875.623	22173
875.751	22162
875.88	22169
876.008	22196
876.136	22333
876.265	22508
876.393	22577
876.521	22675
876.65	22641
876.778	22493
876.906	22519
877.034	22470
877.162	22432
877.29	22554
877.418	22333
877.546	22497
877.674	22500
877.802	22508
877.93	22424
878.058	22500
878.185	22382
878.313	22489
878.441	22508
878.568	22436
878.696	22352
878.824	22508
878.951	22550
879.079	22634
879.206	22763
879.333	22687
879.461	22474
879.588	22550
879.715	22557
879.842	22733
879.97	22531
880.097	22356
880.224	22276
880.351	22428
880.478	22261
880.605	22303
880.732	22421
880.859	22634
880.986	22375
881.112	22219
881.239	22128
881.366	21979
881.493	22013
881.619	21926
881.746	21968
881.872	21736
881.999	21800
882.125	21759
882.252	21983
882.378	21903
882.505	22029
882.631	21713
882.757	21530
882.883	21747
883.01	21701
883.136	21637
883.262	21420
883.388	21386
883.514	21625
883.64	21553
883.766	21523
883.892	21389
884.018	21412
884.143	21523
884.269	21625
884.395	21302
884.52	21154
884.646	21150
884.772	21195
884.897	21138
885.023	21275
885.148	21389
885.274	21348
885.399	21439
885.524	21180
885.65	21245
885.775	21176
885.9	21146
886.025	21332
886.15	21279
886.275	21051
886.4	21043
886.525	21165
886.65	21013
886.775	21161
886.9	21332
887.025	21374
887.149	21256
887.274	21108
887.399	21017
887.523	20933
887.648	20990
887.773	20876
887.897	21039
888.021	21005
888.146	20941
888.27	20990
888.395	21127
888.519	20982
888.643	21085
888.767	20990
888.891	20876
889.015	20834
889.139	20807
889.263	20689
889.387	20845
889.511	20948
889.635	20857
889.759	20849
889.883	20762
890.006	20823
890.13	20781
890.254	20686
890.377	20762
890.501	20415
890.624	20434
890.748	20678
890.871	20415
890.995	20328
891.118	20259
891.241	20358
891.364	20358
891.488	20530
891.611	20351
891.734	20343
891.857	20393
891.98	20294
892.103	20347
892.226	20351
892.349	20286
892.471	20119
892.594	20195
892.717	20374
892.839	20176
892.962	20256
893.085	20309
893.207	20259
893.33	20149
893.452	20145
893.575	20381
893.697	20271
893.819	20347
893.941	20434
894.064	20336
894.186	20157
894.308	20187
894.43	20366
894.552	20476
894.674	20408
894.796	20176
894.918	20069
895.04	20153
895.161	20267
895.283	20199
895.405	20092
895.526	20271
895.648	20256
895.769	20271
895.891	20157
896.012	20336
896.134	20320
896.255	20225
896.376	20225
896.498	20233
896.619	20252
896.74	20225
896.861	20267
896.982	20587
897.103	20682
897.224	20526
897.345	20393
897.466	20358
897.587	20575
897.708	20640
897.828	20412
897.949	20320
898.07	20301
898.19	20484
898.311	20495
898.431	20343
898.552	20465
898.672	20488
898.792	20651
898.913	20511
899.033	20355
899.153	20248
899.273	20145
899.393	20202
899.513	20218
899.633	20161
899.753	20267
899.873	20168
899.993	20332
900.113	20229
900.232	20214
900.352	20096
900.472	20065
900.591	19978
900.711	20039
900.83	19963
900.95	20126
901.069	20039
901.189	19875
901.308	19708
901.427	19502
901.546	19575
901.665	19567
901.784	19552
901.904	19552
902.023	19308
902.141	19202
902.26	19263
902.379	19282
902.498	19156
902.617	19031
902.735	19042
902.854	19008
902.973	19050
903.091	18722
903.21	18810
903.328	18715
903.446	18696
903.565	18574
903.683	18517
903.801	18445
903.919	18452
904.038	18574
904.156	18376
904.274	18445
904.392	18163
904.51	18239
904.627	18235
904.745	18395
904.863	18490
904.981	18194
905.098	17916
905.216	17950
905.334	17984
905.451	17999
905.569	17912
905.686	17927
905.803	17904
905.921	17813
906.038	17821
906.155	17847
906.272	17741
906.389	17707
906.506	17570
906.623	17554
906.74	17524
906.857	17360
906.974	17532
907.091	17547
907.208	17638
907.324	17490
907.441	17417
907.557	17364
907.674	17235
907.79	17140
907.907	17265
908.023	17322
908.139	17242
908.256	17185
908.372	17033
908.488	17071
908.604	16930
908.72	16972
908.836	16934
908.952	16896
909.068	16957
909.184	17022
909.3	17029
909.415	16904
909.531	16885
909.647	16713
909.762	16634
909.878	16573
909.993	16615
910.108	16679
910.224	16641
910.339	16668
910.454	16527
910.57	16413
910.685	16443
910.8	16679
910.915	16634
911.03	16538
911.145	16253
911.259	16257
911.374	16200
911.489	16139
911.604	16120
911.718	16059
911.833	16059
911.947	15907
912.062	15934
912.176	16010
912.291	16006
912.405	16059
912.519	16147
912.633	16192
912.748	16021
912.862	15915
912.976	15835
913.09	15724
913.204	15774
913.318	15857
913.431	15816
913.545	15873
913.659	15865
913.772	15728
913.886	15580
914	15580
914.113	15762
914.226	15663
914.34	15736
914.453	15507
914.566	15622
914.68	15526
914.793	15428
914.906	15218
915.019	15184
915.132	15214
915.245	15176
915.358	15321
915.47	15275
915.583	15157
915.696	15325
915.809	15405
915.921	15431
916.034	15131
916.146	15135
916.259	15062
916.371	15146
916.483	15184
916.595	15013
916.708	15058
916.82	14975
916.932	15020
917.044	15028
917.156	15024
917.268	14910
917.38	15009
917.491	14792
917.603	14864
917.715	14944
917.826	14979
917.938	14796
918.049	14689
918.161	14876
918.272	14864
918.384	14960
918.495	14777
918.606	14583
918.717	14533
918.828	14632
918.939	14670
919.05	14583
919.161	14564
919.272	14454
919.383	14484
919.494	14598
919.604	14739
919.715	14495
919.826	14484
919.936	14511
920.047	14678
920.157	14545
920.267	14701
920.378	14545
920.488	14469
920.598	14674
920.708	14872
920.818	14731
920.928	14678
921.038	14762
921.148	14800
921.258	14545
921.368	14454
921.477	14286
921.587	14339
921.697	14180
921.806	14343
921.916	14252
922.025	14001
922.134	13940
922.244	13955
922.353	13932
922.462	13852
922.571	13772
922.68	13616
922.789	13666
922.898	13651
923.007	13544
923.116	13571
923.224	13624
923.333	13597
923.442	13441
923.55	13426
923.659	13518
923.767	13529
923.876	13358
923.984	13457
924.092	13278
924.201	13415
924.309	13426
924.417	13377
924.525	13289
924.633	13285
924.741	14210
924.849	13122
924.956	13217
925.064	13046
925.172	12951
925.279	13019
925.387	13034
925.494	12989
925.602	13194
925.709	12985
925.816	12947
925.924	12951
926.031	13103
926.138	12882
926.245	12981
926.352	12817
926.459	13137
926.566	12985
926.673	12882
926.779	12859
926.886	12703
926.993	12608
927.099	12642
927.206	12525
927.312	12555
927.419	12665
927.525	12585
927.631	12654
927.737	12509
927.843	12372
927.95	12311
928.056	12391
928.162	12361
928.267	12410
928.373	13000
928.479	12589
928.585	12251
928.69	12376
928.796	12464
928.901	12243
929.007	12194
929.112	12262
929.218	12213
929.323	12129
929.428	12125
929.533	12239
929.638	12045
929.743	12003
929.848	12140
929.953	12098
930.058	11931
930.163	11840
930.267	11832
930.372	11935
930.477	11783
930.581	11916
930.685	11939
930.79	11752
930.894	11695
930.998	11684
931.103	11809
931.207	11524
931.311	11395
931.415	11250
931.519	11090
931.623	11014
