Data from test_V78500241_2798.txt Node
Date: Fri Mar 25 16:01:11 CST 2022
User: usil
Spectrometer: V785-0024
Trigger mode: 0
Integration Time (sec): 4.000000E-1
Scans to average: 1
Nonlinearity correction enabled: false
Boxcar width: 0
Storing dark spectrum: false
XAxis mode: Wavelengths
Number of Pixels in Spectrum: 1024
>>>>>Begin Spectral Data<<<<<
801.071	28915
801.214	28927
801.356	28698
801.499	28607
801.641	28424
801.783	28440
801.926	28550
802.068	28531
802.211	28474
802.353	28390
802.496	28234
802.638	28173
802.78	28265
802.923	28116
803.065	28109
803.208	28166
803.35	28265
803.492	28428
803.635	28428
803.777	28344
803.919	28436
804.061	28733
804.204	28519
804.346	28481
804.488	28360
804.63	28314
804.773	28367
804.915	28394
805.057	28618
805.199	28489
805.341	28592
805.483	28725
805.626	28626
805.768	28542
805.91	28649
806.052	28554
806.194	28504
806.336	28577
806.478	28554
806.62	28565
806.762	28797
806.904	28801
807.046	29128
807.188	29128
807.33	28995
807.472	29212
807.614	29056
807.756	29197
807.898	28957
808.04	28957
808.182	28927
808.324	29010
808.465	29010
808.607	29318
808.749	29375
808.891	29490
809.033	29551
809.174	29349
809.316	29322
809.458	29307
809.6	29353
809.741	29414
809.883	29531
810.025	29691
810.166	29634
810.308	29512
810.45	29509
810.591	29410
810.733	29303
810.875	29330
811.016	29414
811.158	29216
811.299	29436
811.441	29516
811.582	29524
811.724	29417
811.865	29356
812.007	29345
812.148	29356
812.29	29509
812.431	29562
812.573	29684
812.714	29783
812.855	29813
812.997	29931
813.138	30159
813.279	30167
813.421	29950
813.562	29851
813.703	29783
813.845	29581
813.986	29379
814.127	29140
814.268	28999
814.41	29170
814.551	29018
814.692	28995
814.833	28995
814.974	28915
815.115	29052
815.256	28930
815.397	28953
815.539	28877
815.68	28858
815.821	28824
815.962	28957
816.103	28877
816.244	28588
816.385	28649
816.526	28660
816.666	28546
816.807	28493
816.948	28538
817.089	28470
817.23	28401
817.371	28272
817.512	28382
817.653	28310
817.793	28234
817.934	28352
818.075	28386
818.216	28516
818.356	28405
818.497	28390
818.638	28090
818.778	28078
818.919	28124
819.06	28143
819.2	28352
819.341	28310
819.481	28481
819.622	28679
819.762	28702
819.903	28634
820.043	28455
820.184	28504
820.324	28436
820.465	28599
820.605	28466
820.746	28561
820.886	28325
821.026	28504
821.167	28447
821.307	28485
821.447	28478
821.588	28382
821.728	28242
821.868	28078
822.008	27770
822.149	27930
822.289	27793
822.429	27568
822.569	27515
822.709	27580
822.849	27298
822.99	27370
823.13	27504
823.27	27389
823.41	27370
823.55	27074
823.69	27249
823.83	27291
823.97	27150
824.11	27020
824.25	26967
824.389	27001
824.529	27142
824.669	26921
824.809	27062
824.949	27104
825.089	27119
825.228	26967
825.368	26960
825.508	26929
825.648	26857
825.787	26994
825.927	26994
826.067	26971
826.206	26781
826.346	26948
826.485	26960
826.625	26918
826.765	27146
826.904	26952
827.044	26564
827.183	26689
827.323	26434
827.462	26667
827.601	26560
827.741	26632
827.88	26686
828.02	26469
828.159	26575
828.298	26655
828.437	26667
828.577	26590
828.716	26716
828.855	26530
828.994	26286
829.134	26195
829.273	26263
829.412	26339
829.551	26218
829.69	26252
829.829	26419
829.968	26404
830.107	26328
830.246	26210
830.385	26343
830.524	26145
830.663	26035
830.802	26058
830.941	25955
831.08	25959
831.219	26119
831.357	25947
831.496	26130
831.635	25966
831.774	25845
831.913	25928
832.051	25685
832.19	25772
832.329	25769
832.467	25693
832.606	25514
832.744	25586
832.883	25616
833.022	25586
833.16	25544
833.299	25681
833.437	25643
833.576	25845
833.714	25624
833.852	25780
833.991	25727
834.129	25898
834.267	25628
834.406	25723
834.544	25670
834.682	25578
834.821	25594
834.959	25769
835.097	25655
835.235	25647
835.373	25548
835.511	25700
835.65	25571
835.788	25540
835.926	25346
836.064	25316
836.202	25400
836.34	25479
836.478	25590
836.615	25396
836.753	25548
836.891	25453
837.029	25358
837.167	25407
837.305	25426
837.443	25308
837.58	25316
837.718	25339
837.856	25308
837.993	25293
838.131	25324
838.269	25202
838.406	25339
838.544	25095
838.681	25015
838.819	24909
838.956	24639
839.094	24798
839.231	24894
839.369	24859
839.506	25118
839.643	24981
839.781	24806
839.918	24776
840.055	24639
840.193	24604
840.33	24570
840.467	24703
840.604	24658
840.742	24901
840.879	24547
841.016	24700
841.153	24509
841.29	24631
841.427	24540
841.564	24779
841.701	24798
841.838	24639
841.975	24654
842.112	24597
842.249	24513
842.385	24460
842.522	24730
842.659	24517
842.796	24380
842.933	24437
843.069	24410
843.206	24220
843.343	24505
843.479	24388
843.616	24517
843.752	24292
843.889	24247
844.025	24372
844.162	24251
844.298	24353
844.435	24140
844.571	24140
844.708	24243
844.844	24334
844.98	24277
845.117	24426
845.253	24186
845.389	23984
845.525	24155
845.661	24053
845.798	23920
845.934	23999
846.07	23821
846.206	23920
846.342	24018
846.478	23946
846.614	23646
846.75	23531
846.886	23623
847.022	23710
847.158	23638
847.294	23608
847.429	23661
847.565	23668
847.701	23764
847.837	23421
847.972	23429
848.108	23436
848.244	23455
848.379	23280
848.515	23280
848.65	23284
848.786	23189
848.921	23258
849.057	23364
849.192	23452
849.328	23330
849.463	23220
849.598	23178
849.734	23098
849.869	23033
850.004	23094
850.14	22942
850.275	23041
850.41	22980
850.545	22881
850.68	22862
850.815	23048
850.95	23041
851.085	23174
851.22	23064
851.355	23117
851.49	23033
851.625	22908
851.76	22976
851.895	22843
852.03	22862
852.165	23022
852.299	23075
852.434	23025
852.569	22900
852.703	22991
852.838	23098
852.973	23117
853.107	23094
853.242	22934
853.376	22919
853.511	22740
853.645	22805
853.78	22843
853.914	22847
854.048	22759
854.183	22835
854.317	22881
854.451	23060
854.585	22957
854.72	22828
854.854	22927
854.988	22835
855.122	22805
855.256	22675
855.39	22778
855.524	22862
855.658	22763
855.792	22911
855.926	22843
856.06	22896
856.194	22946
856.327	22653
856.461	22869
856.595	22790
856.729	22797
856.862	22900
856.996	22824
857.13	22763
857.263	22946
857.397	22984
857.53	22771
857.664	22908
857.797	22942
857.931	22972
858.064	22949
858.197	22900
858.331	22778
858.464	22812
858.597	22771
858.731	22691
858.864	22721
858.997	22744
859.13	22755
859.263	22729
859.396	22831
859.529	22683
859.662	22744
859.795	22793
859.928	22847
860.061	22953
860.194	23033
860.327	22930
860.46	22881
860.592	22908
860.725	22934
860.858	22965
860.99	22889
861.123	22778
861.256	22797
861.388	22797
861.521	23608
861.653	22725
861.786	22527
861.918	22755
862.05	22596
862.183	22645
862.315	22809
862.447	22664
862.58	22641
862.712	22588
862.844	22497
862.976	22637
863.108	22679
863.24	23060
863.372	22500
863.504	22527
863.636	22489
863.768	22409
863.9	22557
864.032	22451
864.164	22516
864.296	22478
864.428	22679
864.559	22443
864.691	22630
864.823	22656
864.954	22535
865.086	22451
865.217	22390
865.349	22268
865.48	22421
865.612	22360
865.743	22493
865.875	22481
866.006	22318
866.137	22440
866.269	22421
866.4	22398
866.531	22360
866.662	22325
866.793	22276
866.924	22386
867.055	22325
867.186	22287
867.317	22337
867.448	22261
867.579	22215
867.71	22196
867.841	22276
867.972	22234
868.103	22280
868.233	22348
868.364	22360
868.495	22459
868.625	22459
868.756	22649
868.886	22531
869.017	22569
869.147	22599
869.278	22702
869.408	22573
869.539	22542
869.669	22630
869.799	22668
869.929	22713
870.06	22611
870.19	22748
870.32	22744
870.45	22869
870.58	22911
870.71	22942
870.84	22980
870.97	22946
871.1	22942
871.23	22987
871.36	23109
871.489	23060
871.619	23086
871.749	23174
871.879	23162
872.008	23246
872.138	23204
872.267	23147
872.397	23010
872.526	23105
872.656	22999
872.785	22930
872.915	23223
873.044	23208
873.173	23147
873.303	23242
873.432	23216
873.561	23178
873.69	23307
873.819	23041
873.948	23277
874.077	23216
874.206	23113
874.335	23235
874.464	23322
874.593	23330
874.722	23318
874.851	23402
874.979	23417
875.108	23364
875.237	23356
875.365	23140
875.494	23265
875.623	23482
875.751	23330
875.88	23345
876.008	23471
876.136	23543
876.265	23863
876.393	23828
876.521	23836
876.65	23794
876.778	23855
876.906	23703
877.034	23695
877.162	23729
877.29	23680
877.418	23733
877.546	23859
877.674	23703
877.802	23722
877.93	23733
878.058	23798
878.185	23505
878.313	23745
878.441	23611
878.568	23551
878.696	23627
878.824	23775
878.951	23939
879.079	23866
879.206	24125
879.333	23889
879.461	23703
879.588	23684
879.715	23798
879.842	23973
879.97	23764
880.097	23657
880.224	23512
880.351	23531
880.478	23680
880.605	23535
880.732	23592
880.859	23904
880.986	23486
881.112	23547
881.239	23604
881.366	23353
881.493	23334
881.619	23075
881.746	23064
881.872	23075
881.999	23052
882.125	23098
882.252	23128
882.378	23052
882.505	23189
882.631	22877
882.757	22839
882.883	22889
883.01	22729
883.136	22679
883.262	22637
883.388	22649
883.514	22828
883.64	22908
883.766	22649
883.892	22512
884.018	22512
884.143	22862
884.269	22828
884.395	22577
884.52	22367
884.646	22462
884.772	22299
884.897	22249
885.023	22272
885.148	22512
885.274	22577
885.399	22531
885.524	22371
885.65	22424
885.775	22356
885.9	22333
886.025	22584
886.15	22519
886.275	22348
886.4	22234
886.525	22318
886.65	22356
886.775	22219
886.9	22611
887.025	22531
887.149	22344
887.274	22147
887.399	22234
887.523	22253
887.648	22238
887.773	21972
887.897	22337
888.021	22169
888.146	22032
888.27	22261
888.395	22276
888.519	22238
888.643	22284
888.767	22185
888.891	21953
889.015	21979
889.139	22128
889.263	21869
889.387	21949
889.511	22143
889.635	22086
889.759	21895
889.883	21975
890.006	21816
890.13	22013
890.254	21892
890.377	21857
890.501	21743
890.624	21629
890.748	21774
890.871	21580
890.995	21454
891.118	21321
891.241	21397
891.364	21462
891.488	21591
891.611	21580
891.734	21496
891.857	21568
891.98	21416
892.103	21405
892.226	21504
892.349	21469
892.471	21348
892.594	21355
892.717	21397
892.839	21313
892.962	21435
893.085	21504
893.207	21389
893.33	21268
893.452	21348
893.575	21515
893.697	21443
893.819	21454
893.941	21564
894.064	21542
894.186	21351
894.308	21294
894.43	21557
894.552	21515
894.674	21268
894.796	21150
894.918	21370
895.04	21351
895.161	21401
895.283	21302
895.405	21256
895.526	21424
895.648	21431
895.769	21355
895.891	21416
896.012	21374
896.134	21450
896.255	21344
896.376	21313
896.498	21302
896.619	21370
896.74	21450
896.861	21431
896.982	21736
897.103	21774
897.224	21553
897.345	21469
897.466	21477
897.587	21641
897.708	21774
897.828	21610
897.949	21450
898.07	21370
898.19	21378
898.311	21747
898.431	21488
898.552	21633
898.672	21625
898.792	21564
898.913	21515
899.033	21336
899.153	21272
899.273	21275
899.393	21313
899.513	21348
899.633	21279
899.753	21176
899.873	21123
899.993	21321
900.113	21188
900.232	21249
900.352	21150
900.472	21055
900.591	20842
900.711	21043
900.83	21032
900.95	21112
901.069	21127
901.189	21051
901.308	20613
901.427	20621
901.546	20659
901.665	20583
901.784	20594
901.904	20507
902.023	20514
902.141	20176
902.26	20275
902.379	20145
902.498	20096
902.617	20096
902.735	20130
902.854	20058
902.973	19963
903.091	19738
903.21	19803
903.328	19757
903.446	19700
903.565	19586
903.683	19518
903.801	19483
903.919	19464
904.038	19411
904.156	19422
904.274	19419
904.392	19221
904.51	19225
904.627	19312
904.745	19240
904.863	19244
904.981	19228
905.098	18928
905.216	18905
905.334	18973
905.451	18973
905.569	18833
905.686	19076
905.803	19015
905.921	18802
906.038	18837
906.155	18833
906.272	18757
906.389	18650
906.506	18544
906.623	18467
906.74	18509
906.857	18350
906.974	18372
907.091	18570
907.208	18620
907.324	18445
907.441	18334
907.557	18285
907.674	18182
907.79	18209
907.907	18235
908.023	18308
908.139	18178
908.256	18140
908.372	18110
908.488	18076
908.604	17950
908.72	17923
908.836	17821
908.952	17855
909.068	17840
909.184	18041
909.3	17950
909.415	17939
909.531	17874
909.647	17672
909.762	17653
909.878	17467
909.993	17634
910.108	17478
910.224	17539
910.339	17596
910.454	17406
910.57	17402
910.685	17417
910.8	17600
910.915	17551
911.03	17379
911.145	17197
911.259	17261
911.374	17143
911.489	17056
911.604	16968
911.718	17006
911.833	16965
911.947	16774
912.062	16835
912.176	16881
912.291	17025
912.405	16976
912.519	17174
912.633	17052
912.748	16927
912.862	16862
912.976	16774
913.09	16710
913.204	16698
913.318	16725
913.431	16774
913.545	16782
913.659	16892
913.772	16630
913.886	16527
914	16538
914.113	16527
914.226	16603
914.34	16538
914.453	16367
914.566	16421
914.68	16428
914.793	16268
914.906	16150
915.019	16086
915.132	16093
915.245	16090
915.358	16051
915.47	16029
915.583	16139
915.696	16036
915.809	16093
915.921	16188
916.034	15998
916.146	16013
916.259	15991
916.371	16223
916.483	16097
916.595	15922
916.708	15949
916.82	15838
916.932	15915
917.044	15774
917.156	15812
917.268	15739
917.38	15747
917.491	15606
917.603	15739
917.715	15720
917.826	15774
917.938	15618
918.049	15450
918.161	15595
918.272	15797
918.384	15728
918.495	15797
918.606	15454
918.717	15389
918.828	15462
918.939	15462
919.05	15374
919.161	15549
919.272	15245
919.383	15329
919.494	15412
919.604	15652
919.715	15424
919.826	15214
919.936	15359
920.047	15439
920.157	15370
920.267	15652
920.378	15424
920.488	15306
920.598	15625
920.708	15637
920.818	15542
920.928	15542
921.038	15648
921.148	15584
921.258	15264
921.368	15272
921.477	15077
921.587	15089
921.697	14948
921.806	15142
921.916	15005
922.025	14826
922.134	14743
922.244	14754
922.353	14800
922.462	14674
922.571	14495
922.68	14396
922.789	14278
922.898	14358
923.007	14313
923.116	14343
923.224	14374
923.333	14301
923.442	14244
923.55	14263
923.659	14225
923.767	14218
923.876	14126
923.984	14191
924.092	14039
924.201	14168
924.309	14024
924.417	14062
924.525	14050
924.633	14062
924.741	14944
924.849	13772
924.956	13936
925.064	13826
925.172	13799
925.279	13860
925.387	13750
925.494	13799
925.602	13750
925.709	13753
925.816	13662
925.924	13677
926.031	13761
926.138	13647
926.245	13708
926.352	13559
926.459	13594
926.566	13655
926.673	13632
926.779	13426
926.886	13434
926.993	13308
927.099	13377
927.206	13187
927.312	13209
927.419	13259
927.525	13247
927.631	13278
927.737	13050
927.843	13171
927.95	12989
928.056	13088
928.162	13057
928.267	13194
928.373	13643
928.479	13084
928.585	12909
928.69	13038
928.796	13152
928.901	12947
929.007	12821
929.112	12989
929.218	12909
929.323	12852
929.428	12715
929.533	12913
929.638	12730
929.743	12684
929.848	12817
929.953	12719
930.058	12540
930.163	12445
930.267	12467
930.372	12566
930.477	12445
930.581	12582
930.685	12486
930.79	12327
930.894	12323
930.998	12327
931.103	12414
931.207	12079
931.311	11923
931.415	11942
931.519	11642
931.623	11737
