Data from test_V78500241_1715.txt Node
Date: Fri Mar 25 15:53:40 CST 2022
User: usil
Spectrometer: V785-0024
Trigger mode: 0
Integration Time (sec): 4.000000E-1
Scans to average: 1
Nonlinearity correction enabled: false
Boxcar width: 0
Storing dark spectrum: false
XAxis mode: Wavelengths
Number of Pixels in Spectrum: 1024
>>>>>Begin Spectral Data<<<<<
801.071	28322
801.214	28223
801.356	28025
801.499	27975
801.641	27895
801.783	27816
801.926	27808
802.068	27838
802.211	27785
802.353	27641
802.496	27682
802.638	27545
802.78	27549
802.923	27397
803.065	27435
803.208	27492
803.35	27481
803.492	27660
803.635	27736
803.777	27637
803.919	27644
804.061	28051
804.204	27816
804.346	27690
804.488	27637
804.63	27762
804.773	27641
804.915	27701
805.057	27850
805.199	27747
805.341	27880
805.483	27850
805.626	27972
805.768	27800
805.91	27743
806.052	27854
806.194	27793
806.336	27972
806.478	27835
806.62	27800
806.762	27918
806.904	28093
807.046	28386
807.188	28295
807.33	28367
807.472	28428
807.614	28276
807.756	28371
807.898	28120
808.04	28143
808.182	28124
808.324	28139
808.465	28333
808.607	28447
808.749	28428
808.891	28729
809.033	28653
809.174	28481
809.316	28504
809.458	28451
809.6	28634
809.741	28504
809.883	28809
810.025	28824
810.166	28778
810.308	28801
810.45	28850
810.591	28736
810.733	28550
810.875	28523
811.016	28436
811.158	28478
811.299	28516
811.441	28584
811.582	28721
811.724	28508
811.865	28474
812.007	28474
812.148	28622
812.29	28557
812.431	28729
812.573	28888
812.714	29014
812.855	29079
812.997	29105
813.138	29250
813.279	29269
813.421	28942
813.562	29033
813.703	28908
813.845	28622
813.986	28531
814.127	28344
814.268	28253
814.41	28238
814.551	28287
814.692	28238
814.833	28211
814.974	28238
815.115	28223
815.256	28139
815.397	28048
815.539	28173
815.68	28086
815.821	27979
815.962	28040
816.103	28032
816.244	27972
816.385	27686
816.526	27766
816.666	27538
816.807	27416
816.948	27728
817.089	27629
817.23	27561
817.371	27454
817.512	27496
817.653	27530
817.793	27447
817.934	27439
818.075	27523
818.216	27431
818.356	27507
818.497	27427
818.638	27317
818.778	27443
818.919	27363
819.06	27367
819.2	27249
819.341	27542
819.481	27488
819.622	27656
819.762	27956
819.903	27781
820.043	27774
820.184	27618
820.324	27633
820.465	27698
820.605	27717
820.746	27614
820.886	27454
821.026	27542
821.167	27599
821.307	27831
821.447	27576
821.588	27496
821.728	27363
821.868	27165
822.008	26967
822.149	27039
822.289	26979
822.429	26686
822.569	26773
822.709	26754
822.849	26537
822.99	26575
823.13	26461
823.27	26492
823.41	26393
823.55	26309
823.69	26549
823.83	26423
823.97	26214
824.11	26202
824.25	26016
824.389	26111
824.529	26313
824.669	26111
824.809	26290
824.949	26301
825.089	26290
825.228	26183
825.368	26031
825.508	26024
825.648	26100
825.787	26142
825.927	26225
826.067	26012
826.206	26073
826.346	25993
826.485	25997
826.625	25928
826.765	26145
826.904	26153
827.044	25845
827.183	25807
827.323	25719
827.462	25784
827.601	25879
827.741	25780
827.88	25674
828.02	25601
828.159	25761
828.298	25803
828.437	25799
828.577	25822
828.716	25776
828.855	25738
828.994	25495
829.134	25472
829.273	25453
829.412	25365
829.551	25400
829.69	25476
829.829	25586
829.968	25518
830.107	25483
830.246	25434
830.385	25335
830.524	25396
830.663	25335
830.802	25095
830.941	25107
831.08	24992
831.219	25175
831.357	25019
831.496	25206
831.635	25110
831.774	25072
831.913	24856
832.051	24928
832.19	24924
832.329	24954
832.467	24745
832.606	24791
832.744	24719
832.883	24810
833.022	24730
833.16	24589
833.299	24764
833.437	24772
833.576	24814
833.714	24776
833.852	24806
833.991	24749
834.129	24871
834.267	24913
834.406	24791
834.544	24875
834.682	24753
834.821	24738
834.959	24890
835.097	24631
835.235	24814
835.373	24779
835.511	24787
835.65	24707
835.788	24612
835.926	24578
836.064	24448
836.202	24585
836.34	24540
836.478	24681
836.615	24646
836.753	24665
836.891	24661
837.029	24604
837.167	24650
837.305	24513
837.443	24505
837.58	24604
837.718	24471
837.856	24566
837.993	24433
838.131	24418
838.269	24403
838.406	24395
838.544	24251
838.681	24155
838.819	24125
838.956	23935
839.094	23988
839.231	23847
839.369	24060
839.506	24327
839.643	24121
839.781	23908
839.918	23790
840.055	23805
840.193	23965
840.33	23870
840.467	23840
840.604	23843
840.742	24247
840.879	23676
841.016	23794
841.153	23718
841.29	23931
841.427	23821
841.564	23980
841.701	23893
841.838	23779
841.975	23737
842.112	23714
842.249	23531
842.385	23642
842.522	23802
842.659	23558
842.796	23516
842.933	23634
843.069	23398
843.206	23600
843.343	23646
843.479	23463
843.616	23474
843.752	23524
843.889	23376
844.025	23482
844.162	23345
844.298	23356
844.435	23307
844.571	23360
844.708	23356
844.844	23531
844.98	23448
845.117	23505
845.253	23231
845.389	23189
845.525	23254
845.661	23220
845.798	22984
845.934	23056
846.07	23060
846.206	23075
846.342	23200
846.478	23166
846.614	22809
846.75	22896
846.886	22809
847.022	22828
847.158	22782
847.294	22824
847.429	22702
847.565	22778
847.701	22991
847.837	22573
847.972	22500
848.108	22611
848.244	22596
848.379	22512
848.515	22394
848.65	22371
848.786	22440
848.921	22451
849.057	22436
849.192	22447
849.328	22538
849.463	22478
849.598	22413
849.734	22352
849.869	22291
850.004	22181
850.14	22234
850.275	22215
850.41	22097
850.545	22059
850.68	22131
850.815	22177
850.95	22120
851.085	22421
851.22	22341
851.355	22299
851.49	22128
851.625	22242
851.76	22211
851.895	22143
852.03	22112
852.165	22154
852.299	22306
852.434	22192
852.569	22196
852.703	22090
852.838	22200
852.973	22367
853.107	22223
853.242	22135
853.376	21983
853.511	22036
853.645	21915
853.78	22067
853.914	22021
854.048	21949
854.183	22006
854.317	22154
854.451	22272
854.585	21907
854.72	21892
854.854	22044
854.988	21975
855.122	21960
855.256	21918
855.39	21880
855.524	22044
855.658	22051
855.792	22036
855.926	21972
856.06	22063
856.194	21941
856.327	21983
856.461	21968
856.595	21975
856.729	22063
856.862	22154
856.996	22078
857.13	22112
857.263	22207
857.397	22177
857.53	22029
857.664	22139
857.797	22158
857.931	22017
858.064	21934
858.197	22059
858.331	21945
858.464	21945
858.597	21876
858.731	21926
858.864	21903
858.997	21911
859.13	21960
859.263	21956
859.396	22055
859.529	21918
859.662	22006
859.795	21998
859.928	22120
860.061	22219
860.194	22086
860.327	22158
860.46	22006
860.592	22078
860.725	22139
860.858	22105
860.99	21994
861.123	21934
861.256	21884
861.388	21975
861.521	22679
861.653	21808
861.786	21800
861.918	21838
862.05	21911
862.183	21823
862.315	22002
862.447	22070
862.58	21835
862.712	21709
862.844	21774
862.976	21762
863.108	21739
863.24	21994
863.372	21709
863.504	21698
863.636	21644
863.768	21656
863.9	21644
864.032	21698
864.164	21587
864.296	21667
864.428	21789
864.559	21774
864.691	21804
864.823	21736
864.954	21675
865.086	21686
865.217	21644
865.349	21606
865.48	21534
865.612	21576
865.743	21656
865.875	21679
866.006	21530
866.137	21610
866.269	21549
866.4	21534
866.531	21583
866.662	21523
866.793	21428
866.924	21477
867.055	21515
867.186	21473
867.317	21447
867.448	21401
867.579	21488
867.71	21500
867.841	21393
867.972	21469
868.103	21435
868.233	21534
868.364	21523
868.495	21603
868.625	21671
868.756	21819
868.886	21656
869.017	21728
869.147	21895
869.278	21854
869.408	21850
869.539	21667
869.669	21816
869.799	21880
869.929	21770
870.06	21926
870.19	21926
870.32	22048
870.45	22090
870.58	22105
870.71	22211
870.84	22185
870.97	22158
871.1	22181
871.23	22462
871.36	22344
871.489	22207
871.619	22280
871.749	22325
871.879	22303
872.008	22451
872.138	22424
872.267	22333
872.397	22162
872.526	22162
872.656	22105
872.785	22112
872.915	22363
873.044	22417
873.173	22382
873.303	22386
873.432	22398
873.561	22466
873.69	22405
873.819	22390
873.948	22367
874.077	22382
874.206	22394
874.335	22341
874.464	22504
874.593	22538
874.722	22474
874.851	22618
874.979	22596
875.108	22691
875.237	22413
875.365	22535
875.494	22569
875.623	22637
875.751	22535
875.88	22603
876.008	22854
876.136	22835
876.265	22862
876.393	23044
876.521	23003
876.65	23064
876.778	23018
876.906	22980
877.034	22900
877.162	22957
877.29	22778
877.418	22949
877.546	22873
877.674	22862
877.802	22793
877.93	22866
878.058	22824
878.185	22637
878.313	22896
878.441	23010
878.568	22733
878.696	22774
878.824	22820
878.951	22965
879.079	23071
879.206	23284
879.333	23132
879.461	23052
879.588	22953
879.715	23098
879.842	23220
879.97	22987
880.097	22649
880.224	22664
880.351	22866
880.478	22767
880.605	22713
880.732	22774
880.859	22854
880.986	22736
881.112	22809
881.239	22637
881.366	22417
881.493	22459
881.619	22314
881.746	22402
881.872	22352
881.999	22344
882.125	22360
882.252	22402
882.378	22261
882.505	22382
882.631	22169
882.757	22139
882.883	22048
883.01	21953
883.136	22036
883.262	21800
883.388	21759
883.514	22040
883.64	21941
883.766	21987
883.892	21747
884.018	21926
884.143	21937
884.269	22093
884.395	21789
884.52	21507
884.646	21690
884.772	21405
884.897	21553
885.023	21686
885.148	21663
885.274	21781
885.399	21736
885.524	21523
885.65	21739
885.775	21713
885.9	21564
886.025	21690
886.15	21698
886.275	21641
886.4	21458
886.525	21530
886.65	21458
886.775	21492
886.9	21694
887.025	21759
887.149	21519
887.274	21538
887.399	21424
887.523	21233
887.648	21237
887.773	21336
887.897	21439
888.021	21450
888.146	21317
888.27	21492
888.395	21500
888.519	21485
888.643	21481
888.767	21458
888.891	21310
889.015	21180
889.139	21214
889.263	21237
889.387	21298
889.511	21344
889.635	21207
889.759	21135
889.883	21222
890.006	21173
890.13	21393
890.254	21055
890.377	21100
890.501	20902
890.624	20967
890.748	20982
890.871	21047
890.995	20629
891.118	20617
891.241	20640
891.364	20701
891.488	20826
891.611	20708
891.734	20689
891.857	20697
891.98	20807
892.103	20834
892.226	20701
892.349	20826
892.471	20632
892.594	20663
892.717	20625
892.839	20594
892.962	20689
893.085	20617
893.207	20590
893.33	20530
893.452	20514
893.575	20720
893.697	20648
893.819	20796
893.941	20678
894.064	20826
894.186	20545
894.308	20560
894.43	20613
894.552	20842
894.674	20705
894.796	20457
894.918	20533
895.04	20727
895.161	20739
895.283	20594
895.405	20606
895.526	20636
895.648	20495
895.769	20629
895.891	20667
896.012	20750
896.134	20720
896.255	20640
896.376	20629
896.498	20682
896.619	20530
896.74	20678
896.861	20575
896.982	20956
897.103	21252
897.224	21001
897.345	20838
897.466	20796
897.587	20944
897.708	21028
897.828	20823
897.949	20750
898.07	20731
898.19	20796
898.311	20937
898.431	20731
898.552	20849
898.672	20895
898.792	20918
898.913	20876
899.033	20769
899.153	20632
899.273	20457
899.393	20571
899.513	20674
899.633	20663
899.753	20533
899.873	20590
899.993	20541
900.113	20404
900.232	20556
900.352	20347
900.472	20358
900.591	20290
900.711	20461
900.83	20221
900.95	20446
901.069	20530
901.189	20244
901.308	19951
901.427	19909
901.546	19997
901.665	20050
901.784	19818
901.904	19803
902.023	19738
902.141	19563
902.26	19441
902.379	19506
902.498	19411
902.617	19453
902.735	19457
902.854	19362
902.973	19331
903.091	19221
903.21	19069
903.328	19103
903.446	19015
903.565	18802
903.683	18920
903.801	18753
903.919	18833
904.038	18814
904.156	18570
904.274	18753
904.392	18616
904.51	18715
904.627	18563
904.745	18757
904.863	18715
904.981	18429
905.098	18258
905.216	18289
905.334	18350
905.451	18380
905.569	18285
905.686	18399
905.803	18281
905.921	18106
906.038	18270
906.155	18144
906.272	18034
906.389	18091
906.506	17912
906.623	17889
906.74	17843
906.857	17767
906.974	17889
907.091	17942
907.208	17965
907.324	17824
907.441	17764
907.557	17695
907.674	17539
907.79	17493
907.907	17710
908.023	17600
908.139	17619
908.256	17474
908.372	17379
908.488	17444
908.604	17372
908.72	17299
908.836	17368
908.952	17326
909.068	17315
909.184	17486
909.3	17258
909.415	17258
909.531	17292
909.647	17102
909.762	16968
909.878	16961
909.993	16942
910.108	16900
910.224	16980
910.339	16915
910.454	16797
910.57	16744
910.685	16797
910.8	16915
910.915	16968
911.03	16740
911.145	16656
911.259	16622
911.374	16630
911.489	16459
911.604	16481
911.718	16299
911.833	16398
911.947	16181
912.062	16200
912.176	16299
912.291	16341
912.405	16356
912.519	16554
912.633	16596
912.748	16447
912.862	16322
912.976	16192
913.09	16059
913.204	16067
913.318	16017
913.431	16242
913.545	16154
913.659	16215
913.772	16071
913.886	15915
914	15949
914.113	16029
914.226	15991
914.34	15911
914.453	15865
914.566	15869
914.68	15846
914.793	15739
914.906	15618
915.019	15633
915.132	15572
915.245	15424
915.358	15538
915.47	15504
915.583	15553
915.696	15561
915.809	15561
915.921	15671
916.034	15469
916.146	15359
916.259	15294
916.371	15488
916.483	15386
916.595	15363
916.708	15325
916.82	15408
916.932	15397
917.044	15279
917.156	15260
917.268	15104
917.38	15188
917.491	15093
917.603	15131
917.715	15241
917.826	15306
917.938	15081
918.049	14994
918.161	15085
918.272	15256
918.384	15222
918.495	15085
918.606	14937
918.717	14872
918.828	14914
918.939	14891
919.05	14842
919.161	14880
919.272	14659
919.383	14750
919.494	14948
919.604	15039
919.715	14823
919.826	14758
919.936	14891
920.047	14906
920.157	14895
920.267	15085
920.378	14853
920.488	14792
920.598	15058
920.708	15188
920.818	14906
920.928	14975
921.038	15218
921.148	15055
921.258	14823
921.368	14708
921.477	14587
921.587	14583
921.697	14484
921.806	14568
921.916	14415
922.025	14271
922.134	14259
922.244	14126
922.353	14221
922.462	14149
922.571	14039
922.68	13784
922.789	13826
922.898	13936
923.007	13906
923.116	13921
923.224	13902
923.333	13887
923.442	13750
923.55	13742
923.659	13693
923.767	13742
923.876	13609
923.984	13704
924.092	13613
924.201	13674
924.309	13575
924.417	13613
924.525	13468
924.633	13468
924.741	14362
924.849	13297
924.956	13491
925.064	13285
925.172	13274
925.279	13187
925.387	13324
925.494	13266
925.602	13358
925.709	13403
925.816	13190
925.924	13091
926.031	13282
926.138	13221
926.245	13247
926.352	13069
926.459	13221
926.566	13152
926.673	13072
926.779	13065
926.886	13099
926.993	12859
927.099	12852
927.206	12787
927.312	12779
927.419	12932
927.525	12760
927.631	12772
927.737	12734
927.843	12616
927.95	12585
928.056	12623
928.162	12654
928.267	12703
928.373	13396
928.479	12662
928.585	12517
928.69	12642
928.796	12608
928.901	12460
929.007	12365
929.112	12445
929.218	12441
929.323	12479
929.428	12353
929.533	12494
929.638	12216
929.743	12327
929.848	12300
929.953	12292
930.058	12209
930.163	11961
930.267	12060
930.372	12140
930.477	11942
930.581	12258
930.685	12015
930.79	11908
930.894	12022
930.998	11866
931.103	12003
931.207	11688
931.311	11684
931.415	11478
931.519	11303
931.623	11292
