Data from test_V78500241_1687.txt Node
Date: Fri Mar 25 15:53:29 CST 2022
User: usil
Spectrometer: V785-0024
Trigger mode: 0
Integration Time (sec): 4.000000E-1
Scans to average: 1
Nonlinearity correction enabled: false
Boxcar width: 0
Storing dark spectrum: false
XAxis mode: Wavelengths
Number of Pixels in Spectrum: 1024
>>>>>Begin Spectral Data<<<<<
801.071	28230
801.214	28120
801.356	28021
801.499	27945
801.641	27854
801.783	27804
801.926	27968
802.068	27778
802.211	27835
802.353	27690
802.496	27515
802.638	27473
802.78	27538
802.923	27492
803.065	27397
803.208	27603
803.35	27389
803.492	27720
803.635	27876
803.777	27557
803.919	27774
804.061	28021
804.204	27812
804.346	27675
804.488	27599
804.63	27686
804.773	27713
804.915	27857
805.057	27869
805.199	27804
805.341	27937
805.483	27850
805.626	27945
805.768	27762
805.91	27823
806.052	27949
806.194	27755
806.336	28093
806.478	27953
806.62	27827
806.762	28017
806.904	28093
807.046	28390
807.188	28371
807.33	28363
807.472	28379
807.614	28268
807.756	28299
807.898	28181
808.04	28093
808.182	28116
808.324	28234
808.465	28265
808.607	28455
808.749	28489
808.891	28706
809.033	28748
809.174	28763
809.316	28660
809.458	28512
809.6	28557
809.741	28729
809.883	28771
810.025	28885
810.166	28843
810.308	28881
810.45	28790
810.591	28820
810.733	28546
810.875	28603
811.016	28508
811.158	28436
811.299	28694
811.441	28771
811.582	28763
811.724	28687
811.865	28500
812.007	28481
812.148	28455
812.29	28459
812.431	28740
812.573	28888
812.714	29018
812.855	29140
812.997	29128
813.138	29299
813.279	29311
813.421	29162
813.562	29006
813.703	28949
813.845	28790
813.986	28641
814.127	28489
814.268	28360
814.41	28291
814.551	28318
814.692	28367
814.833	28143
814.974	28169
815.115	28284
815.256	28219
815.397	28040
815.539	28177
815.68	28120
815.821	27960
815.962	28131
816.103	28200
816.244	27888
816.385	27953
816.526	27876
816.666	27720
816.807	27549
816.948	27603
817.089	27713
817.23	27698
817.371	27545
817.512	27591
817.653	27469
817.793	27568
817.934	27644
818.075	27587
818.216	27561
818.356	27412
818.497	27405
818.638	27302
818.778	27264
818.919	27355
819.06	27374
819.2	27458
819.341	27705
819.481	27511
819.622	27762
819.762	27926
819.903	27800
820.043	27713
820.184	27797
820.324	27694
820.465	27694
820.605	27797
820.746	27557
820.886	27587
821.026	27663
821.167	27545
821.307	27523
821.447	27622
821.588	27454
821.728	27329
821.868	27249
822.008	27100
822.149	27085
822.289	27047
822.429	26815
822.569	26731
822.709	26689
822.849	26587
822.99	26670
823.13	26659
823.27	26579
823.41	26290
823.55	26233
823.69	26396
823.83	26450
823.97	26305
824.11	26206
824.25	26084
824.389	26145
824.529	26252
824.669	26225
824.809	26362
824.949	26157
825.089	26294
825.228	26271
825.368	26065
825.508	25951
825.648	26115
825.787	26199
825.927	26153
826.067	26180
826.206	25963
826.346	26183
826.485	26008
826.625	25997
826.765	26221
826.904	26096
827.044	25811
827.183	26005
827.323	25727
827.462	25932
827.601	25639
827.741	25780
827.88	25879
828.02	25670
828.159	25837
828.298	25635
828.437	25822
828.577	25658
828.716	25917
828.855	25822
828.994	25457
829.134	25529
829.273	25556
829.412	25476
829.551	25502
829.69	25476
829.829	25502
829.968	25460
830.107	25506
830.246	25552
830.385	25411
830.524	25263
830.663	25331
830.802	25179
830.941	25038
831.08	25122
831.219	25179
831.357	25133
831.496	25335
831.635	25080
831.774	25046
831.913	24878
832.051	24863
832.19	24932
832.329	24890
832.467	24677
832.606	24757
832.744	24658
832.883	24764
833.022	24722
833.16	24681
833.299	24760
833.437	24833
833.576	24913
833.714	24856
833.852	24817
833.991	24821
834.129	24798
834.267	24920
834.406	24745
834.544	24840
834.682	24741
834.821	24878
834.959	25042
835.097	24673
835.235	24928
835.373	24848
835.511	24738
835.65	24715
835.788	24783
835.926	24483
836.064	24517
836.202	24467
836.34	24734
836.478	24703
836.615	24601
836.753	24642
836.891	24783
837.029	24578
837.167	24661
837.305	24509
837.443	24448
837.58	24460
837.718	24544
837.856	24532
837.993	24403
838.131	24426
838.269	24391
838.406	24323
838.544	24426
838.681	24117
838.819	24136
838.956	24003
839.094	24018
839.231	23920
839.369	24148
839.506	24414
839.643	24197
839.781	23889
839.918	23961
840.055	23969
840.193	23870
840.33	23893
840.467	23923
840.604	23923
840.742	24190
840.879	23680
841.016	23733
841.153	23718
841.29	23805
841.427	23874
841.564	23897
841.701	23882
841.838	23764
841.975	23649
842.112	23866
842.249	23665
842.385	23729
842.522	23908
842.659	23653
842.796	23600
842.933	23577
843.069	23737
843.206	23570
843.343	23714
843.479	23608
843.616	23623
843.752	23512
843.889	23467
844.025	23455
844.162	23345
844.298	23429
844.435	23303
844.571	23406
844.708	23478
844.844	23653
844.98	23421
845.117	23509
845.253	23334
845.389	23235
845.525	23220
845.661	23132
845.798	23090
845.934	23079
846.07	23128
846.206	23227
846.342	23269
846.478	23113
846.614	22858
846.75	22698
846.886	22786
847.022	22873
847.158	22805
847.294	22885
847.429	22862
847.565	22767
847.701	23109
847.837	22557
847.972	22626
848.108	22615
848.244	22645
848.379	22702
848.515	22417
848.65	22344
848.786	22428
848.921	22413
849.057	22538
849.192	22512
849.328	22584
849.463	22367
849.598	22363
849.734	22287
849.869	22306
850.004	22158
850.14	22131
850.275	22265
850.41	22029
850.545	22109
850.68	22124
850.815	22234
850.95	22120
851.085	22337
851.22	22295
851.355	22375
851.49	22150
851.625	22135
851.76	22166
851.895	22131
852.03	22226
852.165	22242
852.299	22177
852.434	22314
852.569	22215
852.703	22280
852.838	22257
852.973	22413
853.107	22341
853.242	22135
853.376	22093
853.511	21895
853.645	21968
853.78	22082
853.914	21972
854.048	21945
854.183	21907
854.317	21972
854.451	22093
854.585	21926
854.72	21994
854.854	22093
854.988	21953
855.122	21945
855.256	21953
855.39	21907
855.524	22051
855.658	21960
855.792	22055
855.926	22040
856.06	21972
856.194	22021
856.327	21975
856.461	21983
856.595	21941
856.729	21915
856.862	22207
856.996	22109
857.13	22044
857.263	22070
857.397	22097
857.53	21873
857.664	21979
857.797	22051
857.931	22177
858.064	22002
858.197	22105
858.331	22002
858.464	22059
858.597	22044
858.731	22006
858.864	21918
858.997	21945
859.13	21941
859.263	21975
859.396	22166
859.529	22002
859.662	22021
859.795	22086
859.928	21994
860.061	22105
860.194	22181
860.327	21968
860.46	21899
860.592	22185
860.725	22173
860.858	22093
860.99	21998
861.123	21926
861.256	21956
861.388	22025
861.521	22763
861.653	21842
861.786	21797
861.918	21812
862.05	21941
862.183	21964
862.315	22055
862.447	21998
862.58	21915
862.712	21720
862.844	21644
862.976	21888
863.108	21724
863.24	22413
863.372	21587
863.504	21656
863.636	21739
863.768	21690
863.9	21808
864.032	21663
864.164	21812
864.296	21797
864.428	21819
864.559	21793
864.691	21781
864.823	21694
864.954	21671
865.086	21728
865.217	21606
865.349	21519
865.48	21652
865.612	21580
865.743	21766
865.875	21557
866.006	21614
866.137	21549
866.269	21595
866.4	21622
866.531	21633
866.662	21568
866.793	21462
866.924	21580
867.055	21542
867.186	21549
867.317	21500
867.448	21424
867.579	21443
867.71	21523
867.841	21500
867.972	21561
868.103	21500
868.233	21473
868.364	21542
868.495	21618
868.625	21873
868.756	21892
868.886	21526
869.017	21804
869.147	21880
869.278	21983
869.408	21785
869.539	21861
869.669	21968
869.799	21713
869.929	21979
870.06	21987
870.19	22040
870.32	22036
870.45	22139
870.58	22219
870.71	22253
870.84	22344
870.97	22226
871.1	22318
871.23	22363
871.36	22455
871.489	22367
871.619	22398
871.749	22386
871.879	22493
872.008	22489
872.138	22459
872.267	22390
872.397	22257
872.526	22215
872.656	22253
872.785	22246
872.915	22493
873.044	22421
873.173	22386
873.303	22569
873.432	22512
873.561	22405
873.69	22405
873.819	22375
873.948	22569
874.077	22367
874.206	22367
874.335	22470
874.464	22493
874.593	22721
874.722	22615
874.851	22740
874.979	22694
875.108	22710
875.237	22618
875.365	22470
875.494	22664
875.623	22759
875.751	22592
875.88	22668
876.008	22809
876.136	22862
876.265	23025
876.393	23151
876.521	23071
876.65	23075
876.778	22877
876.906	23003
877.034	22938
877.162	23098
877.29	22900
877.418	22995
877.546	22991
877.674	23003
877.802	22957
877.93	22987
878.058	22889
878.185	22820
878.313	22896
878.441	22949
878.568	22790
878.696	22900
878.824	22900
878.951	22976
879.079	23410
879.206	23315
879.333	23170
879.461	23090
879.588	23117
879.715	23090
879.842	23220
879.97	22976
880.097	22790
880.224	22911
880.351	22858
880.478	22698
880.605	22759
880.732	22793
880.859	22980
880.986	22843
881.112	22748
881.239	22592
881.366	22531
881.493	22443
881.619	22337
881.746	22287
881.872	22325
881.999	22504
882.125	22379
882.252	22325
882.378	22363
882.505	22432
882.631	22139
882.757	22105
882.883	22166
883.01	22055
883.136	22120
883.262	21846
883.388	21911
883.514	22029
883.64	22070
883.766	21884
883.892	21838
884.018	21838
884.143	21968
884.269	22093
884.395	21724
884.52	21713
884.646	21648
884.772	21667
884.897	21633
885.023	21698
885.148	21720
885.274	21941
885.399	21838
885.524	21606
885.65	21732
885.775	21736
885.9	21717
886.025	21774
886.15	21671
886.275	21762
886.4	21553
886.525	21542
886.65	21633
886.775	21595
886.9	21793
887.025	21789
887.149	21686
887.274	21580
887.399	21401
887.523	21420
887.648	21374
887.773	21298
887.897	21500
888.021	21408
888.146	21313
888.27	21477
888.395	21534
888.519	21473
888.643	21469
888.767	21477
888.891	21443
889.015	21306
889.139	21382
889.263	21211
889.387	21351
889.511	21530
889.635	21393
889.759	21245
889.883	21283
890.006	21249
890.13	21237
890.254	21119
890.377	21127
890.501	21089
890.624	20895
890.748	21089
890.871	20868
890.995	20800
891.118	20750
891.241	20792
891.364	20823
891.488	20880
891.611	20842
891.734	20716
891.857	20853
891.98	20826
892.103	20842
892.226	20781
892.349	20689
892.471	20526
892.594	20686
892.717	20792
892.839	20788
892.962	20705
893.085	20735
893.207	20659
893.33	20590
893.452	20606
893.575	20743
893.697	20667
893.819	20804
893.941	20891
894.064	20762
894.186	20560
894.308	20549
894.43	20670
894.552	20788
894.674	20758
894.796	20750
894.918	20655
895.04	20594
895.161	20826
895.283	20659
895.405	20762
895.526	20693
895.648	20670
895.769	20792
895.891	20701
896.012	20769
896.134	20651
896.255	20762
896.376	20773
896.498	20644
896.619	20705
896.74	20629
896.861	20667
896.982	20895
897.103	21142
897.224	21009
897.345	20902
897.466	20872
897.587	20906
897.708	20967
897.828	20868
897.949	21017
898.07	20689
898.19	20811
898.311	20899
898.431	20819
898.552	20902
898.672	20952
898.792	20925
898.913	20910
899.033	20644
899.153	20674
899.273	20644
899.393	20670
899.513	20712
899.633	20632
899.753	20731
899.873	20602
899.993	20640
900.113	20648
900.232	20686
900.352	20492
900.472	20492
900.591	20320
900.711	20389
900.83	20248
900.95	20408
901.069	20377
901.189	20210
901.308	20001
901.427	19955
901.546	20153
901.665	20084
901.784	19921
901.904	19769
902.023	19780
902.141	19677
902.26	19559
902.379	19624
902.498	19388
902.617	19381
902.735	19419
902.854	19415
902.973	19396
903.091	19244
903.21	19217
903.328	19034
903.446	19133
903.565	19000
903.683	18943
903.801	18863
903.919	18909
904.038	18882
904.156	18760
904.274	18802
904.392	18623
904.51	18757
904.627	18711
904.745	18681
904.863	18844
904.981	18483
905.098	18372
905.216	18429
905.334	18376
905.451	18426
905.569	18384
905.686	18258
905.803	18422
905.921	18228
906.038	18247
906.155	18205
906.272	18163
906.389	18068
906.506	17977
906.623	17904
906.74	17882
906.857	17729
906.974	17851
907.091	17870
907.208	18072
907.324	17961
907.441	17748
907.557	17657
907.674	17630
907.79	17562
907.907	17596
908.023	17638
908.139	17672
908.256	17558
908.372	17490
908.488	17459
908.604	17368
908.72	17376
908.836	17337
908.952	17212
909.068	17391
909.184	17482
909.3	17391
909.415	17315
909.531	17318
909.647	17109
909.762	17025
909.878	17014
909.993	17037
910.108	17056
910.224	16987
910.339	16953
910.454	16904
910.57	16850
910.685	16702
910.8	17117
910.915	17086
911.03	16873
911.145	16630
911.259	16603
911.374	16603
911.489	16481
911.604	16523
911.718	16371
911.833	16432
911.947	16246
912.062	16322
912.176	16314
912.291	16402
912.405	16386
912.519	16527
912.633	16584
912.748	16409
912.862	16356
912.976	16204
913.09	16109
913.204	16143
913.318	16253
913.431	16295
913.545	16204
913.659	16257
913.772	16181
913.886	16040
914	15956
914.113	16029
914.226	16010
914.34	16071
914.453	15827
914.566	15941
914.68	15899
914.793	15800
914.906	15644
915.019	15488
915.132	15553
915.245	15553
915.358	15591
915.47	15568
915.583	15671
915.696	15564
915.809	15701
915.921	15660
916.034	15511
916.146	15511
916.259	15477
916.371	15504
916.483	15553
916.595	15344
916.708	15454
916.82	15408
916.932	15310
917.044	15348
917.156	15325
917.268	15150
917.38	15233
917.491	15188
917.603	15150
917.715	15180
917.826	15233
917.938	15123
918.049	14952
918.161	15043
918.272	15218
918.384	15199
918.495	15070
918.606	15017
918.717	14853
918.828	14944
918.939	14971
919.05	14838
919.161	14956
919.272	14773
919.383	14826
919.494	15116
919.604	15135
919.715	14937
919.826	14864
919.936	14929
920.047	15047
920.157	14921
920.267	15028
920.378	15005
920.488	14906
920.598	15058
920.708	15222
920.818	15020
920.928	14933
921.038	15195
921.148	15157
921.258	14891
921.368	14769
921.477	14667
921.587	14598
921.697	14469
921.806	14678
921.916	14556
922.025	14301
922.134	14172
922.244	14199
922.353	14355
922.462	14153
922.571	14065
922.68	13940
922.789	13917
922.898	13993
923.007	13833
923.116	13936
923.224	13955
923.333	13841
923.442	13757
923.55	13742
923.659	13704
923.767	13849
923.876	13765
923.984	13715
924.092	13628
924.201	13647
924.309	13658
924.417	13677
924.525	13636
924.633	13594
924.741	14301
924.849	13339
924.956	13426
925.064	13331
925.172	13251
925.279	13392
925.387	13289
925.494	13308
925.602	13400
925.709	13263
925.816	13141
925.924	13308
926.031	13270
926.138	13259
926.245	13331
926.352	13160
926.459	13236
926.566	13339
926.673	13110
926.779	13034
926.886	13084
926.993	12928
927.099	12890
927.206	12783
927.312	12787
927.419	12890
927.525	12882
927.631	12856
927.737	12833
927.843	12741
927.95	12639
928.056	12703
928.162	12711
928.267	12715
928.373	13278
928.479	12741
928.585	12460
928.69	12616
928.796	12620
928.901	12544
929.007	12486
929.112	12559
929.218	12475
929.323	12376
929.428	12300
929.533	12498
929.638	12232
929.743	12289
929.848	12365
929.953	12338
930.058	12106
930.163	12121
930.267	12083
930.372	12213
930.477	12079
930.581	12277
930.685	12091
930.79	11958
930.894	11969
930.998	11927
931.103	12045
931.207	11695
931.311	11630
931.415	11471
931.519	11326
931.623	11345
