Data from test_V78500241_2405.txt Node
Date: Fri Mar 25 15:58:27 CST 2022
User: usil
Spectrometer: V785-0024
Trigger mode: 0
Integration Time (sec): 4.000000E-1
Scans to average: 1
Nonlinearity correction enabled: false
Boxcar width: 0
Storing dark spectrum: false
XAxis mode: Wavelengths
Number of Pixels in Spectrum: 1024
>>>>>Begin Spectral Data<<<<<
801.071	27991
801.214	27888
801.356	27800
801.499	27671
801.641	27603
801.783	27557
801.926	27625
802.068	27576
802.211	27504
802.353	27526
802.496	27302
802.638	27382
802.78	27180
802.923	27112
803.065	27154
803.208	27226
803.35	27397
803.492	27230
803.635	27393
803.777	27412
803.919	27523
804.061	27759
804.204	27443
804.346	27424
804.488	27431
804.63	27424
804.773	27477
804.915	27458
805.057	27606
805.199	27424
805.341	27599
805.483	27679
805.626	27743
805.768	27530
805.91	27644
806.052	27690
806.194	27648
806.336	27857
806.478	27648
806.62	27759
806.762	27899
806.904	27804
807.046	28166
807.188	28051
807.33	28010
807.472	28101
807.614	28082
807.756	28032
807.898	27922
808.04	27724
808.182	27755
808.324	27797
808.465	27949
808.607	28188
808.749	28348
808.891	28356
809.033	28417
809.174	28204
809.316	28379
809.458	28242
809.6	28143
809.741	28329
809.883	28424
810.025	28607
810.166	28447
810.308	28409
810.45	28561
810.591	28615
810.733	28398
810.875	28223
811.016	28196
811.158	28219
811.299	28272
811.441	28470
811.582	28447
811.724	28276
811.865	28314
812.007	28249
812.148	28272
812.29	28200
812.431	28310
812.573	28622
812.714	28683
812.855	28752
812.997	28900
813.138	29022
813.279	28843
813.421	28733
813.562	28672
813.703	28500
813.845	28626
813.986	28169
814.127	28010
814.268	28090
814.41	28097
814.551	27960
814.692	28078
814.833	27884
814.974	27789
815.115	28074
815.256	27793
815.397	27819
815.539	27895
815.68	27778
815.821	27690
815.962	27888
816.103	27656
816.244	27660
816.385	27614
816.526	27523
816.666	27351
816.807	27119
816.948	27150
817.089	27351
817.23	27397
817.371	27226
817.512	27131
817.653	27192
817.793	26967
817.934	27211
818.075	27283
818.216	27100
818.356	27298
818.497	27077
818.638	27089
818.778	26910
818.919	26982
819.06	27017
819.2	27161
819.341	27169
819.481	27317
819.622	27386
819.762	27534
819.903	27424
820.043	27488
820.184	27393
820.324	27397
820.465	27416
820.605	27207
820.746	27351
820.886	27203
821.026	27264
821.167	27408
821.307	27317
821.447	27291
821.588	27214
821.728	26994
821.868	26929
822.008	26842
822.149	26663
822.289	26541
822.429	26438
822.569	26328
822.709	26370
822.849	26290
822.99	26351
823.13	26103
823.27	26130
823.41	26065
823.55	25978
823.69	26050
823.83	26069
823.97	26062
824.11	25875
824.25	25742
824.389	25765
824.529	25989
824.669	25925
824.809	25997
824.949	26088
825.089	25989
825.228	25845
825.368	25723
825.508	25708
825.648	25753
825.787	25769
825.927	25750
826.067	25700
826.206	25769
826.346	25658
826.485	25677
826.625	25788
826.765	25833
826.904	25662
827.044	25582
827.183	25559
827.323	25396
827.462	25358
827.601	25487
827.741	25377
827.88	25483
828.02	25221
828.159	25422
828.298	25430
828.437	25487
828.577	25354
828.716	25415
828.855	25324
828.994	25266
829.134	25164
829.273	25251
829.412	25168
829.551	25122
829.69	25084
829.829	25160
829.968	25232
830.107	25031
830.246	25114
830.385	24985
830.524	24916
830.663	25038
830.802	24844
830.941	24665
831.08	24730
831.219	24825
831.357	24726
831.496	24958
831.635	24700
831.774	24795
831.913	24608
832.051	24601
832.19	24445
832.329	24418
832.467	24536
832.606	24308
832.744	24357
832.883	24433
833.022	24544
833.16	24464
833.299	24376
833.437	24433
833.576	24517
833.714	24471
833.852	24490
833.991	24563
834.129	24547
834.267	24627
834.406	24426
834.544	24525
834.682	24448
834.821	24464
834.959	24650
835.097	24517
835.235	24460
835.373	24502
835.511	24403
835.65	24224
835.788	24254
835.926	24201
836.064	24068
836.202	24159
836.34	24285
836.478	24353
836.615	24171
836.753	24330
836.891	24414
837.029	24243
837.167	24213
837.305	24140
837.443	24266
837.58	24095
837.718	24159
837.856	24106
837.993	24022
838.131	24209
838.269	23996
838.406	24026
838.544	24064
838.681	23843
838.819	23775
838.956	23619
839.094	23676
839.231	23547
839.369	23840
839.506	23984
839.643	23878
839.781	23680
839.918	23512
840.055	23516
840.193	23581
840.33	23497
840.467	23554
840.604	23589
840.742	23847
840.879	23349
841.016	23459
841.153	23364
841.29	23558
841.427	23455
841.564	23630
841.701	23528
841.838	23452
841.975	23478
842.112	23364
842.249	23337
842.385	23326
842.522	23551
842.659	23315
842.796	23265
842.933	23288
843.069	23280
843.206	23174
843.343	23341
843.479	23376
843.616	23239
843.752	22987
843.889	23052
844.025	23189
844.162	23014
844.298	23098
844.435	22972
844.571	23014
844.708	23174
844.844	23124
844.98	23079
845.117	23200
845.253	22892
845.389	22930
845.525	22915
845.661	22854
845.798	22858
845.934	22790
846.07	22763
846.206	22759
846.342	22866
846.478	22778
846.614	22481
846.75	22405
846.886	22516
847.022	22557
847.158	22588
847.294	22504
847.429	22542
847.565	22485
847.701	22626
847.837	22238
847.972	22215
848.108	22322
848.244	22299
848.379	22150
848.515	22219
848.65	22082
848.786	22188
848.921	22204
849.057	22242
849.192	22120
849.328	22135
849.463	22082
849.598	22086
849.734	22013
849.869	21930
850.004	21857
850.14	21838
850.275	21926
850.41	21915
850.545	21800
850.68	21797
850.815	21880
850.95	21876
851.085	21926
851.22	21949
851.355	21774
851.49	21759
851.625	21922
851.76	21930
851.895	21880
852.03	21854
852.165	21797
852.299	21869
852.434	21903
852.569	21846
852.703	21915
852.838	21907
852.973	21926
853.107	21934
853.242	21778
853.376	21747
853.511	21633
853.645	21572
853.78	21751
853.914	21759
854.048	21713
854.183	21705
854.317	21682
854.451	21869
854.585	21644
854.72	21595
854.854	21812
854.988	21629
855.122	21743
855.256	21564
855.39	21785
855.524	21599
855.658	21717
855.792	21743
855.926	21705
856.06	21785
856.194	21766
856.327	21648
856.461	21690
856.595	21629
856.729	21663
856.862	21694
856.996	21637
857.13	21713
857.263	21762
857.397	21747
857.53	21610
857.664	21675
857.797	21606
857.931	21785
858.064	21709
858.197	21941
858.331	21610
858.464	21679
858.597	21492
858.731	21633
858.864	21614
858.997	21675
859.13	21713
859.263	21755
859.396	21781
859.529	21572
859.662	21625
859.795	21583
859.928	21728
860.061	21812
860.194	22006
860.327	21667
860.46	21736
860.592	21709
860.725	21903
860.858	21842
860.99	21728
861.123	21633
861.256	21576
861.388	21743
861.521	22451
861.653	21511
861.786	21606
861.918	21587
862.05	21538
862.183	21576
862.315	21644
862.447	21591
862.58	21462
862.712	21397
862.844	21291
862.976	21492
863.108	21454
863.24	21918
863.372	21294
863.504	21367
863.636	21420
863.768	21401
863.9	21408
864.032	21329
864.164	21355
864.296	21359
864.428	21405
864.559	21549
864.691	21393
864.823	21329
864.954	21370
865.086	21393
865.217	21389
865.349	21222
865.48	21233
865.612	21344
865.743	21412
865.875	21214
866.006	21199
866.137	21192
866.269	21294
866.4	21237
866.531	21230
866.662	21173
866.793	21192
866.924	21199
867.055	21450
867.186	21252
867.317	21195
867.448	21138
867.579	21230
867.71	21070
867.841	21199
867.972	21207
868.103	21135
868.233	21207
868.364	21332
868.495	21370
868.625	21485
868.756	21564
868.886	21348
869.017	21469
869.147	21549
869.278	21599
869.408	21401
869.539	21591
869.669	21583
869.799	21477
869.929	21580
870.06	21504
870.19	21778
870.32	21736
870.45	21816
870.58	21892
870.71	21941
870.84	21987
870.97	21861
871.1	21835
871.23	21941
871.36	22006
871.489	21975
871.619	22006
871.749	22135
871.879	22063
872.008	22249
872.138	22162
872.267	22093
872.397	21975
872.526	21850
872.656	21911
872.785	21937
872.915	22154
873.044	22021
873.173	22006
873.303	22116
873.432	22265
873.561	22124
873.69	22006
873.819	22120
873.948	22169
874.077	22070
874.206	21960
874.335	22112
874.464	22276
874.593	22337
874.722	22234
874.851	22375
874.979	22390
875.108	22329
875.237	22249
875.365	22223
875.494	22398
875.623	22295
875.751	22234
875.88	22325
876.008	22470
876.136	22508
876.265	22721
876.393	22675
876.521	22778
876.65	22752
876.778	22706
876.906	22653
877.034	22641
877.162	22653
877.29	22607
877.418	22717
877.546	22634
877.674	22694
877.802	22660
877.93	22622
878.058	22618
878.185	22485
878.313	22516
878.441	22725
878.568	22466
878.696	22637
878.824	22729
878.951	22702
879.079	22828
879.206	22889
879.333	22786
879.461	22752
879.588	22672
879.715	22805
879.842	22961
879.97	22725
880.097	22455
880.224	22497
880.351	22542
880.478	22451
880.605	22405
880.732	22573
880.859	22733
880.986	22481
881.112	22538
881.239	22375
881.366	22044
881.493	22173
881.619	22063
881.746	22021
881.872	22070
881.999	21979
882.125	21983
882.252	22116
882.378	22002
882.505	21979
882.631	21873
882.757	21747
882.883	21766
883.01	21781
883.136	21637
883.262	21671
883.388	21568
883.514	21690
883.64	21770
883.766	21648
883.892	21492
884.018	21561
884.143	21610
884.269	21789
884.395	21572
884.52	21359
884.646	21325
884.772	21374
884.897	21249
885.023	21397
885.148	21485
885.274	21534
885.399	21447
885.524	21329
885.65	21207
885.775	21351
885.9	21374
886.025	21572
886.15	21431
886.275	21329
886.4	21310
886.525	21321
886.65	21161
886.775	21332
886.9	21416
887.025	21496
887.149	21283
887.274	21138
887.399	21138
887.523	21116
887.648	21116
887.773	21077
887.897	21233
888.021	21195
888.146	21085
888.27	21249
888.395	21252
888.519	21142
888.643	21154
888.767	21131
888.891	21093
889.015	20880
889.139	20967
889.263	20921
889.387	21013
889.511	21211
889.635	20956
889.759	20971
889.883	20975
890.006	20872
890.13	20941
890.254	20861
890.377	20819
890.501	20667
890.624	20651
890.748	20769
890.871	20564
890.995	20404
891.118	20431
891.241	20583
891.364	20404
891.488	20575
891.611	20602
891.734	20564
891.857	20438
891.98	20507
892.103	20503
892.226	20457
892.349	20343
892.471	20294
892.594	20480
892.717	20393
892.839	20278
892.962	20393
893.085	20488
893.207	20511
893.33	20320
893.452	20328
893.575	20431
893.697	20347
893.819	20522
893.941	20541
894.064	20655
894.186	20366
894.308	20275
894.43	20476
894.552	20579
894.674	20408
894.796	20309
894.918	20400
895.04	20415
895.161	20423
895.283	20469
895.405	20286
895.526	20400
895.648	20271
895.769	20438
895.891	20492
896.012	20415
896.134	20370
896.255	20400
896.376	20332
896.498	20309
896.619	20404
896.74	20396
896.861	20450
896.982	20743
897.103	20952
897.224	20609
897.345	20636
897.466	20629
897.587	20568
897.708	20674
897.828	20537
897.949	20495
898.07	20465
898.19	20560
898.311	20724
898.431	20507
898.552	20674
898.672	20716
898.792	20727
898.913	20587
899.033	20533
899.153	20396
899.273	20294
899.393	20218
899.513	20336
899.633	20214
899.753	20301
899.873	20259
899.993	20339
900.113	20393
900.232	20240
900.352	20259
900.472	20271
900.591	20046
900.711	20107
900.83	20134
900.95	20248
901.069	20240
901.189	19940
901.308	19833
901.427	19696
901.546	19704
901.665	19803
901.784	19811
901.904	19639
902.023	19441
902.141	19381
902.26	19232
902.379	19236
902.498	19160
902.617	19118
902.735	19259
902.854	19247
902.973	19015
903.091	18909
903.21	18852
903.328	18871
903.446	18795
903.565	18787
903.683	18688
903.801	18551
903.919	18722
904.038	18604
904.156	18540
904.274	18566
904.392	18429
904.51	18384
904.627	18395
904.745	18437
904.863	18429
904.981	18213
905.098	18076
905.216	18098
905.334	18129
905.451	18106
905.569	18064
905.686	18159
905.803	18068
905.921	17878
906.038	17954
906.155	17870
906.272	17821
906.389	17794
906.506	17684
906.623	17718
906.74	17710
906.857	17547
906.974	17619
907.091	17608
907.208	17741
907.324	17672
907.441	17501
907.557	17402
907.674	17383
907.79	17372
907.907	17261
908.023	17326
908.139	17269
908.256	17265
908.372	17246
908.488	17220
908.604	17143
908.72	17071
908.836	17064
908.952	17045
909.068	17140
909.184	17045
909.3	17052
909.415	17094
909.531	17037
909.647	16721
909.762	16828
909.878	16725
909.993	16668
910.108	16824
910.224	16637
910.339	16755
910.454	16637
910.57	16611
910.685	16527
910.8	16847
910.915	16698
911.03	16546
911.145	16443
911.259	16375
911.374	16341
911.489	16276
911.604	16223
911.718	16048
911.833	16101
911.947	16036
912.062	15975
912.176	16097
912.291	16128
912.405	16109
912.519	16287
912.633	16234
912.748	16162
912.862	16086
912.976	15945
913.09	15736
913.204	15895
913.318	15972
913.431	16124
913.545	15998
913.659	16013
913.772	15930
913.886	15743
914	15686
914.113	15774
914.226	15816
914.34	15789
914.453	15637
914.566	15785
914.68	15633
914.793	15576
914.906	15321
915.019	15275
915.132	15302
915.245	15241
915.358	15359
915.47	15332
915.583	15351
915.696	15283
915.809	15416
915.921	15511
916.034	15298
916.146	15142
916.259	15291
916.371	15389
916.483	15310
916.595	15100
916.708	15066
916.82	15150
916.932	15123
917.044	15138
917.156	14937
917.268	15028
917.38	15017
917.491	14971
917.603	14994
917.715	15039
917.826	15039
917.938	14998
918.049	14868
918.161	14994
918.272	14994
918.384	15036
918.495	14921
918.606	14792
918.717	14667
918.828	14758
918.939	14754
919.05	14610
919.161	14845
919.272	14454
919.383	14514
919.494	14655
919.604	14891
919.715	14826
919.826	14579
919.936	14613
920.047	14765
920.157	14659
920.267	14914
920.378	14655
920.488	14735
920.598	14952
920.708	14979
920.818	14826
920.928	14743
921.038	14895
921.148	15081
921.258	14651
921.368	14518
921.477	14412
921.587	14328
921.697	14275
921.806	14469
921.916	14263
922.025	14031
922.134	14054
922.244	14065
922.353	14111
922.462	13909
922.571	13742
922.68	13662
922.789	13704
922.898	13658
923.007	13704
923.116	13776
923.224	13655
923.333	13582
923.442	13506
923.55	13624
923.659	13495
923.767	13616
923.876	13483
923.984	13552
924.092	13419
924.201	13407
924.309	13403
924.417	13434
924.525	13362
924.633	13365
924.741	14111
924.849	13152
924.956	13339
925.064	13088
925.172	13103
925.279	13107
925.387	13152
925.494	13103
925.602	13228
925.709	13091
925.816	13019
925.924	13137
926.031	13076
926.138	13042
926.245	13080
926.352	13034
926.459	13107
926.566	13103
926.673	12962
926.779	12829
926.886	12840
926.993	12791
927.099	12715
927.206	12559
927.312	12681
927.419	12707
927.525	12646
927.631	12711
927.737	12513
927.843	12525
927.95	12490
928.056	12494
928.162	12604
928.267	12460
928.373	13069
928.479	12612
928.585	12361
928.69	12513
928.796	12494
928.901	12372
929.007	12186
929.112	12407
929.218	12365
929.323	12262
929.428	12171
929.533	12346
929.638	12175
929.743	12140
929.848	12323
929.953	12148
930.058	12140
930.163	11950
930.267	11927
930.372	12026
930.477	11847
930.581	12155
930.685	11999
930.79	11843
930.894	11912
930.998	11805
931.103	12053
931.207	11649
931.311	11501
931.415	11417
931.519	11265
931.623	11166
