Data from test_V78500241_2614.txt Node
Date: Fri Mar 25 15:59:54 CST 2022
User: usil
Spectrometer: V785-0024
Trigger mode: 0
Integration Time (sec): 4.000000E-1
Scans to average: 1
Nonlinearity correction enabled: false
Boxcar width: 0
Storing dark spectrum: false
XAxis mode: Wavelengths
Number of Pixels in Spectrum: 1024
>>>>>Begin Spectral Data<<<<<
801.071	28649
801.214	28557
801.356	28333
801.499	28284
801.641	28284
801.783	28230
801.926	28379
802.068	28181
802.211	28051
802.353	28097
802.496	27876
802.638	28021
802.78	27926
802.923	27800
803.065	27728
803.208	27956
803.35	28040
803.492	27998
803.635	28109
803.777	27914
803.919	27987
804.061	28398
804.204	28177
804.346	28021
804.488	27949
804.63	28116
804.773	28109
804.915	28078
805.057	28314
805.199	28021
805.341	28306
805.483	28394
805.626	28272
805.768	28169
805.91	28272
806.052	28253
806.194	28295
806.336	28421
806.478	28356
806.62	28337
806.762	28398
806.904	28554
807.046	28854
807.188	28736
807.33	28767
807.472	28615
807.614	28664
807.756	28706
807.898	28668
808.04	28436
808.182	28371
808.324	28599
808.465	28668
808.607	28850
808.749	28984
808.891	29060
809.033	29121
809.174	29037
809.316	28869
809.458	28987
809.6	28942
809.741	29124
809.883	29022
810.025	29208
810.166	29208
810.308	29204
810.45	29318
810.591	29250
810.733	29147
810.875	28885
811.016	28995
811.158	28869
811.299	29044
811.441	29162
811.582	29128
811.724	29079
811.865	28831
812.007	28904
812.148	29086
812.29	29105
812.431	29261
812.573	29387
812.714	29398
812.855	29448
812.997	29680
813.138	29942
813.279	29627
813.421	29596
813.562	29474
813.703	29364
813.845	29090
813.986	28980
814.127	28729
814.268	28668
814.41	28698
814.551	28702
814.692	28672
814.833	28493
814.974	28645
815.115	28702
815.256	28500
815.397	28603
815.539	28592
815.68	28474
815.821	28382
815.962	28561
816.103	28527
816.244	28318
816.385	28230
816.526	28173
816.666	28074
816.807	28013
816.948	28093
817.089	28150
817.23	27945
817.371	28044
817.512	28070
817.653	28010
817.793	27873
817.934	28032
818.075	27884
818.216	27937
818.356	27994
818.497	27812
818.638	27622
818.778	27660
818.919	27663
819.06	27888
819.2	27861
819.341	27972
819.481	28040
819.622	28120
819.762	28333
819.903	28192
820.043	28173
820.184	28192
820.324	28185
820.465	28086
820.605	28013
820.746	28086
820.886	28002
821.026	28067
821.167	28002
821.307	28109
821.447	27937
821.588	27865
821.728	27797
821.868	27622
822.008	27523
822.149	27408
822.289	27466
822.429	27268
822.569	27207
822.709	27176
822.849	27081
822.99	27055
823.13	26872
823.27	26864
823.41	26952
823.55	26613
823.69	26906
823.83	26754
823.97	26826
824.11	26651
824.25	26602
824.389	26705
824.529	26785
824.669	26674
824.809	26731
824.949	26773
825.089	26648
825.228	26617
825.368	26366
825.508	26495
825.648	26404
825.787	26431
825.927	26583
826.067	26552
826.206	26431
826.346	26651
826.485	26450
826.625	26404
826.765	26629
826.904	26438
827.044	26298
827.183	26370
827.323	26107
827.462	26320
827.601	26172
827.741	26195
827.88	26218
828.02	26005
828.159	26191
828.298	26240
828.437	26267
828.577	26050
828.716	26229
828.855	26107
828.994	25856
829.134	25864
829.273	25970
829.412	25871
829.551	25887
829.69	25936
829.829	25970
829.968	26065
830.107	25986
830.246	25970
830.385	25769
830.524	25719
830.663	25643
830.802	25635
830.941	25582
831.08	25468
831.219	25548
831.357	25521
831.496	25833
831.635	25502
831.774	25350
831.913	25487
832.051	25263
832.19	25266
832.329	25187
832.467	25236
832.606	25175
832.744	25183
832.883	25031
833.022	25266
833.16	25217
833.299	25202
833.437	25202
833.576	25270
833.714	25282
833.852	25381
833.991	25324
834.129	25266
834.267	25346
834.406	25251
834.544	25168
834.682	25228
834.821	25152
834.959	25415
835.097	25091
835.235	25282
835.373	25206
835.511	25209
835.65	25141
835.788	25141
835.926	24935
836.064	24947
836.202	24954
836.34	25046
836.478	25122
836.615	24947
836.753	24989
836.891	25088
837.029	25015
837.167	25133
837.305	25091
837.443	24981
837.58	24897
837.718	25023
837.856	24977
837.993	24802
838.131	24665
838.269	24760
838.406	24734
838.544	24738
838.681	24505
838.819	24627
838.956	24289
839.094	24429
839.231	24414
839.369	24448
839.506	24642
839.643	24597
839.781	24357
839.918	24315
840.055	24369
840.193	24292
840.33	24254
840.467	24213
840.604	24201
840.742	24513
840.879	24117
841.016	24167
841.153	24003
841.29	24407
841.427	24148
841.564	24201
841.701	24159
841.838	24228
841.975	24129
842.112	24201
842.249	24114
842.385	24015
842.522	24095
842.659	24133
842.796	24007
842.933	23973
843.069	24091
843.206	23870
843.343	23958
843.479	23984
843.616	23885
843.752	23851
843.889	23923
844.025	23916
844.162	23813
844.298	23908
844.435	23767
844.571	23767
844.708	23703
844.844	23984
844.98	23931
845.117	23851
845.253	23729
845.389	23547
845.525	23642
845.661	23668
845.798	23600
845.934	23596
846.07	23535
846.206	23573
846.342	23562
846.478	23551
846.614	23193
846.75	23151
846.886	23235
847.022	23372
847.158	23242
847.294	23337
847.429	23318
847.565	23212
847.701	23516
847.837	22968
847.972	22820
848.108	23117
848.244	23056
848.379	22831
848.515	22820
848.65	22961
848.786	22923
848.921	22801
849.057	22904
849.192	22869
849.328	22896
849.463	22793
849.598	22702
849.734	22672
849.869	22660
850.004	22580
850.14	22535
850.275	22611
850.41	22535
850.545	22573
850.68	22542
850.815	22615
850.95	22580
851.085	22809
851.22	22782
851.355	22622
851.49	22584
851.625	22607
851.76	22580
851.895	22535
852.03	22451
852.165	22550
852.299	22554
852.434	22691
852.569	22687
852.703	22645
852.838	22641
852.973	22653
853.107	22805
853.242	22580
853.376	22348
853.511	22325
853.645	22466
853.78	22565
853.914	22478
854.048	22322
854.183	22188
854.317	22386
854.451	22599
854.585	22500
854.72	22371
854.854	22554
854.988	22379
855.122	22447
855.256	22306
855.39	22314
855.524	22443
855.658	22489
855.792	22371
855.926	22382
856.06	22459
856.194	22413
856.327	22443
856.461	22363
856.595	22318
856.729	22348
856.862	22561
856.996	22432
857.13	22432
857.263	22409
857.397	22485
857.53	22550
857.664	22451
857.797	22497
857.931	22611
858.064	22447
858.197	22447
858.331	22459
858.464	22303
858.597	22272
858.731	22356
858.864	22360
858.997	22344
859.13	22299
859.263	22417
859.396	22519
859.529	22478
859.662	22253
859.795	22344
859.928	22436
860.061	22512
860.194	22481
860.327	22436
860.46	22527
860.592	22618
860.725	22588
860.858	22641
860.99	22466
861.123	22299
861.256	22310
861.388	22447
861.521	23136
861.653	22276
861.786	22154
861.918	22177
862.05	22348
862.183	22455
862.315	22272
862.447	22314
862.58	22329
862.712	22166
862.844	22131
862.976	22200
863.108	22230
863.24	22516
863.372	22101
863.504	22116
863.636	22154
863.768	22158
863.9	22078
864.032	22131
864.164	22181
864.296	22207
864.428	22101
864.559	22291
864.691	22272
864.823	22169
864.954	22097
865.086	22097
865.217	22021
865.349	21956
865.48	22093
865.612	21968
865.743	22188
865.875	22082
866.006	21869
866.137	22063
866.269	22162
866.4	21949
866.531	21949
866.662	21899
866.793	21766
866.924	22025
867.055	22093
867.186	21869
867.317	21907
867.448	21884
867.579	21972
867.71	21895
867.841	21918
867.972	21979
868.103	21838
868.233	22017
868.364	21888
868.495	22013
868.625	22188
868.756	22246
868.886	22109
869.017	22166
869.147	22402
869.278	22230
869.408	22169
869.539	22185
869.669	22192
869.799	22109
869.929	22230
870.06	22284
870.19	22504
870.32	22436
870.45	22542
870.58	22447
870.71	22702
870.84	22615
870.97	22527
871.1	22592
871.23	22603
871.36	22736
871.489	22656
871.619	22668
871.749	22843
871.879	22721
872.008	22877
872.138	22748
872.267	22801
872.397	22527
872.526	22622
872.656	22698
872.785	22584
872.915	22812
873.044	23018
873.173	22771
873.303	22816
873.432	22843
873.561	22797
873.69	22786
873.819	22725
873.948	22885
874.077	22809
874.206	22755
874.335	22809
874.464	22896
874.593	22980
874.722	22942
874.851	23083
874.979	22987
875.108	23124
875.237	22949
875.365	22908
875.494	22934
875.623	23006
875.751	22892
875.88	23056
876.008	23208
876.136	23128
876.265	23486
876.393	23592
876.521	23463
876.65	23501
876.778	23337
876.906	23326
877.034	23398
877.162	23433
877.29	23318
877.418	23166
877.546	23334
877.674	23292
877.802	23277
877.93	23360
878.058	23307
878.185	23181
878.313	23208
878.441	23330
878.568	23056
878.696	23216
878.824	23353
878.951	23417
879.079	23554
879.206	23649
879.333	23554
879.461	23414
879.588	23448
879.715	23444
879.842	23551
879.97	23337
880.097	23299
880.224	23181
880.351	23136
880.478	23143
880.605	23128
880.732	23105
880.859	23410
880.986	23208
881.112	23239
881.239	23041
881.366	22908
881.493	22820
881.619	22740
881.746	22675
881.872	22805
881.999	22725
882.125	22615
882.252	22774
882.378	22736
882.505	22744
882.631	22508
882.757	22398
882.883	22649
883.01	22451
883.136	22474
883.262	22363
883.388	22306
883.514	22318
883.64	22462
883.766	22314
883.892	22097
884.018	22249
884.143	22356
884.269	22409
884.395	22048
884.52	22059
884.646	22162
884.772	21945
884.897	22032
885.023	22051
885.148	22029
885.274	22246
885.399	22059
885.524	21972
885.65	22166
885.775	22082
885.9	21918
886.025	22078
886.15	22070
886.275	21876
886.4	21926
886.525	22074
886.65	21972
886.775	21934
886.9	22150
887.025	22253
887.149	21956
887.274	21842
887.399	21717
887.523	21873
887.648	21720
887.773	21644
887.897	21934
888.021	21804
888.146	21724
888.27	21789
888.395	21926
888.519	21850
888.643	21755
888.767	21827
888.891	21656
889.015	21671
889.139	21641
889.263	21492
889.387	21656
889.511	21861
889.635	21705
889.759	21507
889.883	21591
890.006	21591
890.13	21663
890.254	21450
890.377	21454
890.501	21363
890.624	21370
890.748	21310
890.871	21252
890.995	21203
891.118	21169
891.241	21176
891.364	21252
891.488	21397
891.611	21249
891.734	21138
891.857	21218
891.98	21070
892.103	21241
892.226	21104
892.349	21138
892.471	20921
892.594	21104
892.717	21074
892.839	20994
892.962	21108
893.085	21112
893.207	20963
893.33	20807
893.452	20994
893.575	21123
893.697	20986
893.819	21176
893.941	21199
894.064	21176
894.186	21020
894.308	20990
894.43	21157
894.552	21260
894.674	21169
894.796	20944
894.918	20979
895.04	20952
895.161	21036
895.283	21077
895.405	20956
895.526	20990
895.648	20910
895.769	21051
895.891	21146
896.012	21146
896.134	21055
896.255	21043
896.376	20883
896.498	21077
896.619	21214
896.74	20998
896.861	21058
896.982	21321
897.103	21450
897.224	21237
897.345	21214
897.466	21161
897.587	21211
897.708	21291
897.828	21344
897.949	21176
898.07	20979
898.19	21161
898.311	21317
898.431	21135
898.552	21226
898.672	21378
898.792	21454
898.913	21252
899.033	21005
899.153	21093
899.273	20933
899.393	20986
899.513	20967
899.633	21089
899.753	21043
899.873	20925
899.993	21036
900.113	20845
900.232	20971
900.352	20967
900.472	20758
900.591	20819
900.711	20667
900.83	20598
900.95	20788
901.069	20758
901.189	20640
901.308	20400
901.427	20298
901.546	20400
901.665	20358
901.784	20320
901.904	20263
902.023	20050
902.141	19894
902.26	19788
902.379	19913
902.498	19852
902.617	19727
902.735	19871
902.854	19776
902.973	19544
903.091	19487
903.21	19396
903.328	19506
903.446	19365
903.565	19244
903.683	19316
903.801	19148
903.919	19274
904.038	19198
904.156	19183
904.274	19110
904.392	19008
904.51	19076
904.627	19095
904.745	18954
904.863	18958
904.981	18867
905.098	18715
905.216	18806
905.334	18726
905.451	18677
905.569	18627
905.686	18669
905.803	18650
905.921	18471
906.038	18494
906.155	18460
906.272	18353
906.389	18388
906.506	18220
906.623	18159
906.74	18327
906.857	18182
906.974	18068
907.091	18171
907.208	18410
907.324	18323
907.441	18076
907.557	18026
907.674	17950
907.79	17908
907.907	17961
908.023	17885
908.139	17851
908.256	17882
908.372	17786
908.488	17821
908.604	17687
908.72	17695
908.836	17760
908.952	17642
909.068	17657
909.184	17729
909.3	17687
909.415	17733
909.531	17680
909.647	17444
909.762	17265
909.878	17311
909.993	17410
910.108	17250
910.224	17303
910.339	17383
910.454	17162
910.57	17136
910.685	17079
910.8	17269
910.915	17277
911.03	17090
911.145	16889
911.259	16892
911.374	16892
911.489	16885
911.604	16812
911.718	16698
911.833	16744
911.947	16660
912.062	16577
912.176	16683
912.291	16736
912.405	16767
912.519	16748
912.633	16877
912.748	16755
912.862	16531
912.976	16413
913.09	16409
913.204	16485
913.318	16500
913.431	16516
913.545	16565
913.659	16565
913.772	16424
913.886	16333
914	16276
914.113	16394
914.226	16386
914.34	16265
914.453	16169
914.566	16333
914.68	16059
914.793	16200
914.906	16002
915.019	15918
915.132	15755
915.245	15831
915.358	15911
915.47	15838
915.583	15945
915.696	15816
915.809	15831
915.921	16017
916.034	15804
916.146	15736
916.259	15800
916.371	15759
916.483	15778
916.595	15641
916.708	15671
916.82	15572
916.932	15618
917.044	15488
917.156	15549
917.268	15420
917.38	15542
917.491	15397
917.603	15393
917.715	15530
917.826	15473
917.938	15378
918.049	15340
918.161	15469
918.272	15523
918.384	15507
918.495	15363
918.606	15203
918.717	15138
918.828	15180
918.939	15291
919.05	14998
919.161	15123
919.272	14986
919.383	15005
919.494	15176
919.604	15370
919.715	15176
919.826	14963
919.936	15119
920.047	15192
920.157	15165
920.267	15397
920.378	15150
920.488	15066
920.598	15268
920.708	15435
920.818	15264
920.928	15283
921.038	15507
921.148	15302
921.258	15058
921.368	14941
921.477	14868
921.587	14834
921.697	14804
921.806	14963
921.916	14765
922.025	14583
922.134	14549
922.244	14419
922.353	14587
922.462	14431
922.571	14294
922.68	14161
922.789	14153
922.898	14244
923.007	14088
923.116	14229
923.224	14180
923.333	14096
923.442	13986
923.55	13967
923.659	14050
923.767	14069
923.876	13925
923.984	13940
924.092	13925
924.201	13860
924.309	13868
924.417	13856
924.525	13871
924.633	13780
924.741	14754
924.849	13571
924.956	13704
925.064	13605
925.172	13590
925.279	13556
925.387	13529
925.494	13658
925.602	13620
925.709	13518
925.816	13445
925.924	13483
926.031	13487
926.138	13544
926.245	13472
926.352	13373
926.459	13445
926.566	13468
926.673	13350
926.779	13278
926.886	13202
926.993	13156
927.099	13114
927.206	13053
927.312	12932
927.419	13129
927.525	13057
927.631	13091
927.737	13015
927.843	12924
927.95	12741
928.056	12852
928.162	12901
928.267	12920
928.373	13449
928.479	13023
928.585	12665
928.69	12878
928.796	12848
928.901	12722
929.007	12528
929.112	12692
929.218	12658
929.323	12677
929.428	12616
929.533	12806
929.638	12551
929.743	12433
929.848	12582
929.953	12498
930.058	12410
930.163	12266
930.267	12361
930.372	12384
930.477	12258
930.581	12517
930.685	12308
930.79	12171
930.894	12178
930.998	12186
931.103	12327
931.207	11859
931.311	11805
931.415	11790
931.519	11539
931.623	11490
