Data from test_V78500241_1898.txt Node
Date: Fri Mar 25 15:54:56 CST 2022
User: usil
Spectrometer: V785-0024
Trigger mode: 0
Integration Time (sec): 4.000000E-1
Scans to average: 1
Nonlinearity correction enabled: false
Boxcar width: 0
Storing dark spectrum: false
XAxis mode: Wavelengths
Number of Pixels in Spectrum: 1024
>>>>>Begin Spectral Data<<<<<
801.071	28611
801.214	28527
801.356	28322
801.499	28249
801.641	28143
801.783	28131
801.926	28375
802.068	28284
802.211	28173
802.353	28010
802.496	27857
802.638	27899
802.78	27895
802.923	27876
803.065	27705
803.208	27922
803.35	27774
803.492	27934
803.635	27998
803.777	28044
803.919	28048
804.061	28493
804.204	28154
804.346	27972
804.488	28074
804.63	28177
804.773	28086
804.915	28109
805.057	28215
805.199	28051
805.341	28112
805.483	28306
805.626	28207
805.768	28219
805.91	28257
806.052	28147
806.194	28147
806.336	28405
806.478	28226
806.62	28238
806.762	28459
806.904	28489
807.046	28759
807.188	28752
807.33	28622
807.472	28748
807.614	28725
807.756	28557
807.898	28508
808.04	28596
808.182	28557
808.324	28432
808.465	28733
808.607	28763
808.749	28904
808.891	28961
809.033	29060
809.174	28991
809.316	28949
809.458	28984
809.6	28896
809.741	28976
809.883	29056
810.025	29128
810.166	29155
810.308	29151
810.45	29147
810.591	29064
810.733	28987
810.875	28858
811.016	28942
811.158	28915
811.299	28946
811.441	29064
811.582	28984
811.724	28953
811.865	28957
812.007	29083
812.148	28968
812.29	28927
812.431	28942
812.573	29269
812.714	29189
812.855	29478
812.997	29433
813.138	29608
813.279	29668
813.421	29471
813.562	29493
813.703	29208
813.845	29075
813.986	28904
814.127	28793
814.268	28672
814.41	28736
814.551	28512
814.692	28531
814.833	28561
814.974	28405
815.115	28626
815.256	28443
815.397	28470
815.539	28615
815.68	28489
815.821	28470
815.962	28611
816.103	28459
816.244	28367
816.385	28394
816.526	28230
816.666	27819
816.807	27998
816.948	27979
817.089	27964
817.23	28067
817.371	27953
817.512	27918
817.653	27827
817.793	27857
817.934	27934
818.075	27831
818.216	27930
818.356	27873
818.497	27819
818.638	27686
818.778	27660
818.919	27736
819.06	27739
819.2	27823
819.341	27823
819.481	27914
819.622	28032
819.762	28219
819.903	28143
820.043	28105
820.184	28188
820.324	27945
820.465	28048
820.605	28029
820.746	28051
820.886	27903
821.026	28044
821.167	28082
821.307	28055
821.447	27895
821.588	27884
821.728	27743
821.868	27504
822.008	27370
822.149	27450
822.289	27545
822.429	27096
822.569	27093
822.709	27070
822.849	26937
822.99	27093
823.13	26956
823.27	26765
823.41	26750
823.55	26571
823.69	26781
823.83	26769
823.97	26575
824.11	26598
824.25	26579
824.389	26575
824.529	26651
824.669	26602
824.809	26716
824.949	26651
825.089	26613
825.228	26632
825.368	26495
825.508	26427
825.648	26347
825.787	26530
825.927	26480
826.067	26431
826.206	26393
826.346	26381
826.485	26385
826.625	26480
826.765	26526
826.904	26621
827.044	26134
827.183	26069
827.323	26142
827.462	26001
827.601	26267
827.741	26126
827.88	26229
828.02	26058
828.159	26115
828.298	26199
828.437	26225
828.577	26062
828.716	26351
828.855	26039
828.994	25909
829.134	25799
829.273	25913
829.412	25849
829.551	25830
829.69	25753
829.829	25837
829.968	25898
830.107	25837
830.246	25925
830.385	25772
830.524	25837
830.663	25712
830.802	25613
830.941	25377
831.08	25430
831.219	25556
831.357	25597
831.496	25674
831.635	25468
831.774	25396
831.913	25320
832.051	25255
832.19	25202
832.329	25240
832.467	25198
832.606	25012
832.744	25175
832.883	25118
833.022	25099
833.16	25046
833.299	25168
833.437	25031
833.576	25164
833.714	25206
833.852	25164
833.991	25263
834.129	25251
834.267	25225
834.406	25225
834.544	25255
834.682	25175
834.821	25103
834.959	25202
835.097	25145
835.235	25247
835.373	25133
835.511	25137
835.65	25042
835.788	24970
835.926	24894
836.064	24764
836.202	24753
836.34	25145
836.478	25118
836.615	24958
836.753	24897
836.891	24928
837.029	24958
837.167	24954
837.305	24798
837.443	24848
837.58	24734
837.718	24901
837.856	24703
837.993	24825
838.131	24768
838.269	24681
838.406	24837
838.544	24692
838.681	24426
838.819	24464
838.956	24369
839.094	24216
839.231	24266
839.369	24448
839.506	24563
839.643	24391
839.781	24277
839.918	24243
840.055	24346
840.193	24365
840.33	24270
840.467	24197
840.604	24228
840.742	24525
840.879	24003
841.016	24136
841.153	24064
841.29	24243
841.427	24102
841.564	24330
841.701	24163
841.838	24098
841.975	24003
842.112	24110
842.249	24053
842.385	23851
842.522	24114
842.659	24079
842.796	23908
842.933	23897
843.069	23965
843.206	23996
843.343	24068
843.479	23904
843.616	24136
843.752	23748
843.889	23760
844.025	23893
844.162	23798
844.298	23691
844.435	23714
844.571	23615
844.708	23824
844.844	23920
844.98	23923
845.117	23783
845.253	23760
845.389	23501
845.525	23615
845.661	23630
845.798	23410
845.934	23577
846.07	23410
846.206	23558
846.342	23642
846.478	23467
846.614	23254
846.75	23083
846.886	23071
847.022	23387
847.158	23162
847.294	23128
847.429	23269
847.565	23086
847.701	23406
847.837	22999
847.972	22824
848.108	23010
848.244	22995
848.379	22687
848.515	22611
848.65	22801
848.786	22873
848.921	22850
849.057	22835
849.192	22976
849.328	22748
849.463	22778
849.598	22736
849.734	22801
849.869	22592
850.004	22424
850.14	22531
850.275	22618
850.41	22462
850.545	22455
850.68	22432
850.815	22481
850.95	22459
851.085	22641
851.22	22729
851.355	22546
851.49	22485
851.625	22508
851.76	22481
851.895	22527
852.03	22516
852.165	22565
852.299	22531
852.434	22603
852.569	22557
852.703	22615
852.838	22580
852.973	22694
853.107	22710
853.242	22504
853.376	22348
853.511	22367
853.645	22363
853.78	22535
853.914	22291
854.048	22192
854.183	22413
854.317	22531
854.451	22497
854.585	22310
854.72	22455
854.854	22314
854.988	22188
855.122	22318
855.256	22207
855.39	22451
855.524	22443
855.658	22348
855.792	22470
855.926	22424
856.06	22356
856.194	22462
856.327	22280
856.461	22196
856.595	22188
856.729	22348
856.862	22436
856.996	22382
857.13	22440
857.263	22485
857.397	22390
857.53	22287
857.664	22360
857.797	22417
857.931	22379
858.064	22394
858.197	22375
858.331	22413
858.464	22310
858.597	22299
858.731	22402
858.864	22318
858.997	22150
859.13	22352
859.263	22314
859.396	22493
859.529	22413
859.662	22356
859.795	22303
859.928	22276
860.061	22428
860.194	22398
860.327	22440
860.46	22432
860.592	22516
860.725	22413
860.858	22500
860.99	22325
861.123	22242
861.256	22314
861.388	22299
861.521	23231
861.653	22253
861.786	22188
861.918	22112
862.05	22128
862.183	22181
862.315	22246
862.447	22322
862.58	22192
862.712	22067
862.844	21949
862.976	22234
863.108	22074
863.24	22519
863.372	21964
863.504	22036
863.636	22074
863.768	22044
863.9	22040
864.032	21968
864.164	21964
864.296	22032
864.428	22131
864.559	22177
864.691	22029
864.823	22158
864.954	21926
865.086	22097
865.217	21781
865.349	21785
865.48	21873
865.612	21926
865.743	22006
865.875	21915
866.006	21808
866.137	21945
866.269	21956
866.4	21857
866.531	21869
866.662	21895
866.793	21899
866.924	21785
867.055	21850
867.186	21857
867.317	21808
867.448	21732
867.579	21922
867.71	21717
867.841	21770
867.972	21899
868.103	21880
868.233	21854
868.364	21854
868.495	21873
868.625	22116
868.756	22112
868.886	22036
869.017	22131
869.147	22219
869.278	22215
869.408	22128
869.539	22067
869.669	22162
869.799	22029
869.929	22150
870.06	22158
870.19	22363
870.32	22367
870.45	22405
870.58	22436
870.71	22542
870.84	22455
870.97	22470
871.1	22557
871.23	22573
871.36	22706
871.489	22592
871.619	22653
871.749	22713
871.879	22641
872.008	22824
872.138	22694
872.267	22729
872.397	22675
872.526	22531
872.656	22538
872.785	22462
872.915	22691
873.044	22778
873.173	22729
873.303	22816
873.432	22809
873.561	22873
873.69	22752
873.819	22717
873.948	22710
874.077	22805
874.206	22672
874.335	22729
874.464	22904
874.593	22980
874.722	22889
874.851	22881
874.979	22976
875.108	22976
875.237	22877
875.365	22721
875.494	22965
875.623	22946
875.751	22881
875.88	22904
876.008	23185
876.136	23025
876.265	23353
876.393	23497
876.521	23433
876.65	23334
876.778	23406
876.906	23250
877.034	23223
877.162	23216
877.29	23353
877.418	23353
877.546	23193
877.674	23296
877.802	23223
877.93	23292
878.058	23208
878.185	23136
878.313	23208
878.441	23220
878.568	23071
878.696	23212
878.824	23356
878.951	23410
879.079	23376
879.206	23444
879.333	23334
879.461	23231
879.588	23398
879.715	23425
879.842	23497
879.97	23398
880.097	23155
880.224	23056
880.351	23265
880.478	23132
880.605	23102
880.732	23022
880.859	23235
880.986	23044
881.112	23086
881.239	22972
881.366	22850
881.493	22672
881.619	22637
881.746	22812
881.872	22634
881.999	22668
882.125	22535
882.252	22660
882.378	22527
882.505	22759
882.631	22508
882.757	22276
882.883	22428
883.01	22249
883.136	22344
883.262	22234
883.388	22185
883.514	22402
883.64	22261
883.766	22219
883.892	22078
884.018	22219
884.143	22382
884.269	22329
884.395	21956
884.52	21953
884.646	21968
884.772	21949
884.897	21804
885.023	21994
885.148	22006
885.274	22078
885.399	22010
885.524	21949
885.65	21949
885.775	21873
885.9	21964
886.025	22025
886.15	22128
886.275	21975
886.4	21873
886.525	21884
886.65	21861
886.775	21918
886.9	22070
887.025	22188
887.149	21854
887.274	21759
887.399	21728
887.523	21698
887.648	21701
887.773	21603
887.897	21812
888.021	21690
888.146	21698
888.27	21793
888.395	21842
888.519	21656
888.643	21720
888.767	21698
888.891	21542
889.015	21466
889.139	21496
889.263	21416
889.387	21542
889.511	21736
889.635	21663
889.759	21496
889.883	21412
890.006	21507
890.13	21542
890.254	21401
890.377	21363
890.501	21207
890.624	21245
890.748	21367
890.871	21249
890.995	21039
891.118	21024
891.241	21070
891.364	21119
891.488	21211
891.611	20979
891.734	21032
891.857	21043
891.98	21131
892.103	21135
892.226	20971
892.349	20963
892.471	20914
892.594	21009
892.717	21017
892.839	21051
892.962	21013
893.085	21051
893.207	21001
893.33	20819
893.452	20899
893.575	21036
893.697	21047
893.819	21089
893.941	21222
894.064	21085
894.186	20918
894.308	20941
894.43	20960
894.552	21108
894.674	21020
894.796	20967
894.918	20895
895.04	20857
895.161	21077
895.283	20880
895.405	20861
895.526	20956
895.648	20921
895.769	21001
895.891	21039
896.012	21001
896.134	20967
896.255	21131
896.376	21055
896.498	20944
896.619	21066
896.74	20963
896.861	21028
896.982	21317
897.103	21443
897.224	21332
897.345	21218
897.466	21074
897.587	21165
897.708	21310
897.828	21222
897.949	21131
898.07	21024
898.19	21039
898.311	21211
898.431	21013
898.552	21222
898.672	21230
898.792	21157
898.913	21150
899.033	21142
899.153	20937
899.273	20902
899.393	20948
899.513	20918
899.633	20929
899.753	20872
899.873	20838
899.993	20762
900.113	20933
900.232	20899
900.352	20887
900.472	20693
900.591	20625
900.711	20686
900.83	20594
900.95	20796
901.069	20804
901.189	20530
901.308	20263
901.427	20218
901.546	20271
901.665	20320
901.784	20271
901.904	20122
902.023	20054
902.141	19860
902.26	19769
902.379	19906
902.498	19734
902.617	19784
902.735	19761
902.854	19693
902.973	19647
903.091	19373
903.21	19472
903.328	19445
903.446	19198
903.565	19259
903.683	19263
903.801	19088
903.919	19259
904.038	19168
904.156	18977
904.274	19042
904.392	18871
904.51	18958
904.627	18924
904.745	19118
904.863	19050
904.981	18768
905.098	18715
905.216	18566
905.334	18757
905.451	18650
905.569	18631
905.686	18730
905.803	18623
905.921	18418
906.038	18563
906.155	18521
906.272	18247
906.389	18372
906.506	18209
906.623	18133
906.74	18148
906.857	18091
906.974	18079
907.091	18197
907.208	18311
907.324	18235
907.441	18045
907.557	17950
907.674	17824
907.79	17726
907.907	17764
908.023	17958
908.139	17931
908.256	17885
908.372	17756
908.488	17722
908.604	17646
908.72	17577
908.836	17638
908.952	17589
909.068	17653
909.184	17668
909.3	17623
909.415	17619
909.531	17596
909.647	17391
909.762	17410
909.878	17254
909.993	17307
910.108	17326
910.224	17204
910.339	17288
910.454	17022
910.57	17113
910.685	17056
910.8	17334
910.915	17193
911.03	17128
911.145	16885
911.259	16862
911.374	16881
911.489	16740
911.604	16816
911.718	16596
911.833	16668
911.947	16531
912.062	16451
912.176	16596
912.291	16649
912.405	16649
912.519	16793
912.633	16801
912.748	16565
912.862	16618
912.976	16436
913.09	16303
913.204	16299
913.318	16360
913.431	16538
913.545	16535
913.659	16523
913.772	16333
913.886	16295
914	16143
914.113	16276
914.226	16367
914.34	16268
914.453	16051
914.566	16265
914.68	16112
914.793	16017
914.906	15819
915.019	15857
915.132	15698
915.245	15713
915.358	15800
915.47	15781
915.583	15762
915.696	15880
915.809	15819
915.921	15846
916.034	15732
916.146	15671
916.259	15663
916.371	15755
916.483	15682
916.595	15587
916.708	15625
916.82	15648
916.932	15606
917.044	15523
917.156	15523
917.268	15466
917.38	15447
917.491	15279
917.603	15382
917.715	15488
917.826	15534
917.938	15279
918.049	15233
918.161	15367
918.272	15454
918.384	15458
918.495	15348
918.606	15214
918.717	15093
918.828	15100
918.939	15165
919.05	15077
919.161	15135
919.272	14960
919.383	15028
919.494	15157
919.604	15355
919.715	15176
919.826	15085
919.936	15119
920.047	15165
920.157	15131
920.267	15241
920.378	15097
920.488	14975
920.598	15291
920.708	15386
920.818	15192
920.928	15237
921.038	15359
921.148	15340
921.258	15058
921.368	14986
921.477	14918
921.587	14948
921.697	14743
921.806	14716
921.916	14697
922.025	14530
922.134	14415
922.244	14522
922.353	14552
922.462	14396
922.571	14267
922.68	14123
922.789	13986
922.898	14107
923.007	14069
923.116	14100
923.224	14077
923.333	14065
923.442	13947
923.55	13940
923.659	14005
923.767	13944
923.876	13822
923.984	13967
924.092	13795
924.201	13841
924.309	13894
924.417	13818
924.525	13734
924.633	13757
924.741	14606
924.849	13521
924.956	13704
925.064	13556
925.172	13438
925.279	13510
925.387	13651
925.494	13556
925.602	13575
925.709	13575
925.816	13388
925.924	13392
926.031	13597
926.138	13476
926.245	13426
926.352	13301
926.459	13514
926.566	13575
926.673	13343
926.779	13285
926.886	13274
926.993	13126
927.099	13004
927.206	13012
927.312	12958
927.419	13095
927.525	13065
927.631	13012
927.737	12897
927.843	12829
927.95	12726
928.056	12798
928.162	12939
928.267	12856
928.373	13510
928.479	12867
928.585	12578
928.69	12684
928.796	12806
928.901	12662
929.007	12517
929.112	12719
929.218	12662
929.323	12582
929.428	12570
929.533	12650
929.638	12506
929.743	12467
929.848	12509
929.953	12502
930.058	12357
930.163	12201
930.267	12277
930.372	12357
930.477	12171
930.581	12361
930.685	12266
930.79	12076
930.894	12034
930.998	12049
931.103	12155
931.207	11855
931.311	11786
931.415	11649
931.519	11512
931.623	11512
