Data from test_V78500241_700.txt Node
Date: Fri Mar 25 15:46:39 CST 2022
User: usil
Spectrometer: V785-0024
Trigger mode: 0
Integration Time (sec): 4.000000E-1
Scans to average: 1
Nonlinearity correction enabled: false
Boxcar width: 0
Storing dark spectrum: false
XAxis mode: Wavelengths
Number of Pixels in Spectrum: 1024
>>>>>Begin Spectral Data<<<<<
801.071	27462
801.214	27389
801.356	27108
801.499	27036
801.641	26940
801.783	26990
801.926	27081
802.068	27005
802.211	26940
802.353	26785
802.496	26708
802.638	26545
802.78	26556
802.923	26564
803.065	26590
803.208	26469
803.35	26598
803.492	26777
803.635	26819
803.777	26549
803.919	26940
804.061	27047
804.204	26785
804.346	26735
804.488	26636
804.63	26758
804.773	26720
804.915	26712
805.057	26929
805.199	26788
805.341	26937
805.483	26792
805.626	26880
805.768	26830
805.91	26830
806.052	26796
806.194	26933
806.336	27024
806.478	26872
806.62	26895
806.762	27093
806.904	27066
807.046	27462
807.188	27245
807.33	27386
807.472	27329
807.614	27207
807.756	27264
807.898	27252
808.04	27093
808.182	27142
808.324	27180
808.465	27199
808.607	27325
808.749	27618
808.891	27599
809.033	27854
809.174	27538
809.316	27439
809.458	27583
809.6	27580
809.741	27648
809.883	27652
810.025	27743
810.166	27751
810.308	27812
810.45	27705
810.591	27781
810.733	27523
810.875	27427
811.016	27450
811.158	27439
811.299	27526
811.441	27774
811.582	27595
811.724	27534
811.865	27359
812.007	27435
812.148	27580
812.29	27580
812.431	27835
812.573	27892
812.714	27785
812.855	28013
812.997	28131
813.138	28287
813.279	28238
813.421	28002
813.562	28090
813.703	27759
813.845	27751
813.986	27348
814.127	27367
814.268	27192
814.41	27218
814.551	27116
814.692	27287
814.833	27180
814.974	27051
815.115	27233
815.256	27009
815.397	26883
815.539	27077
815.68	27032
815.821	26826
815.962	26918
816.103	26899
816.244	26899
816.385	26796
816.526	26815
816.666	26667
816.807	26473
816.948	26590
817.089	26549
817.23	26476
817.371	26636
817.512	26473
817.653	26412
817.793	26461
817.934	26434
818.075	26495
818.216	26533
818.356	26374
818.497	26324
818.638	26149
818.778	26183
818.919	26183
819.06	26309
819.2	26336
819.341	26473
819.481	26457
819.622	26537
819.762	26762
819.903	26727
820.043	26537
820.184	26507
820.324	26598
820.465	26640
820.605	26689
820.746	26552
820.886	26415
821.026	26484
821.167	26530
821.307	26651
821.447	26366
821.588	26362
821.728	26084
821.868	26180
822.008	25997
822.149	25989
822.289	25776
822.429	25651
822.569	25704
822.709	25586
822.849	25381
822.99	25362
823.13	25407
823.27	25381
823.41	25263
823.55	25183
823.69	25327
823.83	25343
823.97	25255
824.11	25076
824.25	25065
824.389	24977
824.529	25099
824.669	25137
824.809	25240
824.949	25202
825.089	25091
825.228	24989
825.368	25053
825.508	24992
825.648	24897
825.787	25008
825.927	25053
826.067	24760
826.206	24878
826.346	24924
826.485	24875
826.625	24924
826.765	25114
826.904	24951
827.044	24722
827.183	24802
827.323	24730
827.462	24669
827.601	24593
827.741	24601
827.88	24700
828.02	24681
828.159	24525
828.298	24521
828.437	24772
828.577	24620
828.716	24582
828.855	24597
828.994	24311
829.134	24334
829.273	24369
829.412	24353
829.551	24319
829.69	24372
829.829	24414
829.968	24190
830.107	24281
830.246	24220
830.385	24190
830.524	24262
830.663	24083
830.802	24083
830.941	23996
831.08	23935
831.219	24064
831.357	23984
831.496	24159
831.635	23889
831.774	23821
831.913	23874
832.051	23722
832.19	23695
832.329	23760
832.467	23638
832.606	23551
832.744	23562
832.883	23509
833.022	23562
833.16	23668
833.299	23627
833.437	23714
833.576	23684
833.714	23604
833.852	23722
833.991	23707
834.129	23836
834.267	23707
834.406	23760
834.544	23802
834.682	23691
834.821	23687
834.959	23889
835.097	23615
835.235	23630
835.373	23627
835.511	23680
835.65	23531
835.788	23581
835.926	23372
836.064	23341
836.202	23322
836.34	23573
836.478	23649
836.615	23452
836.753	23570
836.891	23509
837.029	23589
837.167	23467
837.305	23349
837.443	23395
837.58	23360
837.718	23383
837.856	23425
837.993	23151
838.131	23417
838.269	23269
838.406	23280
838.544	23185
838.681	23044
838.819	22873
838.956	22885
839.094	22843
839.231	22889
839.369	23102
839.506	23349
839.643	23208
839.781	22812
839.918	22717
840.055	22831
840.193	22858
840.33	22774
840.467	22850
840.604	22767
840.742	23079
840.879	22626
841.016	22713
841.153	22615
841.29	22816
841.427	22786
841.564	22748
841.701	22664
841.838	22637
841.975	22637
842.112	22702
842.249	22573
842.385	22554
842.522	22744
842.659	22599
842.796	22451
842.933	22489
843.069	22466
843.206	22459
843.343	22451
843.479	22474
843.616	22451
843.752	22276
843.889	22287
844.025	22451
844.162	22215
844.298	22390
844.435	22192
844.571	22131
844.708	22310
844.844	22421
844.98	22405
845.117	22390
845.253	22234
845.389	22109
845.525	22226
845.661	22086
845.798	21926
845.934	21998
846.07	22055
846.206	22101
846.342	22188
846.478	22051
846.614	21766
846.75	21583
846.886	21770
847.022	21857
847.158	21728
847.294	21808
847.429	21797
847.565	21739
847.701	22013
847.837	21412
847.972	21538
848.108	21405
848.244	21606
848.379	21443
848.515	21378
848.65	21348
848.786	21340
848.921	21431
849.057	21485
849.192	21450
849.328	21458
849.463	21481
849.598	21237
849.734	21226
849.869	21226
850.004	21112
850.14	21108
850.275	21138
850.41	21051
850.545	21127
850.68	21123
850.815	21104
850.95	21066
851.085	21287
851.22	21222
851.355	21108
851.49	21165
851.625	21005
851.76	21032
851.895	20994
852.03	20986
852.165	21051
852.299	21085
852.434	21188
852.569	21154
852.703	21275
852.838	21207
852.973	21252
853.107	21081
853.242	21009
853.376	20910
853.511	20842
853.645	20864
853.78	21001
853.914	20933
854.048	20830
854.183	20918
854.317	20921
854.451	21173
854.585	20921
854.72	20902
854.854	20952
854.988	20975
855.122	20979
855.256	20781
855.39	20868
855.524	21005
855.658	20967
855.792	20792
855.926	21020
856.06	20948
856.194	21039
856.327	20960
856.461	20952
856.595	20914
856.729	20887
856.862	21055
856.996	20948
857.13	20960
857.263	21081
857.397	21005
857.53	20857
857.664	21009
857.797	21089
857.931	21093
858.064	20990
858.197	21043
858.331	20979
858.464	20842
858.597	20887
858.731	20994
858.864	20948
858.997	20956
859.13	20902
859.263	20868
859.396	20963
859.529	20838
859.662	20921
859.795	20857
859.928	20918
860.061	21112
860.194	21081
860.327	20902
860.46	20971
860.592	20929
860.725	21058
860.858	21009
860.99	20971
861.123	20849
861.256	21032
861.388	20834
861.521	21561
861.653	20842
861.786	20720
861.918	20807
862.05	20872
862.183	20883
862.315	20826
862.447	20842
862.58	20944
862.712	20564
862.844	20579
862.976	20720
863.108	20781
863.24	21150
863.372	20568
863.504	20674
863.636	20587
863.768	20731
863.9	20602
864.032	20640
864.164	20632
864.296	20644
864.428	20765
864.559	20705
864.691	20735
864.823	20560
864.954	20678
865.086	20606
865.217	20571
865.349	20526
865.48	20602
865.612	20590
865.743	20765
865.875	20518
866.006	20545
866.137	20621
866.269	20495
866.4	20659
866.531	20465
866.662	20438
866.793	20488
866.924	20514
867.055	20450
867.186	20568
867.317	20358
867.448	20423
867.579	20431
867.71	20332
867.841	20461
867.972	20590
868.103	20461
868.233	20423
868.364	20423
868.495	20606
868.625	20674
868.756	20895
868.886	20712
869.017	20781
869.147	20842
869.278	20944
869.408	20750
869.539	20659
869.669	20689
869.799	20727
869.929	20754
870.06	20864
870.19	21013
870.32	20986
870.45	20944
870.58	21074
870.71	21169
870.84	21188
870.97	21188
871.1	21135
871.23	21291
871.36	21256
871.489	21230
871.619	21260
871.749	21355
871.879	21336
872.008	21275
872.138	21405
872.267	21245
872.397	21222
872.526	21081
872.656	21146
872.785	21108
872.915	21302
873.044	21401
873.173	21287
873.303	21310
873.432	21424
873.561	21500
873.69	21378
873.819	21329
873.948	21405
874.077	21291
874.206	21317
874.335	21344
874.464	21447
874.593	21534
874.722	21603
874.851	21603
874.979	21557
875.108	21739
875.237	21568
875.365	21473
875.494	21485
875.623	21538
875.751	21549
875.88	21625
876.008	21698
876.136	21804
876.265	21949
876.393	22078
876.521	21903
876.65	21998
876.778	21979
876.906	21850
877.034	21972
877.162	21937
877.29	21831
877.418	21854
877.546	21907
877.674	21930
877.802	21911
877.93	21892
878.058	21892
878.185	21816
878.313	21778
878.441	21850
878.568	21819
878.696	21831
878.824	21953
878.951	22090
879.079	22063
879.206	22303
879.333	22112
879.461	21930
879.588	22131
879.715	22059
879.842	22169
879.97	22048
880.097	21728
880.224	21671
880.351	21827
880.478	21694
880.605	21694
880.732	21698
880.859	21880
880.986	21808
881.112	21812
881.239	21599
881.366	21545
881.493	21458
881.619	21310
881.746	21302
881.872	21389
881.999	21329
882.125	21252
882.252	21420
882.378	21188
882.505	21424
882.631	21336
882.757	21116
882.883	21093
883.01	21024
883.136	21001
883.262	20979
883.388	20952
883.514	21085
883.64	20960
883.766	20990
883.892	20758
884.018	20811
884.143	21028
884.269	21070
884.395	20735
884.52	20792
884.646	20667
884.772	20625
884.897	20537
885.023	20651
885.148	20826
885.274	20830
885.399	20712
885.524	20648
885.65	20644
885.775	20655
885.9	20670
886.025	20746
886.15	20686
886.275	20712
886.4	20678
886.525	20526
886.65	20579
886.775	20720
886.9	20762
887.025	20925
887.149	20598
887.274	20476
887.399	20404
887.523	20651
887.648	20442
887.773	20389
887.897	20526
888.021	20598
888.146	20347
888.27	20511
888.395	20568
888.519	20389
888.643	20431
888.767	20511
888.891	20351
889.015	20267
889.139	20214
889.263	20259
889.387	20385
889.511	20492
889.635	20385
889.759	20218
889.883	20229
890.006	20290
890.13	20278
890.254	20202
890.377	20130
890.501	20058
890.624	19974
890.748	20107
890.871	20039
890.995	19685
891.118	19746
891.241	19791
891.364	19890
891.488	20012
891.611	19967
891.734	19788
891.857	19906
891.98	19898
892.103	19883
892.226	19864
892.349	19917
892.471	19769
892.594	19628
892.717	19902
892.839	19712
892.962	19776
893.085	19769
893.207	19772
893.33	19651
893.452	19632
893.575	19731
893.697	19658
893.819	19833
893.941	19902
894.064	19906
894.186	19681
894.308	19506
894.43	19841
894.552	19811
894.674	19868
894.796	19616
894.918	19715
895.04	19845
895.161	19818
895.283	19845
895.405	19616
895.526	19700
895.648	19708
895.769	19719
895.891	19746
896.012	19906
896.134	19883
896.255	19731
896.376	19731
896.498	19635
896.619	19849
896.74	19704
896.861	19864
896.982	20100
897.103	20271
897.224	20103
897.345	20103
897.466	19963
897.587	19959
897.708	20119
897.828	19978
897.949	19967
898.07	19974
898.19	19906
898.311	19955
898.431	20005
898.552	19951
898.672	20005
898.792	20107
898.913	20008
899.033	19841
899.153	19746
899.273	19685
899.393	19795
899.513	19761
899.633	19811
899.753	19784
899.873	19719
899.993	19841
900.113	19582
900.232	19807
900.352	19639
900.472	19559
900.591	19483
900.711	19559
900.83	19518
900.95	19620
901.069	19731
901.189	19403
901.308	19107
901.427	19137
901.546	19091
901.665	19099
901.784	19099
901.904	19072
902.023	18897
902.141	18650
902.26	18665
902.379	18757
902.498	18681
902.617	18669
902.735	18681
902.854	18642
902.973	18555
903.091	18319
903.21	18216
903.328	18277
903.446	18220
903.565	18064
903.683	18136
903.801	17980
903.919	18133
904.038	18148
904.156	17969
904.274	17927
904.392	17828
904.51	17904
904.627	17832
904.745	17931
904.863	17946
904.981	17710
905.098	17532
905.216	17547
905.334	17570
905.451	17611
905.569	17490
905.686	17562
905.803	17474
905.921	17303
906.038	17421
906.155	17379
906.272	17254
906.389	17220
906.506	17045
906.623	17067
906.74	17170
906.857	16915
906.974	17033
907.091	17056
907.208	17178
907.324	17109
907.441	16957
907.557	16850
907.674	16763
907.79	16702
907.907	16778
908.023	16831
908.139	16771
908.256	16713
908.372	16656
908.488	16668
908.604	16637
908.72	16504
908.836	16500
908.952	16493
909.068	16565
909.184	16675
909.3	16516
909.415	16558
909.531	16554
909.647	16272
909.762	16287
909.878	16139
909.993	16211
910.108	16242
910.224	16173
910.339	16219
910.454	16188
910.57	15960
910.685	15979
910.8	16219
910.915	16230
911.03	16116
911.145	15835
911.259	15850
911.374	15899
911.489	15778
911.604	15720
911.718	15625
911.833	15553
911.947	15458
912.062	15408
912.176	15637
912.291	15564
912.405	15507
912.519	15804
912.633	15804
912.748	15671
912.862	15561
912.976	15431
913.09	15249
913.204	15416
913.318	15435
913.431	15614
913.545	15515
913.659	15519
913.772	15283
913.886	15275
914	15260
914.113	15298
914.226	15329
914.34	15317
914.453	15104
914.566	15195
914.68	15077
914.793	15123
914.906	14906
915.019	14765
915.132	14731
915.245	14785
915.358	14857
915.47	14872
915.583	14849
915.696	14826
915.809	15024
915.921	14921
916.034	14807
916.146	14731
916.259	14701
916.371	14788
916.483	14701
916.595	14594
916.708	14739
916.82	14667
916.932	14659
917.044	14579
917.156	14659
917.268	14594
917.38	14545
917.491	14469
917.603	14590
917.715	14636
917.826	14579
917.938	14541
918.049	14355
918.161	14507
918.272	14564
918.384	14511
918.495	14518
918.606	14332
918.717	14275
918.828	14259
918.939	14248
919.05	14145
919.161	14225
919.272	14134
919.383	14107
919.494	14298
919.604	14446
919.715	14191
919.826	14164
919.936	14214
920.047	14233
920.157	14210
920.267	14518
920.378	14278
920.488	14187
920.598	14434
920.708	14587
920.818	14393
920.928	14427
921.038	14507
921.148	14495
921.258	14142
921.368	14081
921.477	13970
921.587	13925
921.697	13852
921.806	13997
921.916	13864
922.025	13563
922.134	13636
922.244	13636
922.353	13628
922.462	13392
922.571	13411
922.68	13358
922.789	13194
922.898	13312
923.007	13228
923.116	13377
923.224	13236
923.333	13358
923.442	13160
923.55	13145
923.659	13156
923.767	13156
923.876	13031
923.984	13107
924.092	12916
924.201	13061
924.309	13069
924.417	13038
924.525	12966
924.633	12913
924.741	13871
924.849	12738
924.956	12844
925.064	12753
925.172	12631
925.279	12669
925.387	12715
925.494	12715
925.602	12875
925.709	12700
925.816	12639
925.924	12593
926.031	12738
926.138	12700
926.245	12719
926.352	12506
926.459	12753
926.566	12734
926.673	12521
926.779	12456
926.886	12353
926.993	12380
927.099	12277
927.206	12262
927.312	12159
927.419	12300
927.525	12243
927.631	12296
927.737	12159
927.843	12102
927.95	12034
928.056	12171
928.162	12106
928.267	12091
928.373	12726
928.479	12186
928.585	11965
928.69	12114
928.796	12163
928.901	11977
929.007	11897
929.112	12045
929.218	11923
929.323	11931
929.428	11817
929.533	12015
929.638	11760
929.743	11863
929.848	11748
929.953	11863
930.058	11657
930.163	11577
930.267	11539
930.372	11646
930.477	11474
930.581	11619
930.685	11543
930.79	11474
930.894	11448
930.998	11459
931.103	11558
931.207	11208
931.311	11151
931.415	11006
931.519	10767
931.623	10850
