Data from test_V78500241_262.txt Node
Date: Fri Mar 25 15:43:36 CST 2022
User: usil
Spectrometer: V785-0024
Trigger mode: 0
Integration Time (sec): 4.000000E-1
Scans to average: 1
Nonlinearity correction enabled: false
Boxcar width: 0
Storing dark spectrum: false
XAxis mode: Wavelengths
Number of Pixels in Spectrum: 1024
>>>>>Begin Spectral Data<<<<<
801.071	29855
801.214	29840
801.356	29627
801.499	29562
801.641	29497
801.783	29471
801.926	29551
802.068	29322
802.211	29509
802.353	29326
802.496	29052
802.638	29151
802.78	29079
802.923	29048
803.065	28915
803.208	29140
803.35	29121
803.492	29277
803.635	29227
803.777	29261
803.919	29303
804.061	29611
804.204	29265
804.346	29208
804.488	29258
804.63	29254
804.773	29143
804.915	29318
805.057	29349
805.199	29284
805.341	29315
805.483	29414
805.626	29406
805.768	29337
805.91	29330
806.052	29467
806.194	29368
806.336	29611
806.478	29558
806.62	29455
806.762	29467
806.904	29646
807.046	29939
807.188	29767
807.33	29908
807.472	29946
807.614	29809
807.756	29668
807.898	29748
808.04	29684
808.182	29600
808.324	29570
808.465	29505
808.607	29851
808.749	30041
808.891	30144
809.033	30197
809.174	30072
809.316	29992
809.458	30136
809.6	29836
809.741	30159
809.883	30232
810.025	30270
810.166	30247
810.308	30220
810.45	30365
810.591	30311
810.733	30224
810.875	29889
811.016	29920
811.158	29767
811.299	30083
811.441	30239
811.582	30228
811.724	30038
811.865	30072
812.007	30110
812.148	29954
812.29	30095
812.431	30106
812.573	30399
812.714	30464
812.855	30494
812.997	30566
813.138	30631
813.279	30612
813.421	30570
813.562	30467
813.703	30327
813.845	30205
813.986	29828
814.127	29866
814.268	29710
814.41	29775
814.551	29638
814.692	29653
814.833	29512
814.974	29562
815.115	29687
815.256	29528
815.397	29570
815.539	29509
815.68	29375
815.821	29414
815.962	29216
816.103	29315
816.244	29227
816.385	29174
816.526	29227
816.666	29044
816.807	28763
816.948	28892
817.089	28980
817.23	28999
817.371	28923
817.512	28869
817.653	28847
817.793	28831
817.934	28980
818.075	28934
818.216	28774
818.356	28812
818.497	28752
818.638	28516
818.778	28569
818.919	28630
819.06	28672
819.2	28839
819.341	28717
819.481	28805
819.622	28938
819.762	29162
819.903	28957
820.043	28976
820.184	28946
820.324	28904
820.465	29109
820.605	28915
820.746	28847
820.886	28809
821.026	28957
821.167	28736
821.307	28927
821.447	28828
821.588	28740
821.728	28603
821.868	28379
822.008	28409
822.149	28276
822.289	28181
822.429	27918
822.569	27759
822.709	27861
822.849	27690
822.99	27876
823.13	27766
823.27	27622
823.41	27648
823.55	27374
823.69	27561
823.83	27523
823.97	27439
824.11	27325
824.25	27252
824.389	27424
824.529	27367
824.669	27462
824.809	27435
824.949	27564
825.089	27424
825.228	27420
825.368	27138
825.508	27157
825.648	27222
825.787	27222
825.927	27329
826.067	27081
826.206	27184
826.346	27138
826.485	27317
826.625	27226
826.765	27283
826.904	27230
827.044	26986
827.183	26967
827.323	26845
827.462	26849
827.601	26956
827.741	26849
827.88	26925
828.02	26682
828.159	26807
828.298	26746
828.437	26861
828.577	26716
828.716	26872
828.855	26788
828.994	26644
829.134	26469
829.273	26663
829.412	26453
829.551	26530
829.69	26583
829.829	26568
829.968	26514
830.107	26549
830.246	26625
830.385	26503
830.524	26423
830.663	26351
830.802	26130
830.941	26130
831.08	26027
831.219	26191
831.357	26115
831.496	26412
831.635	26073
831.774	26069
831.913	26027
832.051	25879
832.19	25833
832.329	25894
832.467	25799
832.606	25575
832.744	25753
832.883	25750
833.022	25685
833.16	25807
833.299	25833
833.437	25845
833.576	25795
833.714	25704
833.852	25887
833.991	25753
834.129	25723
834.267	25913
834.406	25647
834.544	25734
834.682	25780
834.821	25689
834.959	25811
835.097	25586
835.235	25837
835.373	25727
835.511	25719
835.65	25594
835.788	25537
835.926	25449
836.064	25373
836.202	25377
836.34	25506
836.478	25662
836.615	25457
836.753	25472
836.891	25624
837.029	25578
837.167	25499
837.305	25301
837.443	25483
837.58	25495
837.718	25377
837.856	25354
837.993	25327
838.131	25362
838.269	25301
838.406	25236
838.544	25156
838.681	24989
838.819	24886
838.956	24825
839.094	24753
839.231	24802
839.369	25004
839.506	25027
839.643	25042
839.781	24863
839.918	24692
840.055	24711
840.193	24783
840.33	24684
840.467	24642
840.604	24715
840.742	24924
840.879	24544
841.016	24646
841.153	24669
841.29	24783
841.427	24661
841.564	24684
841.701	24563
841.838	24509
841.975	24509
842.112	24650
842.249	24658
842.385	24407
842.522	24631
842.659	24483
842.796	24403
842.933	24323
843.069	24270
843.206	24380
843.343	24509
843.479	24365
843.616	24277
843.752	24117
843.889	24228
844.025	24380
844.162	24045
844.298	24216
844.435	24060
844.571	24152
844.708	24136
844.844	24213
844.98	24220
845.117	24121
845.253	24117
845.389	23805
845.525	24026
845.661	23889
845.798	23874
845.934	23866
846.07	23927
846.206	23920
846.342	23866
846.478	23748
846.614	23722
846.75	23528
846.886	23425
847.022	23619
847.158	23509
847.294	23448
847.429	23589
847.565	23619
847.701	23767
847.837	23345
847.972	23239
848.108	23406
848.244	23482
848.379	23094
848.515	23200
848.65	23166
848.786	23048
848.921	23159
849.057	23208
849.192	23242
849.328	23189
849.463	23025
849.598	23029
849.734	22976
849.869	22866
850.004	22839
850.14	22896
850.275	22942
850.41	22850
850.545	22812
850.68	22793
850.815	22801
850.95	22774
851.085	23014
851.22	22984
851.355	23003
851.49	22793
851.625	22706
851.76	22911
851.895	22611
852.03	22630
852.165	22824
852.299	22843
852.434	22934
852.569	22786
852.703	22767
852.838	22858
852.973	22987
853.107	22797
853.242	22752
853.376	22672
853.511	22561
853.645	22584
853.78	22763
853.914	22672
854.048	22508
854.183	22577
854.317	22664
854.451	22736
854.585	22546
854.72	22577
854.854	22675
854.988	22580
855.122	22584
855.256	22500
855.39	22580
855.524	22691
855.658	22672
855.792	22717
855.926	22706
856.06	22622
856.194	22778
856.327	22664
856.461	22557
856.595	22561
856.729	22698
856.862	22755
856.996	22592
857.13	22683
857.263	22691
857.397	22675
857.53	22402
857.664	22542
857.797	22649
857.931	22790
858.064	22550
858.197	22725
858.331	22588
858.464	22500
858.597	22447
858.731	22645
858.864	22504
858.997	22660
859.13	22599
859.263	22649
859.396	22710
859.529	22550
859.662	22622
859.795	22443
859.928	22584
860.061	22687
860.194	22660
860.327	22626
860.46	22535
860.592	22721
860.725	22645
860.858	22618
860.99	22538
861.123	22462
861.256	22474
861.388	22577
861.521	23204
861.653	22413
861.786	22356
861.918	22409
862.05	22531
862.183	22618
862.315	22557
862.447	22675
862.58	22481
862.712	22485
862.844	22253
862.976	22363
863.108	22322
863.24	22660
863.372	22242
863.504	22318
863.636	22291
863.768	22230
863.9	22257
864.032	22177
864.164	22276
864.296	22295
864.428	22360
864.559	22284
864.691	22386
864.823	22295
864.954	22257
865.086	22150
865.217	22200
865.349	22097
865.48	22211
865.612	22116
865.743	22204
865.875	22200
866.006	22074
866.137	22082
866.269	22044
866.4	22070
866.531	22177
866.662	22025
866.793	22093
866.924	22086
867.055	22055
867.186	22059
867.317	21975
867.448	21869
867.579	22006
867.71	21956
867.841	21945
867.972	22120
868.103	21934
868.233	21994
868.364	22063
868.495	22169
868.625	22249
868.756	22360
868.886	22143
869.017	22200
869.147	22352
869.278	22405
869.408	22276
869.539	22211
869.669	22371
869.799	22306
869.929	22398
870.06	22207
870.19	22584
870.32	22592
870.45	22664
870.58	22641
870.71	22755
870.84	22630
870.97	22706
871.1	22649
871.23	22828
871.36	22748
871.489	22774
871.619	22824
871.749	22812
871.879	22835
872.008	22957
872.138	22820
872.267	22847
872.397	22805
872.526	22736
872.656	22668
872.785	22771
872.915	22896
873.044	22904
873.173	22812
873.303	22873
873.432	22873
873.561	22908
873.69	22934
873.819	22881
873.948	22934
874.077	22858
874.206	22866
874.335	22816
874.464	23018
874.593	23025
874.722	23166
874.851	23143
874.979	23193
875.108	23155
875.237	23052
875.365	23075
875.494	23067
875.623	23193
875.751	23071
875.88	23162
876.008	23254
876.136	23383
876.265	23421
876.393	23608
876.521	23551
876.65	23596
876.778	23505
876.906	23318
877.034	23326
877.162	23581
877.29	23398
877.418	23490
877.546	23520
877.674	23444
877.802	23471
877.93	23474
878.058	23395
878.185	23280
878.313	23417
878.441	23433
878.568	23311
878.696	23311
878.824	23592
878.951	23501
879.079	23600
879.206	23627
879.333	23562
879.461	23539
879.588	23589
879.715	23642
879.842	23741
879.97	23611
880.097	23280
880.224	23292
880.351	23288
880.478	23292
880.605	23189
880.732	23216
880.859	23440
880.986	23467
881.112	23246
881.239	23128
881.366	23003
881.493	22847
881.619	22820
881.746	22908
881.872	22824
881.999	22828
882.125	22786
882.252	22759
882.378	22672
882.505	22949
882.631	22660
882.757	22622
882.883	22569
883.01	22554
883.136	22500
883.262	22436
883.388	22363
883.514	22569
883.64	22557
883.766	22485
883.892	22253
884.018	22344
884.143	22584
884.269	22466
884.395	22238
884.52	22131
884.646	22173
884.772	22082
884.897	22090
885.023	22101
885.148	22306
885.274	22352
885.399	22299
885.524	22025
885.65	22109
885.775	22093
885.9	22150
886.025	22196
886.15	22150
886.275	22086
886.4	22013
886.525	22131
886.65	22070
886.775	22013
886.9	22367
887.025	22386
887.149	22063
887.274	21983
887.399	21907
887.523	21812
887.648	21854
887.773	21797
887.897	22017
888.021	21956
888.146	21899
888.27	22093
888.395	22078
888.519	21926
888.643	21819
888.767	21778
888.891	21812
889.015	21663
889.139	21701
889.263	21698
889.387	21842
889.511	21789
889.635	21732
889.759	21519
889.883	21682
890.006	21679
890.13	21610
890.254	21561
890.377	21583
890.501	21370
890.624	21348
890.748	21363
890.871	21275
890.995	21211
891.118	21066
891.241	21032
891.364	21131
891.488	21359
891.611	21256
891.734	21199
891.857	21249
891.98	21302
892.103	21218
892.226	21264
892.349	21150
892.471	21047
892.594	21199
892.717	21058
892.839	21142
892.962	21085
893.085	21100
893.207	21116
893.33	21020
893.452	21138
893.575	21173
893.697	21116
893.819	21249
893.941	21367
894.064	21283
894.186	20929
894.308	20956
894.43	21074
894.552	21169
894.674	21226
894.796	21020
894.918	21028
895.04	21089
895.161	21176
895.283	21051
895.405	21020
895.526	21036
895.648	21062
895.769	21096
895.891	20986
896.012	21233
896.134	21218
896.255	21157
896.376	21058
896.498	21192
896.619	21100
896.74	21081
896.861	21268
896.982	21416
897.103	21553
897.224	21450
897.345	21424
897.466	21199
897.587	21332
897.708	21473
897.828	21283
897.949	21211
898.07	21138
898.19	21211
898.311	21370
898.431	21127
898.552	21272
898.672	21237
898.792	21340
898.913	21256
899.033	21157
899.153	21131
899.273	20956
899.393	20975
899.513	20925
899.633	20853
899.753	21039
899.873	20918
899.993	21070
900.113	20895
900.232	20929
900.352	20872
900.472	20800
900.591	20705
900.711	20807
900.83	20743
900.95	20800
901.069	20902
901.189	20530
901.308	20434
901.427	20301
901.546	20275
901.665	20343
901.784	20412
901.904	20271
902.023	20008
902.141	19947
902.26	19715
902.379	19830
902.498	19753
902.617	19780
902.735	19822
902.854	19761
902.973	19559
903.091	19381
903.21	19365
903.328	19373
903.446	19358
903.565	19278
903.683	19327
903.801	19084
903.919	19187
904.038	19114
904.156	19027
904.274	19107
904.392	18943
904.51	19023
904.627	19023
904.745	19031
904.863	19137
904.981	18840
905.098	18684
905.216	18517
905.334	18604
905.451	18764
905.569	18578
905.686	18757
905.803	18722
905.921	18464
906.038	18521
906.155	18513
906.272	18448
906.389	18266
906.506	18136
906.623	18228
906.74	18300
906.857	18106
906.974	18178
907.091	18247
907.208	18235
907.324	18205
907.441	18121
907.557	17935
907.674	17950
907.79	17859
907.907	17783
908.023	17920
908.139	17950
908.256	17813
908.372	17722
908.488	17824
908.604	17566
908.72	17566
908.836	17497
908.952	17505
909.068	17604
909.184	17615
909.3	17452
909.415	17665
909.531	17562
909.647	17235
909.762	17220
909.878	17269
909.993	17315
910.108	17299
910.224	17204
910.339	17147
910.454	17041
910.57	17083
910.685	16904
910.8	17208
910.915	17113
911.03	17048
911.145	16949
911.259	16892
911.374	16824
911.489	16748
911.604	16656
911.718	16634
911.833	16550
911.947	16466
912.062	16470
912.176	16626
912.291	16561
912.405	16474
912.519	16733
912.633	16778
912.748	16531
912.862	16497
912.976	16379
913.09	16215
913.204	16303
913.318	16314
913.431	16421
913.545	16299
913.659	16322
913.772	16333
913.886	16196
914	16230
914.113	16166
914.226	16246
914.34	16265
914.453	16051
914.566	16204
914.68	15949
914.793	15975
914.906	15873
915.019	15759
915.132	15690
915.245	15751
915.358	15709
915.47	15728
915.583	15724
915.696	15717
915.809	15762
915.921	15804
916.034	15747
916.146	15587
916.259	15557
916.371	15747
916.483	15603
916.595	15648
916.708	15603
916.82	15599
916.932	15492
917.044	15496
917.156	15515
917.268	15321
917.38	15405
917.491	15306
917.603	15367
917.715	15401
917.826	15382
917.938	15249
918.049	15123
918.161	15340
918.272	15393
918.384	15405
918.495	15283
918.606	15146
918.717	15173
918.828	15116
918.939	15230
919.05	14975
919.161	15077
919.272	14720
919.383	14906
919.494	15135
919.604	15214
919.715	15028
919.826	14994
919.936	15017
920.047	15131
920.157	15077
920.267	15218
920.378	15077
920.488	14994
920.598	15169
920.708	15332
920.818	15222
920.928	15226
921.038	15325
921.148	15195
921.258	15032
921.368	14872
921.477	14720
921.587	14746
921.697	14670
921.806	14796
921.916	14564
922.025	14381
922.134	14385
922.244	14305
922.353	14362
922.462	14237
922.571	14145
922.68	14035
922.789	14005
922.898	13963
923.007	13917
923.116	13959
923.224	14001
923.333	13936
923.442	13852
923.55	13761
923.659	13849
923.767	13928
923.876	13772
923.984	13795
924.092	13807
924.201	13811
924.309	13795
924.417	13757
924.525	13597
924.633	13537
924.741	14358
924.849	13480
924.956	13582
925.064	13350
925.172	13312
925.279	13346
925.387	13514
925.494	13343
925.602	13434
925.709	13506
925.816	13221
925.924	13343
926.031	13426
926.138	13316
926.245	13289
926.352	13133
926.459	13365
926.566	13419
926.673	13247
926.779	13046
926.886	13000
926.993	12970
927.099	12856
927.206	12837
927.312	12913
927.419	12856
927.525	13004
927.631	12844
927.737	12821
927.843	12810
927.95	12677
928.056	12715
928.162	12894
928.267	12795
928.373	13362
928.479	12810
928.585	12502
928.69	12589
928.796	12730
928.901	12597
929.007	12388
929.112	12616
929.218	12551
929.323	12536
929.428	12429
929.533	12601
929.638	12388
929.743	12380
929.848	12437
929.953	12350
930.058	12232
930.163	12083
930.267	12140
930.372	12281
930.477	12057
930.581	12247
930.685	12102
930.79	12022
930.894	12026
930.998	12060
931.103	12125
931.207	11733
931.311	11608
931.415	11543
931.519	11303
931.623	11261
