Data from test_V78500241_560.txt Node
Date: Fri Mar 25 15:45:40 CST 2022
User: usil
Spectrometer: V785-0024
Trigger mode: 0
Integration Time (sec): 4.000000E-1
Scans to average: 1
Nonlinearity correction enabled: false
Boxcar width: 0
Storing dark spectrum: false
XAxis mode: Wavelengths
Number of Pixels in Spectrum: 1024
>>>>>Begin Spectral Data<<<<<
801.071	27367
801.214	27306
801.356	27127
801.499	26990
801.641	27001
801.783	26880
801.926	26876
802.068	26929
802.211	26800
802.353	26773
802.496	26667
802.638	26541
802.78	26655
802.923	26549
803.065	26533
803.208	26507
803.35	26598
803.492	26655
803.635	26598
803.777	26423
803.919	26727
804.061	26986
804.204	26724
804.346	26670
804.488	26564
804.63	26632
804.773	26571
804.915	26826
805.057	26804
805.199	26708
805.341	26743
805.483	26735
805.626	26701
805.768	26705
805.91	26876
806.052	26845
806.194	26651
806.336	27013
806.478	26811
806.62	26887
806.762	26986
806.904	27055
807.046	27249
807.188	27275
807.33	27222
807.472	27256
807.614	27214
807.756	27199
807.898	26998
808.04	27009
808.182	27089
808.324	26929
808.465	27154
808.607	27230
808.749	27363
808.891	27504
809.033	27553
809.174	27515
809.316	27389
809.458	27401
809.6	27492
809.741	27447
809.883	27568
810.025	27732
810.166	27599
810.308	27705
810.45	27633
810.591	27530
810.733	27443
810.875	27340
811.016	27317
811.158	27378
811.299	27549
811.441	27542
811.582	27637
811.724	27439
811.865	27302
812.007	27389
812.148	27310
812.29	27416
812.431	27401
812.573	27606
812.714	27755
812.855	27892
812.997	28070
813.138	28154
813.279	28074
813.421	27983
813.562	27934
813.703	27759
813.845	27553
813.986	27275
814.127	27207
814.268	27062
814.41	27203
814.551	27100
814.692	27176
814.833	26971
814.974	27017
815.115	27028
815.256	26963
815.397	26887
815.539	26998
815.68	26891
815.821	26872
815.962	26769
816.103	26861
816.244	26720
816.385	26613
816.526	26655
816.666	26381
816.807	26400
816.948	26431
817.089	26530
817.23	26366
817.371	26377
817.512	26404
817.653	26339
817.793	26130
817.934	26275
818.075	26343
818.216	26202
818.356	26267
818.497	26092
818.638	26027
818.778	26069
818.919	26115
819.06	26191
819.2	26298
819.341	26298
819.481	26199
819.622	26556
819.762	26804
819.903	26667
820.043	26400
820.184	26473
820.324	26415
820.465	26518
820.605	26434
820.746	26393
820.886	26225
821.026	26404
821.167	26366
821.307	26393
821.447	26309
821.588	26248
821.728	26138
821.868	26024
822.008	25883
822.149	25715
822.289	25620
822.429	25559
822.569	25407
822.709	25472
822.849	25438
822.99	25327
823.13	25358
823.27	25206
823.41	25080
823.55	24951
823.69	25122
823.83	25084
823.97	25095
824.11	24924
824.25	24932
824.389	25088
824.529	24954
824.669	24894
824.809	25080
824.949	25053
825.089	25114
825.228	25152
825.368	24715
825.508	24677
825.648	24764
825.787	24719
825.927	24779
826.067	24829
826.206	24840
826.346	24875
826.485	24905
826.625	24749
826.765	24878
826.904	24924
827.044	24555
827.183	24551
827.323	24403
827.462	24536
827.601	24445
827.741	24376
827.88	24471
828.02	24384
828.159	24494
828.298	24517
828.437	24631
828.577	24414
828.716	24665
828.855	24327
828.994	24254
829.134	24171
829.273	24235
829.412	24083
829.551	24095
829.69	24205
829.829	24159
829.968	24266
830.107	24277
830.246	24247
830.385	24064
830.524	24079
830.663	24083
830.802	23901
830.941	23805
831.08	23866
831.219	23714
831.357	23904
831.496	24026
831.635	23760
831.774	23737
831.913	23805
832.051	23570
832.19	23661
832.329	23581
832.467	23497
832.606	23531
832.744	23436
832.883	23516
833.022	23547
833.16	23459
833.299	23547
833.437	23589
833.576	23528
833.714	23524
833.852	23604
833.991	23684
834.129	23592
834.267	23566
834.406	23634
834.544	23615
834.682	23703
834.821	23429
834.959	23661
835.097	23501
835.235	23509
835.373	23547
835.511	23463
835.65	23364
835.788	23345
835.926	23280
836.064	23292
836.202	23208
836.34	23452
836.478	23478
836.615	23376
836.753	23356
836.891	23493
837.029	23436
837.167	23326
837.305	23193
837.443	23368
837.58	23296
837.718	23261
837.856	23189
837.993	23094
838.131	23197
838.269	23143
838.406	23098
838.544	23056
838.681	22866
838.819	22927
838.956	22835
839.094	22592
839.231	22672
839.369	22900
839.506	23162
839.643	22961
839.781	22755
839.918	22557
840.055	22683
840.193	22679
840.33	22599
840.467	22653
840.604	22717
840.742	22904
840.879	22527
841.016	22554
841.153	22527
841.29	22637
841.427	22725
841.564	22691
841.701	22535
841.838	22634
841.975	22436
842.112	22519
842.249	22428
842.385	22329
842.522	22535
842.659	22413
842.796	22348
842.933	22314
843.069	22299
843.206	22367
843.343	22413
843.479	22287
843.616	22341
843.752	22139
843.889	22253
844.025	22074
844.162	22169
844.298	22215
844.435	22131
844.571	22029
844.708	22135
844.844	22394
844.98	22219
845.117	22257
845.253	22048
845.389	22029
845.525	21964
845.661	22013
845.798	21930
845.934	21899
846.07	21968
846.206	21922
846.342	21949
846.478	21899
846.614	21793
846.75	21462
846.886	21625
847.022	21667
847.158	21583
847.294	21583
847.429	21698
847.565	21526
847.701	21812
847.837	21496
847.972	21283
848.108	21488
848.244	21370
848.379	21348
848.515	21165
848.65	21150
848.786	21279
848.921	21287
849.057	21401
849.192	21146
849.328	21325
849.463	21180
849.598	21203
849.734	21146
849.869	21051
850.004	20952
850.14	20937
850.275	20952
850.41	20937
850.545	20937
850.68	21058
850.815	20925
850.95	20872
851.085	21180
851.22	21017
851.355	20952
851.49	20960
851.625	21032
851.76	20967
851.895	20906
852.03	20887
852.165	21058
852.299	21138
852.434	20971
852.569	21020
852.703	21058
852.838	21077
852.973	21093
853.107	21070
853.242	20872
853.376	20796
853.511	20731
853.645	20815
853.78	20929
853.914	20708
854.048	20773
854.183	20731
854.317	20861
854.451	20975
854.585	20781
854.72	20910
854.854	20872
854.988	20743
855.122	20830
855.256	20648
855.39	20800
855.524	20796
855.658	20876
855.792	20815
855.926	20811
856.06	20891
856.194	20956
856.327	20785
856.461	20705
856.595	20785
856.729	20857
856.862	20861
856.996	20895
857.13	20921
857.263	20880
857.397	20895
857.53	20849
857.664	20781
857.797	20921
857.931	20956
858.064	20788
858.197	21096
858.331	20910
858.464	20659
858.597	20750
858.731	20754
858.864	20758
858.997	20845
859.13	20845
859.263	20861
859.396	20914
859.529	20815
859.662	20716
859.795	20648
859.928	20762
860.061	20902
860.194	21058
860.327	20941
860.46	20864
860.592	20895
860.725	20952
860.858	20834
860.99	20807
861.123	20678
861.256	20724
861.388	20724
861.521	21294
861.653	20674
861.786	20670
861.918	20644
862.05	20636
862.183	20674
862.315	20788
862.447	20880
862.58	20773
862.712	20590
862.844	20465
862.976	20594
863.108	20613
863.24	20948
863.372	20423
863.504	20560
863.636	20434
863.768	20613
863.9	20450
864.032	20495
864.164	20457
864.296	20587
864.428	20590
864.559	20590
864.691	20549
864.823	20385
864.954	20488
865.086	20400
865.217	20374
865.349	20347
865.48	20476
865.612	20454
865.743	20461
865.875	20499
866.006	20282
866.137	20431
866.269	20507
866.4	20389
866.531	20317
866.662	20473
866.793	20305
866.924	20366
867.055	20385
867.186	20492
867.317	20305
867.448	20195
867.579	20396
867.71	20381
867.841	20267
867.972	20343
868.103	20313
868.233	20389
868.364	20332
868.495	20461
868.625	20568
868.756	20750
868.886	20575
869.017	20560
869.147	20678
869.278	20724
869.408	20648
869.539	20568
869.669	20693
869.799	20590
869.929	20712
870.06	20720
870.19	20899
870.32	20937
870.45	20933
870.58	21036
870.71	21154
870.84	21051
870.97	21066
871.1	20952
871.23	21188
871.36	21093
871.489	21138
871.619	21199
871.749	21321
871.879	21298
872.008	21252
872.138	21188
872.267	21085
872.397	21051
872.526	21009
872.656	21051
872.785	21066
872.915	21169
873.044	21348
873.173	21321
873.303	21355
873.432	21370
873.561	21302
873.69	21374
873.819	21264
873.948	21222
874.077	21180
874.206	21157
874.335	21150
874.464	21249
874.593	21462
874.722	21416
874.851	21473
874.979	21504
875.108	21576
875.237	21435
875.365	21348
875.494	21469
875.623	21545
875.751	21477
875.88	21477
876.008	21572
876.136	21667
876.265	21857
876.393	21892
876.521	22006
876.65	21979
876.778	21838
876.906	21785
877.034	21804
877.162	21850
877.29	21641
877.418	21873
877.546	21838
877.674	21739
877.802	21812
877.93	21873
878.058	21873
878.185	21576
878.313	21774
878.441	21739
878.568	21690
878.696	21709
878.824	21816
878.951	21903
879.079	22074
879.206	22196
879.333	21953
879.461	21694
879.588	21979
879.715	21949
879.842	22143
879.97	21937
880.097	21572
880.224	21603
880.351	21595
880.478	21595
880.605	21587
880.732	21606
880.859	21930
880.986	21705
881.112	21713
881.239	21568
881.366	21382
881.493	21405
881.619	21260
881.746	21230
881.872	21272
881.999	21226
882.125	21180
882.252	21237
882.378	21203
882.505	21260
882.631	20868
882.757	20948
882.883	21032
883.01	20952
883.136	20914
883.262	20708
883.388	20750
883.514	20979
883.64	21062
883.766	20788
883.892	20716
884.018	20758
884.143	20895
884.269	20929
884.395	20697
884.52	20648
884.646	20583
884.772	20556
884.897	20492
885.023	20533
885.148	20697
885.274	20777
885.399	20769
885.524	20526
885.65	20583
885.775	20541
885.9	20590
886.025	20621
886.15	20689
886.275	20594
886.4	20415
886.525	20552
886.65	20514
886.775	20446
886.9	20686
887.025	20792
887.149	20530
887.274	20385
887.399	20317
887.523	20313
887.648	20301
887.773	20282
887.897	20396
888.021	20454
888.146	20229
888.27	20412
888.395	20404
888.519	20278
888.643	20427
888.767	20305
888.891	20233
889.015	20149
889.139	20225
889.263	20142
889.387	20210
889.511	20351
889.635	20301
889.759	20081
889.883	20126
890.006	20206
890.13	20202
890.254	20115
890.377	20119
890.501	19967
890.624	19875
890.748	20012
890.871	19799
890.995	19620
891.118	19693
891.241	19704
891.364	19742
891.488	19833
891.611	19734
891.734	19769
891.857	19772
891.98	19655
892.103	19750
892.226	19658
892.349	19750
892.471	19567
892.594	19590
892.717	19731
892.839	19556
892.962	19723
893.085	19693
893.207	19639
893.33	19506
893.452	19521
893.575	19738
893.697	19670
893.819	19605
893.941	19868
894.064	19757
894.186	19548
894.308	19635
894.43	19655
894.552	19746
894.674	19734
894.796	19605
894.918	19609
895.04	19556
895.161	19696
895.283	19658
895.405	19632
895.526	19651
895.648	19655
895.769	19609
895.891	19662
896.012	19708
896.134	19689
896.255	19651
896.376	19525
896.498	19552
896.619	19677
896.74	19655
896.861	19609
896.982	19925
897.103	19940
897.224	19944
897.345	19909
897.466	19769
897.587	19799
897.708	19986
897.828	19833
897.949	19791
898.07	19712
898.19	19814
898.311	19967
898.431	19856
898.552	19913
898.672	19849
898.792	19989
898.913	19883
899.033	19799
899.153	19788
899.273	19609
899.393	19635
899.513	19795
899.633	19556
899.753	19582
899.873	19499
899.993	19753
900.113	19483
900.232	19662
900.352	19628
900.472	19377
900.591	19381
900.711	19445
900.83	19362
900.95	19521
901.069	19438
901.189	19316
901.308	19103
901.427	19046
901.546	19023
901.665	19084
901.784	19057
901.904	18924
902.023	18848
902.141	18749
902.26	18494
902.379	18589
902.498	18589
902.617	18578
902.735	18585
902.854	18502
902.973	18357
903.091	18273
903.21	18232
903.328	18197
903.446	18243
903.565	18003
903.683	18053
903.801	17786
903.919	18003
904.038	17904
904.156	17843
904.274	17870
904.392	17836
904.51	17756
904.627	17802
904.745	17840
904.863	17889
904.981	17592
905.098	17482
905.216	17558
905.334	17577
905.451	17497
905.569	17402
905.686	17524
905.803	17433
905.921	17387
906.038	17353
906.155	17349
906.272	17117
906.389	17204
906.506	16991
906.623	17094
906.74	16999
906.857	16801
906.974	17025
907.091	17045
907.208	17121
907.324	16980
907.441	16908
907.557	16725
907.674	16721
907.79	16607
907.907	16683
908.023	16713
908.139	16698
908.256	16596
908.372	16618
908.488	16527
908.604	16531
908.72	16443
908.836	16371
908.952	16352
909.068	16504
909.184	16478
909.3	16451
909.415	16440
909.531	16375
909.647	16234
909.762	16128
909.878	16093
909.993	16139
910.108	16097
910.224	15968
910.339	16139
910.454	16116
910.57	15987
910.685	15892
910.8	16226
910.915	16124
911.03	15876
911.145	15736
911.259	15713
911.374	15698
911.489	15732
911.604	15561
911.718	15492
911.833	15557
911.947	15378
912.062	15393
912.176	15519
912.291	15462
912.405	15530
912.519	15751
912.633	15701
912.748	15515
912.862	15504
912.976	15230
913.09	15249
913.204	15363
913.318	15321
913.431	15370
913.545	15412
913.659	15408
913.772	15279
913.886	15142
914	15119
914.113	15100
914.226	15245
914.34	15116
914.453	14952
914.566	15097
914.68	15036
914.793	14902
914.906	14807
915.019	14750
915.132	14777
915.245	14750
915.358	14739
915.47	14811
915.583	14796
915.696	14754
915.809	14857
915.921	14849
916.034	14659
916.146	14571
916.259	14659
916.371	14689
916.483	14697
916.595	14552
916.708	14598
916.82	14674
916.932	14575
917.044	14568
917.156	14476
917.268	14450
917.38	14450
917.491	14431
917.603	14355
917.715	14415
917.826	14362
917.938	14343
918.049	14176
918.161	14370
918.272	14514
918.384	14457
918.495	14503
918.606	14221
918.717	14187
918.828	14187
918.939	14229
919.05	14043
919.161	14180
919.272	13879
919.383	13936
919.494	14168
919.604	14305
919.715	14168
919.826	14115
919.936	14054
920.047	14233
920.157	14248
920.267	14423
920.378	14214
920.488	14065
920.598	14263
920.708	14434
920.818	14263
920.928	14324
921.038	14366
921.148	14313
921.258	14153
921.368	14020
921.477	13917
921.587	13849
921.697	13811
921.806	13837
921.916	13788
922.025	13613
922.134	13468
922.244	13525
922.353	13594
922.462	13510
922.571	13282
922.68	13240
922.789	13156
922.898	13225
923.007	13145
923.116	13221
923.224	13179
923.333	13217
923.442	12981
923.55	12939
923.659	12996
923.767	13118
923.876	12966
923.984	13038
924.092	12894
924.201	12935
924.309	12935
924.417	13034
924.525	12882
924.633	12768
924.741	13784
924.849	12658
924.956	12817
925.064	12650
925.172	12612
925.279	12620
925.387	12700
925.494	12669
925.602	12700
925.709	12650
925.816	12521
925.924	12589
926.031	12662
926.138	12585
926.245	12646
926.352	12536
926.459	12642
926.566	12620
926.673	12517
926.779	12460
926.886	12429
926.993	12205
927.099	12201
927.206	12148
927.312	12190
927.419	12224
927.525	12209
927.631	12216
927.737	12171
927.843	12019
927.95	11969
928.056	12038
928.162	12121
928.267	12068
928.373	12681
928.479	12022
928.585	11790
928.69	11935
928.796	12053
928.901	11832
929.007	11821
929.112	11904
929.218	11866
929.323	11760
929.428	11824
929.533	11916
929.638	11729
929.743	11695
929.848	11790
929.953	11748
930.058	11695
930.163	11436
930.267	11493
930.372	11547
930.477	11425
930.581	11714
930.685	11520
930.79	11364
930.894	11383
930.998	11349
931.103	11532
931.207	11098
931.311	11014
931.415	10972
931.519	10767
931.623	10710
