Data from test_V78500241_362.txt Node
Date: Fri Mar 25 15:44:18 CST 2022
User: usil
Spectrometer: V785-0024
Trigger mode: 0
Integration Time (sec): 4.000000E-1
Scans to average: 1
Nonlinearity correction enabled: false
Boxcar width: 0
Storing dark spectrum: false
XAxis mode: Wavelengths
Number of Pixels in Spectrum: 1024
>>>>>Begin Spectral Data<<<<<
801.071	29665
801.214	29760
801.356	29699
801.499	29600
801.641	29410
801.783	29364
801.926	29505
802.068	29410
802.211	29280
802.353	29166
802.496	28938
802.638	29124
802.78	29193
802.923	29037
803.065	29052
803.208	29128
803.35	29204
803.492	29269
803.635	29311
803.777	29170
803.919	29311
804.061	29539
804.204	29440
804.346	29121
804.488	29159
804.63	29387
804.773	29250
804.915	29162
805.057	29307
805.199	29337
805.341	29440
805.483	29372
805.626	29490
805.768	29341
805.91	29330
806.052	29493
806.194	29402
806.336	29649
806.478	29455
806.62	29554
806.762	29611
806.904	29889
807.046	29961
807.188	29840
807.33	29931
807.472	29874
807.614	29741
807.756	29790
807.898	29684
808.04	29699
808.182	29885
808.324	29619
808.465	29577
808.607	29897
808.749	30167
808.891	30254
809.033	30289
809.174	30144
809.316	30262
809.458	30152
809.6	30186
809.741	30273
809.883	30201
810.025	30346
810.166	30346
810.308	30570
810.45	30270
810.591	30338
810.733	30201
810.875	30091
811.016	30117
811.158	30117
811.299	30281
811.441	30304
811.582	30292
811.724	30106
811.865	30148
812.007	30011
812.148	30102
812.29	30106
812.431	30205
812.573	30441
812.714	30540
812.855	30768
812.997	30779
813.138	30882
813.279	30787
813.421	30673
813.562	30570
813.703	30483
813.845	30395
813.986	29866
814.127	29927
814.268	29737
814.41	29855
814.551	29783
814.692	29722
814.833	29786
814.974	29634
815.115	29809
815.256	29486
815.397	29726
815.539	29722
815.68	29653
815.821	29554
815.962	29528
816.103	29604
816.244	29341
816.385	29334
816.526	29299
816.666	29197
816.807	29033
816.948	29185
817.089	29204
817.23	28976
817.371	29143
817.512	29060
817.653	28934
817.793	29006
817.934	29048
818.075	29052
818.216	29102
818.356	29029
818.497	28927
818.638	28675
818.778	28790
818.919	28668
819.06	28797
819.2	28900
819.341	29025
819.481	28968
819.622	29143
819.762	29322
819.903	29094
820.043	29113
820.184	29128
820.324	29147
820.465	29185
820.605	29060
820.746	29022
820.886	28965
821.026	29105
821.167	29067
821.307	29060
821.447	28968
821.588	28968
821.728	28694
821.868	28577
822.008	28531
822.149	28421
822.289	28447
822.429	28135
822.569	28166
822.709	28169
822.849	28048
822.99	27873
823.13	27953
823.27	27930
823.41	27755
823.55	27629
823.69	27751
823.83	27728
823.97	27751
824.11	27485
824.25	27629
824.389	27561
824.529	27504
824.669	27515
824.809	27743
824.949	27576
825.089	27557
825.228	27534
825.368	27443
825.508	27447
825.648	27443
825.787	27329
825.927	27473
826.067	27439
826.206	27412
826.346	27447
826.485	27378
826.625	27549
826.765	27427
826.904	27488
827.044	27260
827.183	27169
827.323	27116
827.462	27184
827.601	27207
827.741	27184
827.88	27028
828.02	26914
828.159	26971
828.298	27104
828.437	27051
828.577	27066
828.716	27062
828.855	27066
828.994	26670
829.134	26792
829.273	26746
829.412	26796
829.551	26716
829.69	26648
829.829	26910
829.968	26720
830.107	26781
830.246	26716
830.385	26629
830.524	26629
830.663	26571
830.802	26408
830.941	26267
831.08	26221
831.219	26461
831.357	26294
831.496	26602
831.635	26355
831.774	26355
831.913	26149
832.051	26050
832.19	26164
832.329	26107
832.467	26008
832.606	25913
832.744	25906
832.883	25970
833.022	25883
833.16	25944
833.299	26020
833.437	25944
833.576	26122
833.714	26050
833.852	26024
833.991	26058
834.129	26005
834.267	26012
834.406	25921
834.544	26024
834.682	25936
834.821	26020
834.959	26187
835.097	25906
835.235	26081
835.373	25959
835.511	25909
835.65	25753
835.788	25761
835.926	25613
836.064	25643
836.202	25723
836.34	25731
836.478	25989
836.615	25700
836.753	25639
836.891	25944
837.029	25830
837.167	25795
837.305	25597
837.443	25594
837.58	25540
837.718	25689
837.856	25613
837.993	25647
838.131	25575
838.269	25320
838.406	25479
838.544	25529
838.681	25198
838.819	25099
838.956	25008
839.094	25031
839.231	25187
839.369	25263
839.506	25327
839.643	25244
839.781	25046
839.918	25027
840.055	25072
840.193	24859
840.33	25012
840.467	25027
840.604	24947
840.742	25069
840.879	24837
841.016	24787
841.153	24821
841.29	25023
841.427	25015
841.564	24947
841.701	24856
841.838	24787
841.975	24711
842.112	24825
842.249	24665
842.385	24757
842.522	24863
842.659	24776
842.796	24635
842.933	24563
843.069	24654
843.206	24639
843.343	24574
843.479	24505
843.616	24627
843.752	24346
843.889	24323
844.025	24486
844.162	24296
844.298	24426
844.435	24304
844.571	24300
844.708	24380
844.844	24475
844.98	24353
845.117	24410
845.253	24426
845.389	24155
845.525	24376
845.661	24205
845.798	24114
845.934	24300
846.07	24064
846.206	24140
846.342	24266
846.478	24182
846.614	23912
846.75	23729
846.886	23901
847.022	23851
847.158	23802
847.294	23687
847.429	23794
847.565	23752
847.701	23984
847.837	23505
847.972	23531
848.108	23566
848.244	23596
848.379	23448
848.515	23212
848.65	23417
848.786	23440
848.921	23322
849.057	23497
849.192	23387
849.328	23406
849.463	23395
849.598	23307
849.734	23212
849.869	23341
850.004	23181
850.14	23121
850.275	23162
850.41	23128
850.545	23075
850.68	23174
850.815	23147
850.95	23140
851.085	23254
851.22	23220
851.355	22965
851.49	23166
851.625	23029
851.76	23010
851.895	22885
852.03	22968
852.165	23075
852.299	23075
852.434	23231
852.569	23041
852.703	23048
852.838	23090
852.973	23162
853.107	23041
853.242	23014
853.376	22881
853.511	22755
853.645	22923
853.78	23018
853.914	22927
854.048	22900
854.183	22725
854.317	22889
854.451	23018
854.585	22858
854.72	22908
854.854	23010
854.988	22755
855.122	22816
855.256	22755
855.39	23044
855.524	22904
855.658	23003
855.792	22965
855.926	22957
856.06	22915
856.194	22915
856.327	22904
856.461	22816
856.595	22740
856.729	22828
856.862	22987
856.996	22805
857.13	22881
857.263	23018
857.397	22930
857.53	22843
857.664	22942
857.797	22946
857.931	23060
858.064	22774
858.197	23018
858.331	22839
858.464	22858
858.597	22786
858.731	22653
858.864	22733
858.997	22809
859.13	22786
859.263	22790
859.396	22889
859.529	22786
859.662	22763
859.795	22675
859.928	22839
860.061	23006
860.194	23006
860.327	22831
860.46	22854
860.592	22869
860.725	22984
860.858	22987
860.99	22835
861.123	22820
861.256	22733
861.388	22763
861.521	23539
861.653	22717
861.786	22687
861.918	22687
862.05	22717
862.183	22748
862.315	22934
862.447	22858
862.58	22649
862.712	22535
862.844	22516
862.976	22599
863.108	22561
863.24	23006
863.372	22432
863.504	22489
863.636	22523
863.768	22512
863.9	22592
864.032	22504
864.164	22474
864.296	22538
864.428	22561
864.559	22519
864.691	22599
864.823	22683
864.954	22527
865.086	22405
865.217	22413
865.349	22356
865.48	22394
865.612	22466
865.743	22565
865.875	22447
866.006	22367
866.137	22459
866.269	22367
866.4	22470
866.531	22356
866.662	22291
866.793	22363
866.924	22280
867.055	22394
867.186	22371
867.317	22185
867.448	22261
867.579	22428
867.71	22249
867.841	22215
867.972	22352
868.103	22299
868.233	22363
868.364	22344
868.495	22371
868.625	22618
868.756	22592
868.886	22436
869.017	22527
869.147	22622
869.278	22653
869.408	22527
869.539	22607
869.669	22634
869.799	22653
869.929	22561
870.06	22691
870.19	22934
870.32	22911
870.45	22889
870.58	22797
870.71	23105
870.84	23044
870.97	22839
871.1	22919
871.23	23136
871.36	23181
871.489	22972
871.619	23029
871.749	23166
871.879	23033
872.008	23242
872.138	23090
872.267	23136
872.397	22965
872.526	22987
872.656	23014
872.785	22991
872.915	23227
873.044	23265
873.173	23151
873.303	23277
873.432	23212
873.561	23326
873.69	23337
873.819	23086
873.948	23299
874.077	23083
874.206	23064
874.335	23181
874.464	23250
874.593	23395
874.722	23379
874.851	23478
874.979	23356
875.108	23429
875.237	23315
875.365	23334
875.494	23250
875.623	23402
875.751	23322
875.88	23326
876.008	23455
876.136	23657
876.265	23687
876.393	23847
876.521	23767
876.65	23824
876.778	23707
876.906	23691
877.034	23657
877.162	23771
877.29	23592
877.418	23775
877.546	23699
877.674	23687
877.802	23775
877.93	23649
878.058	23703
878.185	23592
878.313	23699
878.441	23657
878.568	23467
878.696	23581
878.824	23703
878.951	23752
879.079	23923
879.206	24171
879.333	23889
879.461	23653
879.588	23726
879.715	23874
879.842	23885
879.97	23665
880.097	23562
880.224	23551
880.351	23528
880.478	23516
880.605	23547
880.732	23452
880.859	23733
880.986	23520
881.112	23623
881.239	23265
881.366	23307
881.493	23189
881.619	23033
881.746	23121
881.872	23064
881.999	23006
882.125	22976
882.252	23025
882.378	23018
882.505	23223
882.631	22991
882.757	22831
882.883	22805
883.01	22877
883.136	22725
883.262	22698
883.388	22565
883.514	22729
883.64	22729
883.766	22713
883.892	22516
884.018	22554
884.143	22557
884.269	22744
884.395	22367
884.52	22322
884.646	22531
884.772	22371
884.897	22303
885.023	22402
885.148	22504
885.274	22573
885.399	22557
885.524	22436
885.65	22356
885.775	22363
885.9	22242
886.025	22493
886.15	22466
886.275	22284
886.4	22310
886.525	22382
886.65	22322
886.775	22291
886.9	22421
887.025	22634
887.149	22352
887.274	22291
887.399	22158
887.523	22131
887.648	22093
887.773	22021
887.897	22078
888.021	22116
888.146	22010
888.27	22109
888.395	22329
888.519	22230
888.643	22131
888.767	22154
888.891	22196
889.015	21903
889.139	21987
889.263	21804
889.387	21991
889.511	22150
889.635	22017
889.759	21911
889.883	21930
890.006	21983
890.13	21975
890.254	21717
890.377	21888
890.501	21606
890.624	21637
890.748	21755
890.871	21641
890.995	21523
891.118	21321
891.241	21523
891.364	21526
891.488	21504
891.611	21469
891.734	21469
891.857	21496
891.98	21439
892.103	21466
892.226	21458
892.349	21428
892.471	21363
892.594	21256
892.717	21447
892.839	21249
892.962	21256
893.085	21435
893.207	21401
893.33	21230
893.452	21241
893.575	21359
893.697	21260
893.819	21382
893.941	21447
894.064	21386
894.186	21199
894.308	21203
894.43	21477
894.552	21473
894.674	21443
894.796	21199
894.918	21294
895.04	21355
895.161	21447
895.283	21477
895.405	21279
895.526	21256
895.648	21306
895.769	21268
895.891	21306
896.012	21458
896.134	21313
896.255	21359
896.376	21363
896.498	21283
896.619	21389
896.74	21401
896.861	21408
896.982	21641
897.103	21705
897.224	21545
897.345	21576
897.466	21359
897.587	21450
897.708	21603
897.828	21500
897.949	21545
898.07	21283
898.19	21389
898.311	21500
898.431	21382
898.552	21504
898.672	21458
898.792	21485
898.913	21496
899.033	21332
899.153	21310
899.273	21112
899.393	21127
899.513	21252
899.633	21184
899.753	21237
899.873	21093
899.993	21260
900.113	21093
900.232	21256
900.352	21074
900.472	21043
900.591	20902
900.711	20971
900.83	20800
900.95	21089
901.069	21032
901.189	20819
901.308	20636
901.427	20434
901.546	20499
901.665	20495
901.784	20549
901.904	20442
902.023	20328
902.141	20153
902.26	20153
902.379	20065
902.498	20043
902.617	19978
902.735	20145
902.854	20008
902.973	19928
903.091	19643
903.21	19605
903.328	19719
903.446	19510
903.565	19426
903.683	19559
903.801	19388
903.919	19434
904.038	19502
904.156	19179
904.274	19377
904.392	19251
904.51	19202
904.627	19209
904.745	19179
904.863	19240
904.981	19004
905.098	18890
905.216	18943
905.334	18985
905.451	19031
905.569	18947
905.686	18939
905.803	18954
905.921	18563
906.038	18661
906.155	18665
906.272	18578
906.389	18654
906.506	18448
906.623	18467
906.74	18414
906.857	18376
906.974	18429
907.091	18486
907.208	18521
907.324	18490
907.441	18247
907.557	18201
907.674	18163
907.79	18060
907.907	18114
908.023	18152
908.139	18125
908.256	18068
908.372	18068
908.488	17999
908.604	17802
908.72	17813
908.836	17798
908.952	17809
909.068	17707
909.184	17889
909.3	17889
909.415	17832
909.531	17775
909.647	17444
909.762	17573
909.878	17490
909.993	17497
910.108	17490
910.224	17398
910.339	17444
910.454	17307
910.57	17288
910.685	17227
910.8	17448
910.915	17425
911.03	17208
911.145	16984
911.259	17132
911.374	17132
911.489	17098
911.604	16900
911.718	16778
911.833	16828
911.947	16748
912.062	16664
912.176	16790
912.291	16755
912.405	16889
912.519	17022
912.633	16991
912.748	16881
912.862	16782
912.976	16656
913.09	16459
913.204	16516
913.318	16573
913.431	16588
913.545	16683
913.659	16592
913.772	16424
913.886	16413
914	16421
914.113	16413
914.226	16577
914.34	16451
914.453	16257
914.566	16421
914.68	16154
914.793	16196
914.906	16101
915.019	16010
915.132	15922
915.245	15911
915.358	16044
915.47	16029
915.583	15964
915.696	16051
915.809	16051
915.921	16074
916.034	15774
916.146	15838
916.259	15770
916.371	15884
916.483	15975
916.595	15785
916.708	15774
916.82	15816
916.932	15739
917.044	15785
917.156	15736
917.268	15625
917.38	15557
917.491	15584
917.603	15629
917.715	15656
917.826	15694
917.938	15568
918.049	15424
918.161	15477
918.272	15599
918.384	15641
918.495	15515
918.606	15351
918.717	15256
918.828	15310
918.939	15378
919.05	15199
919.161	15313
919.272	15066
919.383	15108
919.494	15378
919.604	15408
919.715	15321
919.826	15165
919.936	15211
920.047	15302
920.157	15222
920.267	15447
920.378	15298
920.488	15157
920.598	15317
920.708	15576
920.818	15321
920.928	15359
921.038	15542
921.148	15363
921.258	15112
921.368	15070
921.477	14941
921.587	14944
921.697	14823
921.806	14921
921.916	14925
922.025	14674
922.134	14511
922.244	14446
922.353	14526
922.462	14446
922.571	14495
922.68	14290
922.789	14183
922.898	14168
923.007	14180
923.116	14267
923.224	14252
923.333	14191
923.442	14024
923.55	14096
923.659	14096
923.767	14126
923.876	14027
923.984	14084
924.092	13894
924.201	14008
924.309	14035
924.417	14039
924.525	13849
924.633	13928
924.741	14598
924.849	13605
924.956	13772
925.064	13674
925.172	13575
925.279	13502
925.387	13689
925.494	13544
925.602	13693
925.709	13563
925.816	13495
925.924	13457
926.031	13597
926.138	13453
926.245	13586
926.352	13487
926.459	13590
926.566	13601
926.673	13468
926.779	13460
926.886	13202
926.993	13251
927.099	13190
927.206	13137
927.312	13038
927.419	13175
927.525	13126
927.631	13149
927.737	12954
927.843	12947
927.95	12795
928.056	13004
928.162	12810
928.267	12970
928.373	13499
928.479	12935
928.585	12753
928.69	12859
928.796	13023
928.901	12715
929.007	12696
929.112	12665
929.218	12715
929.323	12673
929.428	12730
929.533	12764
929.638	12517
929.743	12509
929.848	12692
929.953	12547
930.058	12452
930.163	12369
930.267	12300
930.372	12414
930.477	12308
930.581	12388
930.685	12304
930.79	12205
930.894	12205
930.998	12144
931.103	12292
931.207	11950
931.311	11897
931.415	11767
931.519	11486
931.623	11539
