Data from test_V78500241_959.txt Node
Date: Fri Mar 25 15:48:26 CST 2022
User: usil
Spectrometer: V785-0024
Trigger mode: 0
Integration Time (sec): 4.000000E-1
Scans to average: 1
Nonlinearity correction enabled: false
Boxcar width: 0
Storing dark spectrum: false
XAxis mode: Wavelengths
Number of Pixels in Spectrum: 1024
>>>>>Begin Spectral Data<<<<<
801.071	28672
801.214	28493
801.356	28341
801.499	28246
801.641	28230
801.783	28188
801.926	28303
802.068	28158
802.211	28112
802.353	27953
802.496	27991
802.638	27876
802.78	27914
802.923	27774
803.065	27603
803.208	27766
803.35	27865
803.492	28048
803.635	28150
803.777	27975
803.919	28063
804.061	28394
804.204	28032
804.346	27888
804.488	27937
804.63	28070
804.773	27983
804.915	28044
805.057	28226
805.199	27991
805.341	28181
805.483	28162
805.626	28093
805.768	28086
805.91	28207
806.052	28204
806.194	28291
806.336	28497
806.478	28303
806.62	28196
806.762	28219
806.904	28432
807.046	28702
807.188	28729
807.33	28615
807.472	28615
807.614	28649
807.756	28656
807.898	28459
808.04	28432
808.182	28580
808.324	28474
808.465	28596
808.607	28721
808.749	28805
808.891	29010
809.033	29060
809.174	29044
809.316	28858
809.458	28748
809.6	28976
809.741	29075
809.883	29162
810.025	29193
810.166	29258
810.308	29292
810.45	29254
810.591	29265
810.733	29029
810.875	28888
811.016	28824
811.158	29006
811.299	29048
811.441	29162
811.582	29056
811.724	29029
811.865	28972
812.007	28892
812.148	28953
812.29	28847
812.431	29143
812.573	29368
812.714	29334
812.855	29364
812.997	29619
813.138	29836
813.279	29608
813.421	29531
813.562	29429
813.703	29353
813.845	29166
813.986	28828
814.127	28793
814.268	28679
814.41	28721
814.551	28592
814.692	28687
814.833	28615
814.974	28634
815.115	28771
815.256	28459
815.397	28535
815.539	28580
815.68	28485
815.821	28223
815.962	28569
816.103	28455
816.244	28386
816.385	28238
816.526	28333
816.666	28036
816.807	27918
816.948	28032
817.089	28128
817.23	28109
817.371	28006
817.512	28010
817.653	27949
817.793	27907
817.934	27953
818.075	27903
818.216	28109
818.356	27903
818.497	27793
818.638	27595
818.778	27854
818.919	27785
819.06	27778
819.2	27888
819.341	28021
819.481	27865
819.622	28036
819.762	28356
819.903	28215
820.043	28154
820.184	28109
820.324	28196
820.465	28112
820.605	28105
820.746	28036
820.886	27960
821.026	27987
821.167	28036
821.307	28059
821.447	28017
821.588	27941
821.728	27865
821.868	27660
822.008	27610
822.149	27469
822.289	27408
822.429	27230
822.569	27135
822.709	27169
822.849	27013
822.99	27116
823.13	26948
823.27	26819
823.41	26743
823.55	26667
823.69	26826
823.83	26792
823.97	26796
824.11	26617
824.25	26640
824.389	26575
824.529	26716
824.669	26705
824.809	26769
824.949	26682
825.089	26830
825.228	26686
825.368	26530
825.508	26549
825.648	26514
825.787	26575
825.927	26720
826.067	26480
826.206	26594
826.346	26533
826.485	26560
826.625	26571
826.765	26583
826.904	26549
827.044	26199
827.183	26339
827.323	26218
827.462	26256
827.601	26214
827.741	26240
827.88	26240
828.02	26240
828.159	26199
828.298	26183
828.437	26305
828.577	26164
828.716	26237
828.855	26081
828.994	25913
829.134	25909
829.273	25963
829.412	25959
829.551	25890
829.69	25970
829.829	25944
829.968	25936
830.107	25902
830.246	25909
830.385	25822
830.524	25811
830.663	25658
830.802	25696
830.941	25533
831.08	25396
831.219	25681
831.357	25601
831.496	25666
831.635	25502
831.774	25529
831.913	25228
832.051	25278
832.19	25419
832.329	25289
832.467	25206
832.606	25065
832.744	24989
832.883	25217
833.022	25240
833.16	25126
833.299	25255
833.437	25282
833.576	25194
833.714	25331
833.852	25255
833.991	25278
834.129	25350
834.267	25236
834.406	25301
834.544	25308
834.682	25316
834.821	25217
834.959	25415
835.097	25179
835.235	25285
835.373	25232
835.511	25343
835.65	25099
835.788	24977
835.926	24901
836.064	24939
836.202	24973
836.34	25095
836.478	25118
836.615	25031
836.753	25050
836.891	25118
837.029	25084
837.167	25004
837.305	24981
837.443	24932
837.58	24867
837.718	24962
837.856	24882
837.993	24947
838.131	24821
838.269	24696
838.406	24795
838.544	24745
838.681	24528
838.819	24422
838.956	24365
839.094	24372
839.231	24422
839.369	24513
839.506	24859
839.643	24650
839.781	24380
839.918	24399
840.055	24395
840.193	24426
840.33	24334
840.467	24174
840.604	24361
840.742	24479
840.879	24057
841.016	24273
841.153	24216
841.29	24327
841.427	24201
841.564	24346
841.701	24342
841.838	24144
841.975	24144
842.112	24194
842.249	24034
842.385	24098
842.522	24163
842.659	24060
842.796	23969
842.933	24087
843.069	23950
843.206	23992
843.343	24091
843.479	24034
843.616	23935
843.752	23722
843.889	23794
844.025	23954
844.162	23828
844.298	23908
844.435	23802
844.571	23741
844.708	23726
844.844	23984
844.98	23980
845.117	23832
845.253	23699
845.389	23729
845.525	23668
845.661	23672
845.798	23649
845.934	23573
846.07	23417
846.206	23566
846.342	23596
846.478	23455
846.614	23307
846.75	23208
846.886	23212
847.022	23360
847.158	23364
847.294	23269
847.429	23147
847.565	23296
847.701	23395
847.837	23003
847.972	22869
848.108	23140
848.244	22995
848.379	22850
848.515	22908
848.65	22866
848.786	22930
848.921	22961
849.057	22911
849.192	23014
849.328	22755
849.463	22820
849.598	22706
849.734	22778
849.869	22721
850.004	22630
850.14	22588
850.275	22622
850.41	22618
850.545	22573
850.68	22519
850.815	22573
850.95	22626
851.085	22812
851.22	22713
851.355	22641
851.49	22645
851.625	22531
851.76	22569
851.895	22443
852.03	22508
852.165	22630
852.299	22519
852.434	22759
852.569	22626
852.703	22546
852.838	22691
852.973	22725
853.107	22599
853.242	22478
853.376	22367
853.511	22242
853.645	22348
853.78	22519
853.914	22432
854.048	22341
854.183	22478
854.317	22409
854.451	22622
854.585	22523
854.72	22382
854.854	22546
854.988	22413
855.122	22447
855.256	22169
855.39	22424
855.524	22462
855.658	22531
855.792	22519
855.926	22485
856.06	22478
856.194	22519
856.327	22390
856.461	22424
856.595	22409
856.729	22310
856.862	22592
856.996	22478
857.13	22462
857.263	22618
857.397	22459
857.53	22287
857.664	22451
857.797	22390
857.931	22554
858.064	22512
858.197	22538
858.331	22360
858.464	22428
858.597	22322
858.731	22421
858.864	22337
858.997	22310
859.13	22428
859.263	22470
859.396	22538
859.529	22421
859.662	22470
859.795	22375
859.928	22519
860.061	22611
860.194	22618
860.327	22634
860.46	22405
860.592	22523
860.725	22554
860.858	22592
860.99	22504
861.123	22382
861.256	22382
861.388	22497
861.521	23113
861.653	22188
861.786	22154
861.918	22303
862.05	22268
862.183	22246
862.315	22352
862.447	22341
862.58	22360
862.712	22124
862.844	22086
862.976	22192
863.108	22154
863.24	22531
863.372	22150
863.504	22207
863.636	22067
863.768	22059
863.9	22162
864.032	22059
864.164	22036
864.296	22158
864.428	22200
864.559	22185
864.691	22219
864.823	22070
864.954	22173
865.086	22040
865.217	21937
865.349	21975
865.48	21998
865.612	22067
865.743	22036
865.875	22101
866.006	22010
866.137	21956
866.269	22078
866.4	21926
866.531	21964
866.662	21953
866.793	21926
866.924	21922
867.055	21979
867.186	21865
867.317	21861
867.448	21911
867.579	21892
867.71	21915
867.841	21869
867.972	21884
868.103	21808
868.233	21987
868.364	21979
868.495	22010
868.625	22192
868.756	22257
868.886	22059
869.017	22032
869.147	22314
869.278	22200
869.408	22051
869.539	22234
869.669	22131
869.799	22238
869.929	22272
870.06	22207
870.19	22596
870.32	22413
870.45	22489
870.58	22580
870.71	22679
870.84	22668
870.97	22523
871.1	22447
871.23	22816
871.36	22698
871.489	22546
871.619	22687
871.749	22656
871.879	22748
872.008	22869
872.138	22790
872.267	22721
872.397	22653
872.526	22713
872.656	22592
872.785	22569
872.915	22934
873.044	22885
873.173	22786
873.303	22752
873.432	22866
873.561	22904
873.69	22691
873.819	22854
873.948	22896
874.077	22786
874.206	22687
874.335	22786
874.464	22972
874.593	23044
874.722	22995
874.851	23044
874.979	23052
875.108	23018
875.237	22835
875.365	22774
875.494	22972
875.623	23181
875.751	22976
875.88	23025
876.008	23223
876.136	23155
876.265	23322
876.393	23387
876.521	23368
876.65	23509
876.778	23383
876.906	23220
877.034	23311
877.162	23303
877.29	23311
877.418	23345
877.546	23402
877.674	23353
877.802	23261
877.93	23315
878.058	23235
878.185	23189
878.313	23349
878.441	23353
878.568	23140
878.696	23098
878.824	23330
878.951	23410
879.079	23440
879.206	23691
879.333	23551
879.461	23322
879.588	23402
879.715	23425
879.842	23657
879.97	23315
880.097	23060
880.224	23079
880.351	23178
880.478	23242
880.605	23071
880.732	23033
880.859	23273
880.986	23193
881.112	23159
881.239	23075
881.366	22862
881.493	22866
881.619	22694
881.746	22653
881.872	22683
881.999	22759
882.125	22641
882.252	22831
882.378	22660
882.505	22835
882.631	22580
882.757	22493
882.883	22481
883.01	22413
883.136	22356
883.262	22242
883.388	22249
883.514	22455
883.64	22485
883.766	22303
883.892	22223
884.018	22147
884.143	22287
884.269	22257
884.395	22055
884.52	21945
884.646	22002
884.772	22029
884.897	21922
885.023	22101
885.148	22063
885.274	22185
885.399	22112
885.524	22006
885.65	22082
885.775	22173
885.9	22063
886.025	22166
886.15	22135
886.275	22025
886.4	21797
886.525	22029
886.65	21915
886.775	21930
886.9	22109
887.025	22246
887.149	21968
887.274	21831
887.399	21747
887.523	21736
887.648	21705
887.773	21644
887.897	21838
888.021	21770
888.146	21717
888.27	21861
888.395	21800
888.519	21823
888.643	21922
888.767	21850
888.891	21599
889.015	21553
889.139	21599
889.263	21534
889.387	21717
889.511	21793
889.635	21743
889.759	21625
889.883	21576
890.006	21599
890.13	21576
890.254	21469
890.377	21492
890.501	21340
890.624	21298
890.748	21386
890.871	21218
890.995	21100
891.118	21077
891.241	21165
891.364	21009
891.488	21226
891.611	21104
891.734	21047
891.857	21195
891.98	21123
892.103	21119
892.226	21074
892.349	21077
892.471	20956
892.594	20963
892.717	21039
892.839	21013
892.962	20994
893.085	21051
893.207	21074
893.33	20948
893.452	20842
893.575	21074
893.697	21001
893.819	21180
893.941	21287
894.064	21062
894.186	20986
894.308	20876
894.43	20986
894.552	21112
894.674	21096
894.796	20750
894.918	20918
895.04	20849
895.161	21104
895.283	21017
895.405	20891
895.526	20986
895.648	20948
895.769	20899
895.891	20956
896.012	21020
896.134	21089
896.255	21047
896.376	20975
896.498	20956
896.619	20975
896.74	21032
896.861	21146
896.982	21306
897.103	21462
897.224	21173
897.345	21264
897.466	21116
897.587	21230
897.708	21321
897.828	21294
897.949	21100
898.07	20990
898.19	20986
898.311	21268
898.431	21264
898.552	21074
898.672	21325
898.792	21313
898.913	21116
899.033	21081
899.153	21001
899.273	20853
899.393	20952
899.513	20948
899.633	20883
899.753	21043
899.873	20948
899.993	20967
900.113	20823
900.232	20861
900.352	20861
900.472	20754
900.591	20617
900.711	20670
900.83	20617
900.95	20800
901.069	20819
901.189	20602
901.308	20438
901.427	20122
901.546	20183
901.665	20290
901.784	20286
901.904	20214
902.023	20103
902.141	19769
902.26	19803
902.379	19883
902.498	19746
902.617	19803
902.735	19807
902.854	19765
902.973	19712
903.091	19407
903.21	19449
903.328	19403
903.446	19377
903.565	19152
903.683	19114
903.801	19118
903.919	19217
904.038	19110
904.156	18954
904.274	19179
904.392	18951
904.51	18935
904.627	18939
904.745	19023
904.863	19065
904.981	18798
905.098	18597
905.216	18658
905.334	18707
905.451	18677
905.569	18631
905.686	18681
905.803	18646
905.921	18311
906.038	18498
906.155	18486
906.272	18380
906.389	18323
906.506	18251
906.623	18186
906.74	18148
906.857	18041
906.974	18060
907.091	18148
907.208	18262
907.324	18311
907.441	18045
907.557	17874
907.674	17798
907.79	17878
907.907	17908
908.023	17912
908.139	17783
908.256	17764
908.372	17703
908.488	17783
908.604	17490
908.72	17516
908.836	17600
908.952	17452
909.068	17623
909.184	17665
909.3	17539
909.415	17718
909.531	17478
909.647	17341
909.762	17334
909.878	17299
909.993	17372
910.108	17284
910.224	17227
910.339	17273
910.454	17117
910.57	17098
910.685	17025
910.8	17311
910.915	17140
911.03	17124
911.145	16835
911.259	16980
911.374	16987
911.489	16816
911.604	16801
911.718	16497
911.833	16656
911.947	16462
912.062	16558
912.176	16653
912.291	16603
912.405	16603
912.519	16725
912.633	16805
912.748	16725
912.862	16596
912.976	16379
913.09	16303
913.204	16417
913.318	16402
913.431	16440
913.545	16394
913.659	16519
913.772	16363
913.886	16188
914	16154
914.113	16230
914.226	16341
914.34	16177
914.453	16074
914.566	16280
914.68	16029
914.793	15979
914.906	15781
915.019	15804
915.132	15766
915.245	15785
915.358	15827
915.47	15926
915.583	15785
915.696	15766
915.809	15972
915.921	15846
916.034	15679
916.146	15656
916.259	15667
916.371	15743
916.483	15766
916.595	15606
916.708	15625
916.82	15663
916.932	15542
917.044	15622
917.156	15572
917.268	15507
917.38	15477
917.491	15408
917.603	15370
917.715	15405
917.826	15485
917.938	15351
918.049	15321
918.161	15378
918.272	15428
918.384	15507
918.495	15321
918.606	15192
918.717	14990
918.828	15150
918.939	15165
919.05	15154
919.161	15222
919.272	14963
919.383	15043
919.494	15176
919.604	15325
919.715	15070
919.826	14971
919.936	15051
920.047	15161
920.157	15085
920.267	15291
920.378	15154
920.488	15043
920.598	15218
920.708	15397
920.818	15306
920.928	15214
921.038	15408
921.148	15332
921.258	15058
921.368	14979
921.477	14929
921.587	14899
921.697	14644
921.806	14857
921.916	14743
922.025	14625
922.134	14499
922.244	14358
922.353	14530
922.462	14400
922.571	14218
922.68	14157
922.789	14126
922.898	14073
923.007	14020
923.116	14210
923.224	14157
923.333	14050
923.442	13967
923.55	13936
923.659	13974
923.767	13970
923.876	13875
923.984	13917
924.092	13784
924.201	13940
924.309	13769
924.417	13913
924.525	13742
924.633	13727
924.741	14693
924.849	13586
924.956	13693
925.064	13552
925.172	13419
925.279	13537
925.387	13499
925.494	13567
925.602	13643
925.709	13567
925.816	13396
925.924	13381
926.031	13571
926.138	13400
926.245	13430
926.352	13316
926.459	13419
926.566	13533
926.673	13331
926.779	13289
926.886	13251
926.993	13149
927.099	13012
927.206	13061
927.312	13034
927.419	13080
927.525	13065
927.631	13038
927.737	12977
927.843	12909
927.95	12738
928.056	12909
928.162	12856
928.267	12916
928.373	13392
928.479	12958
928.585	12734
928.69	12722
928.796	12875
928.901	12741
929.007	12589
929.112	12764
929.218	12745
929.323	12658
929.428	12570
929.533	12677
929.638	12471
929.743	12521
929.848	12589
929.953	12555
930.058	12380
930.163	12251
930.267	12285
930.372	12376
930.477	12148
930.581	12410
930.685	12258
930.79	12136
930.894	12038
930.998	12102
931.103	12220
931.207	11950
931.311	11745
931.415	11676
931.519	11554
931.623	11501
