Data from test_V78500241_1595.txt Node
Date: Fri Mar 25 15:52:51 CST 2022
User: usil
Spectrometer: V785-0024
Trigger mode: 0
Integration Time (sec): 4.000000E-1
Scans to average: 1
Nonlinearity correction enabled: false
Boxcar width: 0
Storing dark spectrum: false
XAxis mode: Wavelengths
Number of Pixels in Spectrum: 1024
>>>>>Begin Spectral Data<<<<<
801.071	28242
801.214	28211
801.356	27975
801.499	27880
801.641	27705
801.783	27785
801.926	27892
802.068	27861
802.211	27732
802.353	27671
802.496	27549
802.638	27511
802.78	27401
802.923	27557
803.065	27370
803.208	27317
803.35	27603
803.492	27466
803.635	27671
803.777	27477
803.919	27724
804.061	28013
804.204	27701
804.346	27728
804.488	27641
804.63	27671
804.773	27637
804.915	27827
805.057	27789
805.199	27583
805.341	27797
805.483	27732
805.626	27842
805.768	27755
805.91	27972
806.052	27778
806.194	27903
806.336	28067
806.478	28013
806.62	27819
806.762	28082
806.904	28086
807.046	28382
807.188	28219
807.33	28280
807.472	28325
807.614	28356
807.756	28352
807.898	28128
808.04	28078
808.182	28055
808.324	28173
808.465	28204
808.607	28428
808.749	28432
808.891	28508
809.033	28809
809.174	28584
809.316	28398
809.458	28443
809.6	28481
809.741	28660
809.883	28767
810.025	28858
810.166	28755
810.308	28778
810.45	28740
810.591	28683
810.733	28672
810.875	28588
811.016	28523
811.158	28405
811.299	28607
811.441	28717
811.582	28691
811.724	28451
811.865	28489
812.007	28508
812.148	28401
812.29	28550
812.431	28637
812.573	28790
812.714	29006
812.855	29056
812.997	29216
813.138	29227
813.279	29102
813.421	28991
813.562	29079
813.703	28725
813.845	28649
813.986	28421
814.127	28352
814.268	28211
814.41	28390
814.551	28204
814.692	28341
814.833	28101
814.974	28078
815.115	28223
815.256	28188
815.397	28070
815.539	28070
815.68	28002
815.821	28048
815.962	28021
816.103	28036
816.244	27869
816.385	27808
816.526	27759
816.666	27633
816.807	27564
816.948	27610
817.089	27583
817.23	27561
817.371	27462
817.512	27477
817.653	27279
817.793	27458
817.934	27450
818.075	27580
818.216	27382
818.356	27447
818.497	27268
818.638	27272
818.778	27302
818.919	27329
819.06	27427
819.2	27374
819.341	27530
819.481	27370
819.622	27618
819.762	27819
819.903	27713
820.043	27675
820.184	27416
820.324	27766
820.465	27595
820.605	27671
820.746	27625
820.886	27397
821.026	27641
821.167	27523
821.307	27774
821.447	27641
821.588	27500
821.728	27272
821.868	27096
822.008	27047
822.149	27070
822.289	27028
822.429	26731
822.569	26716
822.709	26735
822.849	26423
822.99	26499
823.13	26355
823.27	26298
823.41	26320
823.55	26107
823.69	26324
823.83	26313
823.97	26393
824.11	26138
824.25	26096
824.389	26278
824.529	26202
824.669	26092
824.809	26301
824.949	26199
825.089	26187
825.228	26210
825.368	26005
825.508	26043
825.648	26016
825.787	26001
825.927	26043
826.067	25963
826.206	26001
826.346	26054
826.485	26092
826.625	25989
826.765	25997
826.904	26062
827.044	25791
827.183	25868
827.323	25666
827.462	25738
827.601	25715
827.741	25658
827.88	25780
828.02	25639
828.159	25662
828.298	25750
828.437	25818
828.577	25647
828.716	25887
828.855	25632
828.994	25289
829.134	25434
829.273	25483
829.412	25422
829.551	25297
829.69	25384
829.829	25403
829.968	25506
830.107	25464
830.246	25324
830.385	25422
830.524	25354
830.663	25278
830.802	25122
830.941	24966
831.08	25069
831.219	25088
831.357	25103
831.496	25274
831.635	24996
831.774	24935
831.913	24856
832.051	24798
832.19	24916
832.329	24745
832.467	24661
832.606	24760
832.744	24582
832.883	24757
833.022	24665
833.16	24696
833.299	24802
833.437	24787
833.576	24658
833.714	24749
833.852	24833
833.991	24768
834.129	24977
834.267	24840
834.406	24768
834.544	24810
834.682	24730
834.821	24859
834.959	25015
835.097	24753
835.235	24760
835.373	24768
835.511	24753
835.65	24631
835.788	24593
835.926	24559
836.064	24327
836.202	24395
836.34	24498
836.478	24688
836.615	24620
836.753	24513
836.891	24559
837.029	24544
837.167	24338
837.305	24486
837.443	24585
837.58	24353
837.718	24513
837.856	24422
837.993	24486
838.131	24365
838.269	24330
838.406	24235
838.544	24178
838.681	24018
838.819	24129
838.956	23889
839.094	23745
839.231	23923
839.369	23996
839.506	24273
839.643	24079
839.781	24068
839.918	23939
840.055	23973
840.193	23798
840.33	23752
840.467	23786
840.604	23927
840.742	23992
840.879	23714
841.016	23714
841.153	23722
841.29	23904
841.427	23737
841.564	23817
841.701	23703
841.838	23756
841.975	23870
842.112	23741
842.249	23676
842.385	23623
842.522	23756
842.659	23596
842.796	23520
842.933	23566
843.069	23516
843.206	23581
843.343	23733
843.479	23383
843.616	23558
843.752	23410
843.889	23372
844.025	23410
844.162	23368
844.298	23387
844.435	23288
844.571	23277
844.708	23299
844.844	23349
844.98	23512
845.117	23440
845.253	23280
845.389	23250
845.525	23250
845.661	23220
845.798	23052
845.934	23121
846.07	23079
846.206	22999
846.342	23124
846.478	23022
846.614	22793
846.75	22797
846.886	22797
847.022	22877
847.158	22755
847.294	22774
847.429	22801
847.565	22850
847.701	23075
847.837	22462
847.972	22462
848.108	22592
848.244	22546
848.379	22493
848.515	22424
848.65	22348
848.786	22459
848.921	22405
849.057	22459
849.192	22455
849.328	22310
849.463	22360
849.598	22363
849.734	22352
849.869	22158
850.004	22223
850.14	22207
850.275	22154
850.41	22109
850.545	22185
850.68	22082
850.815	22192
850.95	22082
851.085	22280
851.22	22093
851.355	22166
851.49	22067
851.625	21968
851.76	22169
851.895	22013
852.03	22078
852.165	22265
852.299	22249
852.434	22246
852.569	22143
852.703	22006
852.838	22204
852.973	22261
853.107	22329
853.242	22238
853.376	22036
853.511	21975
853.645	21831
853.78	22143
853.914	21998
854.048	21903
854.183	21949
854.317	22082
854.451	22101
854.585	21854
854.72	21983
854.854	22074
854.988	21865
855.122	22059
855.256	21808
855.39	21953
855.524	22070
855.658	22048
855.792	21880
855.926	21960
856.06	22040
856.194	21972
856.327	21842
856.461	21880
856.595	21842
856.729	21895
856.862	22120
856.996	22010
857.13	22013
857.263	22166
857.397	21945
857.53	21941
857.664	21835
857.797	22109
857.931	21960
858.064	22013
858.197	21998
858.331	21956
858.464	21918
858.597	21880
858.731	21922
858.864	21895
858.997	21930
859.13	22006
859.263	21945
859.396	21991
859.529	21956
859.662	21960
859.795	21930
859.928	21922
860.061	22128
860.194	22040
860.327	22051
860.46	21918
860.592	22124
860.725	22097
860.858	22124
860.99	22021
861.123	21819
861.256	21907
861.388	21819
861.521	22611
861.653	21819
861.786	21861
861.918	21762
862.05	21766
862.183	21835
862.315	21926
862.447	21884
862.58	21857
862.712	21728
862.844	21667
862.976	21690
863.108	21838
863.24	22116
863.372	21553
863.504	21720
863.636	21682
863.768	21606
863.9	21720
864.032	21545
864.164	21561
864.296	21618
864.428	21739
864.559	21641
864.691	21797
864.823	21686
864.954	21603
865.086	21507
865.217	21542
865.349	21523
865.48	21637
865.612	21583
865.743	21629
865.875	21618
866.006	21454
866.137	21625
866.269	21572
866.4	21473
866.531	21496
866.662	21401
866.793	21397
866.924	21496
867.055	21466
867.186	21641
867.317	21431
867.448	21466
867.579	21332
867.71	21504
867.841	21447
867.972	21466
868.103	21393
868.233	21420
868.364	21450
868.495	21648
868.625	21629
868.756	21789
868.886	21610
869.017	21709
869.147	21892
869.278	21743
869.408	21812
869.539	21838
869.669	21854
869.799	21778
869.929	21835
870.06	21804
870.19	22021
870.32	22063
870.45	21960
870.58	21998
870.71	22310
870.84	22234
870.97	22215
871.1	22116
871.23	22234
871.36	22329
871.489	22025
871.619	22215
871.749	22249
871.879	22367
872.008	22329
872.138	22386
872.267	22341
872.397	22147
872.526	22143
872.656	22067
872.785	22215
872.915	22344
873.044	22409
873.173	22394
873.303	22386
873.432	22375
873.561	22485
873.69	22402
873.819	22261
873.948	22462
874.077	22379
874.206	22428
874.335	22413
874.464	22459
874.593	22557
874.722	22371
874.851	22630
874.979	22668
875.108	22641
875.237	22508
875.365	22322
875.494	22508
875.623	22809
875.751	22630
875.88	22656
876.008	22694
876.136	22717
876.265	23018
876.393	23090
876.521	23117
876.65	22995
876.778	22987
876.906	22934
877.034	22965
877.162	22881
877.29	22896
877.418	23006
877.546	22843
877.674	23014
877.802	22953
877.93	22968
878.058	22809
878.185	22744
878.313	23029
878.441	23041
878.568	22710
878.696	22805
878.824	22881
878.951	23041
879.079	23132
879.206	23143
879.333	23117
879.461	23132
879.588	23052
879.715	23159
879.842	23356
879.97	23018
880.097	22767
880.224	22752
880.351	22801
880.478	22733
880.605	22618
880.732	22725
880.859	22961
880.986	22835
881.112	22774
881.239	22706
881.366	22428
881.493	22375
881.619	22306
881.746	22341
881.872	22291
881.999	22204
882.125	22272
882.252	22265
882.378	22371
882.505	22504
882.631	22135
882.757	22128
882.883	22185
883.01	22025
883.136	21865
883.262	21949
883.388	21755
883.514	22093
883.64	22013
883.766	21827
883.892	21945
884.018	21736
884.143	21949
884.269	21972
884.395	21793
884.52	21595
884.646	21622
884.772	21641
884.897	21545
885.023	21724
885.148	21717
885.274	21778
885.399	21793
885.524	21705
885.65	21618
885.775	21610
885.9	21603
886.025	21686
886.15	21827
886.275	21591
886.4	21576
886.525	21538
886.65	21591
886.775	21549
886.9	21736
887.025	21823
887.149	21553
887.274	21428
887.399	21397
887.523	21332
887.648	21321
887.773	21412
887.897	21561
888.021	21507
888.146	21336
888.27	21542
888.395	21534
888.519	21397
888.643	21340
888.767	21492
888.891	21291
889.015	21195
889.139	21211
889.263	21222
889.387	21260
889.511	21450
889.635	21386
889.759	21207
889.883	21135
890.006	21119
890.13	21256
890.254	21100
890.377	21169
890.501	20990
890.624	20967
890.748	20990
890.871	20826
890.995	20712
891.118	20590
891.241	20667
891.364	20735
891.488	20918
891.611	20720
891.734	20689
891.857	20849
891.98	20773
892.103	20887
892.226	20838
892.349	20819
892.471	20587
892.594	20667
892.717	20731
892.839	20708
892.962	20667
893.085	20716
893.207	20746
893.33	20499
893.452	20568
893.575	20674
893.697	20682
893.819	20781
893.941	20887
894.064	20758
894.186	20583
894.308	20488
894.43	20754
894.552	20697
894.674	20590
894.796	20450
894.918	20735
895.04	20568
895.161	20743
895.283	20606
895.405	20682
895.526	20655
895.648	20640
895.769	20678
895.891	20655
896.012	20800
896.134	20724
896.255	20644
896.376	20518
896.498	20693
896.619	20682
896.74	20617
896.861	20670
896.982	20891
897.103	21176
897.224	20876
897.345	20765
897.466	20765
897.587	20845
897.708	21032
897.828	20868
897.949	20830
898.07	20697
898.19	20716
898.311	20986
898.431	20792
898.552	20918
898.672	20834
898.792	20902
898.913	20944
899.033	20754
899.153	20583
899.273	20560
899.393	20621
899.513	20636
899.633	20522
899.753	20636
899.873	20518
899.993	20629
900.113	20590
900.232	20629
900.352	20629
900.472	20427
900.591	20294
900.711	20419
900.83	20526
900.95	20374
901.069	20355
901.189	20221
901.308	19936
901.427	19902
901.546	19974
901.665	20012
901.784	19833
901.904	19791
902.023	19738
902.141	19548
902.26	19373
902.379	19628
902.498	19540
902.617	19346
902.735	19521
902.854	19480
902.973	19320
903.091	19145
903.21	19168
903.328	19069
903.446	18973
903.565	18901
903.683	18897
903.801	18757
903.919	18977
904.038	18837
904.156	18700
904.274	18696
904.392	18741
904.51	18597
904.627	18608
904.745	18620
904.863	18760
904.981	18532
905.098	18410
905.216	18388
905.334	18407
905.451	18330
905.569	18334
905.686	18323
905.803	18254
905.921	18148
906.038	18270
906.155	18167
906.272	18011
906.389	18076
906.506	17889
906.623	17832
906.74	17923
906.857	17809
906.974	17802
907.091	17927
907.208	18030
907.324	17988
907.441	17809
907.557	17604
907.674	17581
907.79	17516
907.907	17592
908.023	17608
908.139	17585
908.256	17532
908.372	17562
908.488	17410
908.604	17288
908.72	17341
908.836	17277
908.952	17239
909.068	17387
909.184	17353
909.3	17311
909.415	17330
909.531	17360
909.647	17033
909.762	16984
909.878	16957
909.993	17033
910.108	17041
910.224	16949
910.339	16938
910.454	16801
910.57	16892
910.685	16736
910.8	16980
910.915	16877
911.03	16702
911.145	16641
911.259	16584
911.374	16523
911.489	16596
911.604	16405
911.718	16303
911.833	16443
911.947	16299
912.062	16139
912.176	16322
912.291	16367
912.405	16303
912.519	16538
912.633	16577
912.748	16405
912.862	16223
912.976	16272
913.09	16067
913.204	16177
913.318	16188
913.431	16234
913.545	16246
913.659	16276
913.772	16150
913.886	15979
914	16002
914.113	16010
914.226	16071
914.34	15895
914.453	15838
914.566	15979
914.68	15827
914.793	15812
914.906	15633
915.019	15580
915.132	15534
915.245	15481
915.358	15519
915.47	15538
915.583	15545
915.696	15614
915.809	15591
915.921	15644
916.034	15511
916.146	15420
916.259	15420
916.371	15564
916.483	15443
916.595	15439
916.708	15397
916.82	15329
916.932	15367
917.044	15348
917.156	15268
917.268	15176
917.38	15180
917.491	15173
917.603	15207
917.715	15176
917.826	15260
917.938	15135
918.049	14960
918.161	15131
918.272	15207
918.384	15313
918.495	15135
918.606	14933
918.717	14876
918.828	15017
918.939	14895
919.05	14724
919.161	14937
919.272	14708
919.383	14804
919.494	14914
919.604	15066
919.715	14933
919.826	14746
919.936	14998
920.047	14998
920.157	14910
920.267	15100
920.378	14929
920.488	14933
920.598	15146
920.708	15066
920.818	15085
920.928	14982
921.038	15097
921.148	15237
921.258	14864
921.368	14743
921.477	14655
921.587	14587
921.697	14549
921.806	14568
921.916	14492
922.025	14286
922.134	14183
922.244	14214
922.353	14305
922.462	14157
922.571	14027
922.68	13982
922.789	13807
922.898	13932
923.007	13814
923.116	13807
923.224	13959
923.333	13837
923.442	13791
923.55	13666
923.659	13647
923.767	13769
923.876	13708
923.984	13708
924.092	13647
924.201	13643
924.309	13552
924.417	13624
924.525	13480
924.633	13544
924.741	14476
924.849	13331
924.956	13575
925.064	13270
925.172	13217
925.279	13247
925.387	13285
925.494	13282
925.602	13411
925.709	13312
925.816	13228
925.924	13152
926.031	13266
926.138	13236
926.245	13308
926.352	13088
926.459	13190
926.566	13274
926.673	13156
926.779	13027
926.886	13038
926.993	12886
927.099	12817
927.206	12764
927.312	12863
927.419	12776
927.525	12878
927.631	12878
927.737	12768
927.843	12673
927.95	12563
928.056	12585
928.162	12722
928.267	12791
928.373	13343
928.479	12772
928.585	12544
928.69	12623
928.796	12582
928.901	12475
929.007	12418
929.112	12547
929.218	12502
929.323	12380
929.428	12388
929.533	12509
929.638	12308
929.743	12414
929.848	12315
929.953	12311
930.058	12133
930.163	12026
930.267	12045
930.372	12224
930.477	12011
930.581	12251
930.685	12079
930.79	12026
930.894	11954
930.998	11840
931.103	12053
931.207	11638
931.311	11608
931.415	11543
931.519	11349
931.623	11239
