Data from test_V78500241_650.txt Node
Date: Fri Mar 25 15:46:18 CST 2022
User: usil
Spectrometer: V785-0024
Trigger mode: 0
Integration Time (sec): 4.000000E-1
Scans to average: 1
Nonlinearity correction enabled: false
Boxcar width: 0
Storing dark spectrum: false
XAxis mode: Wavelengths
Number of Pixels in Spectrum: 1024
>>>>>Begin Spectral Data<<<<<
801.071	27667
801.214	27667
801.356	27530
801.499	27473
801.641	27260
801.783	27249
801.926	27321
802.068	27306
802.211	27188
802.353	27203
802.496	27020
802.638	26785
802.78	26811
802.923	26918
803.065	26937
803.208	26918
803.35	26925
803.492	27074
803.635	27135
803.777	26963
803.919	27161
804.061	27348
804.204	27138
804.346	26986
804.488	26925
804.63	27001
804.773	26895
804.915	27028
805.057	27199
805.199	27051
805.341	27245
805.483	27233
805.626	27199
805.768	27150
805.91	27207
806.052	27104
806.194	27074
806.336	27439
806.478	27226
806.62	27150
806.762	27393
806.904	27515
807.046	27819
807.188	27690
807.33	27580
807.472	27538
807.614	27591
807.756	27606
807.898	27519
808.04	27492
808.182	27412
808.324	27469
808.465	27614
808.607	27770
808.749	27850
808.891	27842
809.033	27983
809.174	27983
809.316	27812
809.458	27812
809.6	27873
809.741	28086
809.883	27956
810.025	28192
810.166	28086
810.308	28025
810.45	28097
810.591	28101
810.733	27857
810.875	27869
811.016	27759
811.158	27739
811.299	27914
811.441	27987
811.582	28070
811.724	27914
811.865	27808
812.007	27660
812.148	27747
812.29	27865
812.431	27972
812.573	28382
812.714	28325
812.855	28413
812.997	28394
813.138	28504
813.279	28569
813.421	28394
813.562	28329
813.703	28086
813.845	28139
813.986	27914
814.127	27644
814.268	27591
814.41	27580
814.551	27557
814.692	27545
814.833	27488
814.974	27511
815.115	27545
815.256	27294
815.397	27401
815.539	27416
815.68	27405
815.821	27393
815.962	27374
816.103	27321
816.244	27237
816.385	27199
816.526	27043
816.666	26819
816.807	26845
816.948	26956
817.089	26845
817.23	26990
817.371	26842
817.512	26899
817.653	26735
817.793	26743
817.934	26739
818.075	26682
818.216	26906
818.356	26678
818.497	26590
818.638	26450
818.778	26625
818.919	26663
819.06	26606
819.2	26602
819.341	26842
819.481	26838
819.622	26902
819.762	27184
819.903	26914
820.043	27001
820.184	26952
820.324	26830
820.465	27032
820.605	26921
820.746	26952
820.886	26880
821.026	26864
821.167	26902
821.307	26895
821.447	26804
821.588	26754
821.728	26629
821.868	26511
822.008	26427
822.149	26358
822.289	26336
822.429	26008
822.569	25966
822.709	25993
822.849	25696
822.99	25898
823.13	25704
823.27	25784
823.41	25643
823.55	25510
823.69	25548
823.83	25647
823.97	25575
824.11	25331
824.25	25369
824.389	25457
824.529	25506
824.669	25419
824.809	25567
824.949	25590
825.089	25552
825.228	25430
825.368	25217
825.508	25362
825.648	25259
825.787	25343
825.927	25335
826.067	25217
826.206	25206
826.346	25244
826.485	25415
826.625	25289
826.765	25266
826.904	25244
827.044	25168
827.183	25004
827.323	25023
827.462	25061
827.601	24970
827.741	24970
827.88	25095
828.02	24970
828.159	24894
828.298	25152
828.437	25012
828.577	24939
828.716	25088
828.855	24886
828.994	24783
829.134	24730
829.273	24787
829.412	24711
829.551	24696
829.69	24719
829.829	24585
829.968	24837
830.107	24776
830.246	24669
830.385	24688
830.524	24642
830.663	24593
830.802	24525
830.941	24285
831.08	24228
831.219	24391
831.357	24414
831.496	24502
831.635	24342
831.774	24178
831.913	24247
832.051	24087
832.19	24216
832.329	24273
832.467	23992
832.606	23904
832.744	23980
832.883	24007
833.022	23866
833.16	23973
833.299	24034
833.437	24045
833.576	24163
833.714	24041
833.852	24194
833.991	24022
834.129	24026
834.267	24129
834.406	23999
834.544	24022
834.682	24102
834.821	23958
834.959	24159
835.097	24057
835.235	24045
835.373	23946
835.511	24106
835.65	23843
835.788	23901
835.926	23722
836.064	23741
836.202	23687
836.34	23961
836.478	23901
836.615	23882
836.753	23832
836.891	23859
837.029	23836
837.167	23851
837.305	23802
837.443	23699
837.58	23634
837.718	23859
837.856	23684
837.993	23547
838.131	23615
838.269	23619
838.406	23577
838.544	23512
838.681	23341
838.819	23395
838.956	23223
839.094	23261
839.231	23261
839.369	23360
839.506	23676
839.643	23345
839.781	23242
839.918	23071
840.055	23162
840.193	23117
840.33	23060
840.467	23204
840.604	23109
840.742	23246
840.879	22965
841.016	23090
841.153	23037
841.29	23208
841.427	23117
841.564	23155
841.701	23113
841.838	22991
841.975	23071
842.112	23010
842.249	22889
842.385	22908
842.522	23014
842.659	22915
842.796	22767
842.933	22759
843.069	22793
843.206	22778
843.343	22896
843.479	22965
843.616	22694
843.752	22504
843.889	22717
844.025	22752
844.162	22557
844.298	22782
844.435	22565
844.571	22485
844.708	22573
844.844	22816
844.98	22831
845.117	22687
845.253	22622
845.389	22535
845.525	22523
845.661	22440
845.798	22424
845.934	22516
846.07	22333
846.206	22443
846.342	22519
846.478	22428
846.614	22185
846.75	22055
846.886	22032
847.022	22131
847.158	22109
847.294	22059
847.429	22143
847.565	22090
847.701	22417
847.837	21926
847.972	21812
848.108	21934
848.244	21979
848.379	21641
848.515	21595
848.65	21667
848.786	21720
848.921	21648
849.057	21831
849.192	21671
849.328	21545
849.463	21705
849.598	21679
849.734	21686
849.869	21458
850.004	21507
850.14	21504
850.275	21450
850.41	21424
850.545	21473
850.68	21424
850.815	21511
850.95	21412
851.085	21603
851.22	21557
851.355	21473
851.49	21424
851.625	21412
851.76	21355
851.895	21355
852.03	21408
852.165	21515
852.299	21526
852.434	21618
852.569	21458
852.703	21462
852.838	21545
852.973	21492
853.107	21473
853.242	21469
853.376	21359
853.511	21123
853.645	21260
853.78	21378
853.914	21336
854.048	21298
854.183	21332
854.317	21230
854.451	21496
854.585	21264
854.72	21294
854.854	21378
854.988	21249
855.122	21332
855.256	21165
855.39	21218
855.524	21336
855.658	21287
855.792	21332
855.926	21317
856.06	21146
856.194	21370
856.327	21294
856.461	21195
856.595	21226
856.729	21313
856.862	21355
856.996	21226
857.13	21310
857.263	21374
857.397	21435
857.53	21294
857.664	21378
857.797	21351
857.931	21401
858.064	21241
858.197	21306
858.331	21283
858.464	21306
858.597	21070
858.731	21237
858.864	21161
858.997	21233
859.13	21233
859.263	21233
859.396	21340
859.529	21252
859.662	21268
859.795	21279
859.928	21241
860.061	21412
860.194	21462
860.327	21302
860.46	21241
860.592	21351
860.725	21496
860.858	21443
860.99	21397
861.123	21161
861.256	21233
861.388	21363
861.521	21899
861.653	21119
861.786	21089
861.918	21123
862.05	21233
862.183	21169
862.315	21203
862.447	21222
862.58	21135
862.712	21036
862.844	20861
862.976	20994
863.108	21108
863.24	21374
863.372	20956
863.504	20937
863.636	20994
863.768	21017
863.9	20967
864.032	20807
864.164	20910
864.296	20982
864.428	21089
864.559	21085
864.691	20944
864.823	20944
864.954	20937
865.086	21013
865.217	20876
865.349	20857
865.48	20899
865.612	20762
865.743	21070
865.875	20929
866.006	20792
866.137	20902
866.269	20906
866.4	20807
866.531	20834
866.662	20769
866.793	20937
866.924	20727
867.055	20769
867.186	20777
867.317	20853
867.448	20781
867.579	20739
867.71	20788
867.841	20746
867.972	20845
868.103	20651
868.233	20944
868.364	20705
868.495	20891
868.625	21051
868.756	21135
868.886	21043
869.017	21020
869.147	21142
869.278	21127
869.408	21017
869.539	21108
869.669	21070
869.799	21131
869.929	21188
870.06	21161
870.19	21325
870.32	21325
870.45	21386
870.58	21507
870.71	21507
870.84	21610
870.97	21462
871.1	21447
871.23	21583
871.36	21576
871.489	21526
871.619	21633
871.749	21599
871.879	21808
872.008	21759
872.138	21591
872.267	21561
872.397	21534
872.526	21416
872.656	21462
872.785	21488
872.915	21713
873.044	21713
873.173	21766
873.303	21743
873.432	21751
873.561	21770
873.69	21603
873.819	21633
873.948	21770
874.077	21679
874.206	21648
874.335	21633
874.464	21827
874.593	21869
874.722	21941
874.851	22116
874.979	21960
875.108	21857
875.237	21827
875.365	21759
875.494	21964
875.623	21960
875.751	21975
875.88	21861
876.008	21987
876.136	21934
876.265	22234
876.393	22440
876.521	22417
876.65	22356
876.778	22333
876.906	22181
877.034	22295
877.162	22306
877.29	22219
877.418	22257
877.546	22192
877.674	22280
877.802	22226
877.93	22246
878.058	22169
878.185	22109
878.313	22230
878.441	22177
878.568	22070
878.696	22234
878.824	22280
878.951	22413
879.079	22481
879.206	22618
879.333	22325
879.461	22257
879.588	22337
879.715	22462
879.842	22622
879.97	22272
880.097	21922
880.224	22101
880.351	22112
880.478	22063
880.605	22109
880.732	22044
880.859	22284
880.986	22139
881.112	21975
881.239	21949
881.366	21800
881.493	21671
881.619	21633
881.746	21663
881.872	21606
881.999	21682
882.125	21599
882.252	21686
882.378	21759
882.505	21816
882.631	21526
882.757	21378
882.883	21230
883.01	21348
883.136	21317
883.262	21298
883.388	21222
883.514	21355
883.64	21481
883.766	21294
883.892	21169
884.018	21203
884.143	21291
884.269	21370
884.395	21100
884.52	20982
884.646	20880
884.772	20933
884.897	20853
885.023	20906
885.148	21009
885.274	21123
885.399	21096
885.524	20944
885.65	21062
885.775	21104
885.9	20941
886.025	21108
886.15	21173
886.275	20921
886.4	20880
886.525	21005
886.65	20982
886.775	20861
886.9	21112
887.025	21264
887.149	20868
887.274	20807
887.399	20678
887.523	20781
887.648	20689
887.773	20594
887.897	20750
888.021	20883
888.146	20708
888.27	20724
888.395	20880
888.519	20762
888.643	20739
888.767	20842
888.891	20651
889.015	20514
889.139	20640
889.263	20549
889.387	20663
889.511	20834
889.635	20617
889.759	20571
889.883	20533
890.006	20655
890.13	20613
890.254	20457
890.377	20556
890.501	20381
890.624	20191
890.748	20461
890.871	20157
890.995	20142
891.118	20092
891.241	20058
891.364	20031
891.488	20237
891.611	20122
891.734	20081
891.857	20183
891.98	20065
892.103	20145
892.226	20092
892.349	20092
892.471	19913
892.594	20039
892.717	20115
892.839	20043
892.962	20073
893.085	20069
893.207	20054
893.33	19864
893.452	19894
893.575	20138
893.697	20024
893.819	20065
893.941	20214
894.064	20214
894.186	20016
894.308	19868
894.43	20100
894.552	20218
894.674	20122
894.796	19849
894.918	20069
895.04	20031
895.161	20046
895.283	20092
895.405	20031
895.526	20077
895.648	20077
895.769	20024
895.891	20046
896.012	20119
896.134	20161
896.255	20122
896.376	20035
896.498	20069
896.619	20111
896.74	19963
896.861	20020
896.982	20381
897.103	20514
897.224	20298
897.345	20240
897.466	20225
897.587	20355
897.708	20400
897.828	20286
897.949	20039
898.07	20187
898.19	20210
898.311	20374
898.431	20240
898.552	20191
898.672	20389
898.792	20400
898.913	20381
899.033	20157
899.153	20100
899.273	19944
899.393	19974
899.513	20100
899.633	19959
899.753	20107
899.873	19970
899.993	20046
900.113	19917
900.232	19955
900.352	19993
900.472	19837
900.591	19769
900.711	19890
900.83	19738
900.95	19997
901.069	19841
901.189	19674
901.308	19548
901.427	19301
901.546	19525
901.665	19308
901.784	19434
901.904	19293
902.023	19069
902.141	18996
902.26	18947
902.379	19008
902.498	18863
902.617	18745
902.735	18939
902.854	18920
902.973	18684
903.091	18582
903.21	18612
903.328	18544
903.446	18467
903.565	18292
903.683	18308
903.801	18258
903.919	18270
904.038	18266
904.156	18197
904.274	18152
904.392	18114
904.51	18083
904.627	18136
904.745	18125
904.863	18102
904.981	17927
905.098	17828
905.216	17737
905.334	17904
905.451	17863
905.569	17843
905.686	17843
905.803	17748
905.921	17611
906.038	17737
906.155	17649
906.272	17493
906.389	17482
906.506	17265
906.623	17299
906.74	17296
906.857	17235
906.974	17277
907.091	17353
907.208	17337
907.324	17288
907.441	17299
907.557	17006
907.674	17113
907.79	17003
907.907	16949
908.023	17025
908.139	17022
908.256	16987
908.372	16946
908.488	16938
908.604	16793
908.72	16839
908.836	16748
908.952	16672
909.068	16892
909.184	16805
909.3	16809
909.415	16816
909.531	16744
909.647	16512
909.762	16424
909.878	16314
909.993	16447
910.108	16466
910.224	16363
910.339	16466
910.454	16303
910.57	16367
910.685	16280
910.8	16493
910.915	16424
911.03	16230
911.145	16154
911.259	16040
911.374	16090
911.489	16036
911.604	15934
911.718	15838
911.833	15838
911.947	15789
912.062	15694
912.176	15892
912.291	15823
912.405	15915
912.519	16040
912.633	16093
912.748	15785
912.862	15789
912.976	15720
913.09	15603
913.204	15656
913.318	15538
913.431	15682
913.545	15671
913.659	15713
913.772	15660
913.886	15420
914	15428
914.113	15561
914.226	15576
914.34	15473
914.453	15351
914.566	15469
914.68	15329
914.793	15294
914.906	15089
915.019	15039
915.132	14944
915.245	14982
915.358	15017
915.47	15028
915.583	15058
915.696	14990
915.809	15180
915.921	15169
916.034	15001
916.146	14963
916.259	14899
916.371	14948
916.483	14887
916.595	14929
916.708	14819
916.82	14941
916.932	14842
917.044	14746
917.156	14792
917.268	14682
917.38	14743
917.491	14746
917.603	14773
917.715	14743
917.826	14724
917.938	14644
918.049	14545
918.161	14743
918.272	14807
918.384	14796
918.495	14640
918.606	14461
918.717	14404
918.828	14408
918.939	14480
919.05	14393
919.161	14454
919.272	14252
919.383	14362
919.494	14473
919.604	14708
919.715	14438
919.826	14332
919.936	14370
920.047	14602
920.157	14385
920.267	14564
920.378	14457
920.488	14358
920.598	14549
920.708	14727
920.818	14632
920.928	14552
921.038	14746
921.148	14686
921.258	14332
921.368	14271
921.477	14145
921.587	14210
921.697	14001
921.806	14229
921.916	14103
922.025	13883
922.134	13795
922.244	13712
922.353	13757
922.462	13731
922.571	13636
922.68	13487
922.789	13483
922.898	13491
923.007	13362
923.116	13491
923.224	13403
923.333	13419
923.442	13285
923.55	13304
923.659	13343
923.767	13324
923.876	13164
923.984	13301
924.092	13175
924.201	13259
924.309	13168
924.417	13251
924.525	13145
924.633	13145
924.741	13902
924.849	12878
924.956	13023
925.064	12924
925.172	12837
925.279	12852
925.387	12958
925.494	12977
925.602	12989
925.709	12897
925.816	12817
925.924	12856
926.031	12916
926.138	12859
926.245	12913
926.352	12749
926.459	12897
926.566	13004
926.673	12776
926.779	12688
926.886	12559
926.993	12475
927.099	12422
927.206	12410
927.312	12315
927.419	12483
927.525	12330
927.631	12506
927.737	12342
927.843	12376
927.95	12235
928.056	12342
928.162	12251
928.267	12281
928.373	12909
928.479	12300
928.585	12095
928.69	12273
928.796	12266
928.901	12148
929.007	11961
929.112	12114
929.218	12167
929.323	12053
929.428	12015
929.533	12155
929.638	11969
929.743	11897
929.848	11988
929.953	12003
930.058	11824
930.163	11726
930.267	11710
930.372	11821
930.477	11699
930.581	11874
930.685	11756
930.79	11551
930.894	11615
930.998	11509
931.103	11676
931.207	11269
931.311	11231
931.415	11170
931.519	10972
931.623	10949
