Data from test_V78500241_1767.txt Node
Date: Fri Mar 25 15:54:02 CST 2022
User: usil
Spectrometer: V785-0024
Trigger mode: 0
Integration Time (sec): 4.000000E-1
Scans to average: 1
Nonlinearity correction enabled: false
Boxcar width: 0
Storing dark spectrum: false
XAxis mode: Wavelengths
Number of Pixels in Spectrum: 1024
>>>>>Begin Spectral Data<<<<<
801.071	28987
801.214	28980
801.356	28702
801.499	28698
801.641	28546
801.783	28561
801.926	28512
802.068	28615
802.211	28531
802.353	28497
802.496	28265
802.638	28352
802.78	28284
802.923	28105
803.065	28177
803.208	28181
803.35	28215
803.492	28375
803.635	28462
803.777	28371
803.919	28554
804.061	28885
804.204	28459
804.346	28390
804.488	28284
804.63	28329
804.773	28459
804.915	28462
805.057	28660
805.199	28493
805.341	28436
805.483	28809
805.626	28611
805.768	28546
805.91	28790
806.052	28626
806.194	28607
806.336	28904
806.478	28672
806.62	28706
806.762	28824
806.904	28991
807.046	29140
807.188	29155
807.33	29102
807.472	29151
807.614	29052
807.756	29185
807.898	29064
808.04	28835
808.182	28915
808.324	28995
808.465	29143
808.607	29250
808.749	29387
808.891	29490
809.033	29478
809.174	29554
809.316	29486
809.458	29406
809.6	29311
809.741	29566
809.883	29505
810.025	29638
810.166	29802
810.308	29653
810.45	29714
810.591	29573
810.733	29478
810.875	29429
811.016	29284
811.158	29185
811.299	29509
811.441	29577
811.582	29516
811.724	29311
811.865	29379
812.007	29204
812.148	29250
812.29	29429
812.431	29478
812.573	29847
812.714	29893
812.855	29923
812.997	29996
813.138	30174
813.279	30041
813.421	29977
813.562	29798
813.703	29695
813.845	29642
813.986	29193
814.127	29223
814.268	29086
814.41	29113
814.551	28961
814.692	29197
814.833	29083
814.974	29006
815.115	29064
815.256	28953
815.397	28961
815.539	28976
815.68	28835
815.821	28843
815.962	28942
816.103	28930
816.244	28683
816.385	28740
816.526	28561
816.666	28421
816.807	28405
816.948	28428
817.089	28550
817.23	28451
817.371	28538
817.512	28386
817.653	28329
817.793	28310
817.934	28325
818.075	28337
818.216	28481
818.356	28481
818.497	28306
818.638	28029
818.778	28074
818.919	28299
819.06	28169
819.2	28413
819.341	28398
819.481	28417
819.622	28599
819.762	28771
819.903	28607
820.043	28592
820.184	28557
820.324	28500
820.465	28660
820.605	28573
820.746	28497
820.886	28421
821.026	28443
821.167	28421
821.307	28668
821.447	28390
821.588	28257
821.728	28246
821.868	28086
822.008	27953
822.149	27945
822.289	27873
822.429	27835
822.569	27629
822.709	27641
822.849	27447
822.99	27336
823.13	27427
823.27	27325
823.41	27222
823.55	27127
823.69	27230
823.83	27252
823.97	27161
824.11	26944
824.25	26933
824.389	27055
824.529	27211
824.669	27017
824.809	27207
824.949	27116
825.089	27157
825.228	26998
825.368	26940
825.508	27043
825.648	26899
825.787	26918
825.927	26982
826.067	26906
826.206	27028
826.346	26921
826.485	27116
826.625	26838
826.765	27043
826.904	26899
827.044	26693
827.183	26625
827.323	26720
827.462	26754
827.601	26689
827.741	26583
827.88	26796
828.02	26560
828.159	26560
828.298	26834
828.437	26724
828.577	26568
828.716	26781
828.855	26613
828.994	26400
829.134	26362
829.273	26320
829.412	26298
829.551	26164
829.69	26370
829.829	26362
829.968	26355
830.107	26339
830.246	26355
830.385	26233
830.524	26278
830.663	26172
830.802	26065
830.941	25974
831.08	25894
831.219	26012
831.357	25951
831.496	26122
831.635	25913
831.774	25955
831.913	25868
832.051	25769
832.19	25727
832.329	25731
832.467	25693
832.606	25696
832.744	25575
832.883	25563
833.022	25670
833.16	25613
833.299	25761
833.437	25506
833.576	25632
833.714	25651
833.852	25609
833.991	25757
834.129	25731
834.267	25830
834.406	25635
834.544	25670
834.682	25578
834.821	25704
834.959	25852
835.097	25537
835.235	25632
835.373	25677
835.511	25712
835.65	25438
835.788	25419
835.926	25525
836.064	25373
836.202	25415
836.34	25582
836.478	25609
836.615	25563
836.753	25563
836.891	25552
837.029	25358
837.167	25506
837.305	25255
837.443	25301
837.58	25320
837.718	25369
837.856	25384
837.993	25373
838.131	25324
838.269	25160
838.406	25266
838.544	25107
838.681	25088
838.819	24871
838.956	24863
839.094	24848
839.231	24970
839.369	24966
839.506	25069
839.643	24996
839.781	24757
839.918	24692
840.055	24798
840.193	24726
840.33	24715
840.467	24715
840.604	24726
840.742	25015
840.879	24700
841.016	24627
841.153	24582
841.29	24764
841.427	24688
841.564	24768
841.701	24684
841.838	24502
841.975	24597
842.112	24608
842.249	24502
842.385	24350
842.522	24734
842.659	24418
842.796	24433
842.933	24467
843.069	24327
843.206	24456
843.343	24350
843.479	24498
843.616	24502
843.752	24216
843.889	24194
844.025	24330
844.162	24304
844.298	24346
844.435	24079
844.571	24155
844.708	24232
844.844	24353
844.98	24289
845.117	24220
845.253	24186
845.389	24129
845.525	24117
845.661	24060
845.798	23977
845.934	23901
846.07	23885
846.206	23893
846.342	24030
846.478	23931
846.614	23646
846.75	23661
846.886	23596
847.022	23687
847.158	23729
847.294	23672
847.429	23733
847.565	23589
847.701	23927
847.837	23372
847.972	23417
848.108	23497
848.244	23421
848.379	23322
848.515	23318
848.65	23166
848.786	23178
848.921	23223
849.057	23467
849.192	23379
849.328	23296
849.463	23208
849.598	23208
849.734	23231
849.869	23083
850.004	22908
850.14	23098
850.275	23121
850.41	22980
850.545	22911
850.68	22987
850.815	23052
850.95	22946
851.085	23155
851.22	22991
851.355	22854
851.49	22885
851.625	22927
851.76	22938
851.895	22927
852.03	22930
852.165	22957
852.299	23025
852.434	23052
852.569	22976
852.703	23121
852.838	23151
852.973	23029
853.107	23010
853.242	22900
853.376	22831
853.511	22778
853.645	22801
853.78	22984
853.914	22786
854.048	22721
854.183	22843
854.317	22873
854.451	23098
854.585	22786
854.72	22946
854.854	22930
854.988	22767
855.122	22805
855.256	22584
855.39	22774
855.524	22809
855.658	22927
855.792	22854
855.926	22774
856.06	22786
856.194	22942
856.327	22881
856.461	22771
856.595	22805
856.729	22755
856.862	22949
856.996	22869
857.13	22828
857.263	22919
857.397	23010
857.53	22858
857.664	22854
857.797	22915
857.931	22968
858.064	22896
858.197	22957
858.331	22717
858.464	22831
858.597	22744
858.731	22824
858.864	22752
858.997	22866
859.13	22877
859.263	22881
859.396	22968
859.529	22915
859.662	22828
859.795	22698
859.928	22824
860.061	23003
860.194	23090
860.327	22908
860.46	22934
860.592	23014
860.725	23029
860.858	22980
860.99	22942
861.123	22755
861.256	22740
861.388	22805
861.521	23474
861.653	22744
861.786	22653
861.918	22675
862.05	22679
862.183	22771
862.315	22854
862.447	22778
862.58	22721
862.712	22634
862.844	22584
862.976	22656
863.108	22740
863.24	22892
863.372	22580
863.504	22428
863.636	22626
863.768	22630
863.9	22618
864.032	22565
864.164	22462
864.296	22641
864.428	22580
864.559	22504
864.691	22588
864.823	22565
864.954	22470
865.086	22485
865.217	22447
865.349	22360
865.48	22398
865.612	22386
865.743	22599
865.875	22451
866.006	22428
866.137	22497
866.269	22459
866.4	22348
866.531	22360
866.662	22314
866.793	22333
866.924	22356
867.055	22329
867.186	22249
867.317	22295
867.448	22223
867.579	22257
867.71	22150
867.841	22306
867.972	22443
868.103	22295
868.233	22421
868.364	22284
868.495	22371
868.625	22577
868.756	22698
868.886	22611
869.017	22531
869.147	22774
869.278	22588
869.408	22519
869.539	22641
869.669	22710
869.799	22470
869.929	22710
870.06	22793
870.19	22889
870.32	22987
870.45	22908
870.58	22850
870.71	23075
870.84	23189
870.97	22968
871.1	22957
871.23	23090
871.36	23307
871.489	23064
871.619	23197
871.749	23178
871.879	23121
872.008	23315
872.138	23277
872.267	23170
872.397	23079
872.526	23010
872.656	22938
872.785	23018
872.915	23181
873.044	23212
873.173	23273
873.303	23197
873.432	23200
873.561	23239
873.69	23239
873.819	23250
873.948	23265
874.077	23315
874.206	23178
874.335	23250
874.464	23318
874.593	23436
874.722	23356
874.851	23417
874.979	23387
875.108	23448
875.237	23368
875.365	23254
875.494	23337
875.623	23535
875.751	23288
875.88	23452
876.008	23501
876.136	23627
876.265	23745
876.393	23798
876.521	23790
876.65	23802
876.778	23882
876.906	23824
877.034	23756
877.162	23863
877.29	23661
877.418	23737
877.546	23699
877.674	23642
877.802	23699
877.93	23767
878.058	23718
878.185	23646
878.313	23615
878.441	23802
878.568	23611
878.696	23680
878.824	23726
878.951	23942
879.079	23939
879.206	24015
879.333	23931
879.461	23752
879.588	23824
879.715	23927
879.842	24007
879.97	23828
880.097	23703
880.224	23448
880.351	23596
880.478	23642
880.605	23615
880.732	23471
880.859	23691
880.986	23573
881.112	23630
881.239	23493
881.366	23349
881.493	23147
881.619	23170
881.746	23128
881.872	23197
881.999	23132
882.125	23079
882.252	23235
882.378	23075
882.505	23113
882.631	22915
882.757	22831
882.883	22774
883.01	22710
883.136	22755
883.262	22698
883.388	22622
883.514	22713
883.64	22725
883.766	22656
883.892	22493
884.018	22626
884.143	22713
884.269	22793
884.395	22459
884.52	22440
884.646	22497
884.772	22341
884.897	22329
885.023	22409
885.148	22405
885.274	22573
885.399	22493
885.524	22516
885.65	22379
885.775	22493
885.9	22341
886.025	22596
886.15	22462
886.275	22375
886.4	22246
886.525	22295
886.65	22325
886.775	22303
886.9	22580
887.025	22615
887.149	22299
887.274	22230
887.399	22124
887.523	22196
887.648	22090
887.773	22055
887.897	22181
888.021	22261
888.146	22082
888.27	22276
888.395	22249
888.519	22124
888.643	22188
888.767	22204
888.891	22032
889.015	22002
889.139	21994
889.263	21895
889.387	22158
889.511	22147
889.635	22078
889.759	22002
889.883	21930
890.006	21991
890.13	22025
890.254	21850
890.377	21781
890.501	21679
890.624	21793
890.748	21736
890.871	21443
890.995	21519
891.118	21431
891.241	21462
891.364	21412
891.488	21656
891.611	21435
891.734	21439
891.857	21625
891.98	21530
892.103	21348
892.226	21587
892.349	21264
892.471	21268
892.594	21420
892.717	21397
892.839	21416
892.962	21374
893.085	21473
893.207	21363
893.33	21264
893.452	21355
893.575	21488
893.697	21401
893.819	21511
893.941	21519
894.064	21507
894.186	21233
894.308	21348
894.43	21397
894.552	21511
894.674	21443
894.796	21302
894.918	21393
895.04	21424
895.161	21424
895.283	21313
895.405	21252
895.526	21351
895.648	21367
895.769	21408
895.891	21348
896.012	21462
896.134	21408
896.255	21401
896.376	21325
896.498	21287
896.619	21310
896.74	21408
896.861	21538
896.982	21614
897.103	21736
897.224	21606
897.345	21568
897.466	21469
897.587	21530
897.708	21641
897.828	21641
897.949	21549
898.07	21416
898.19	21580
898.311	21648
898.431	21511
898.552	21485
898.672	21709
898.792	21637
898.913	21606
899.033	21329
899.153	21275
899.273	21233
899.393	21233
899.513	21237
899.633	21245
899.753	21218
899.873	21214
899.993	21192
900.113	21192
900.232	21252
900.352	21241
900.472	21123
900.591	21081
900.711	21104
900.83	20944
900.95	21077
901.069	21176
901.189	20914
901.308	20731
901.427	20552
901.546	20613
901.665	20545
901.784	20579
901.904	20465
902.023	20221
902.141	20145
902.26	20062
902.379	20278
902.498	19982
902.617	20081
902.735	20142
902.854	19970
902.973	19997
903.091	19811
903.21	19864
903.328	19784
903.446	19738
903.565	19472
903.683	19559
903.801	19388
903.919	19426
904.038	19529
904.156	19270
904.274	19346
904.392	19312
904.51	19141
904.627	19266
904.745	19270
904.863	19346
904.981	19148
905.098	18977
905.216	19008
905.334	19088
905.451	18939
905.569	18966
905.686	18890
905.803	18947
905.921	18741
906.038	18935
906.155	18715
906.272	18654
906.389	18677
906.506	18426
906.623	18460
906.74	18490
906.857	18308
906.974	18361
907.091	18513
907.208	18597
907.324	18513
907.441	18422
907.557	18174
907.674	18182
907.79	18133
907.907	18125
908.023	18239
908.139	18254
908.256	18148
908.372	18026
908.488	18011
908.604	17927
908.72	17802
908.836	17992
908.952	17893
909.068	17859
909.184	18030
909.3	17977
909.415	17904
909.531	17843
909.647	17668
909.762	17604
909.878	17585
909.993	17528
910.108	17551
910.224	17600
910.339	17592
910.454	17414
910.57	17406
910.685	17273
910.8	17604
910.915	17497
911.03	17417
911.145	17235
911.259	17235
911.374	17151
911.489	17117
911.604	17056
911.718	16824
911.833	16930
911.947	16816
912.062	16725
912.176	16942
912.291	16911
912.405	16900
912.519	17041
912.633	17029
912.748	16885
912.862	16892
912.976	16801
913.09	16588
913.204	16569
913.318	16649
913.431	16824
913.545	16858
913.659	16934
913.772	16634
913.886	16573
914	16466
914.113	16588
914.226	16519
914.34	16535
914.453	16417
914.566	16493
914.68	16272
914.793	16356
914.906	16131
915.019	16002
915.132	15926
915.245	16162
915.358	16097
915.47	16048
915.583	16021
915.696	16150
915.809	16131
915.921	16200
916.034	15964
916.146	15979
916.259	15892
916.371	16010
916.483	15956
916.595	15850
916.708	15926
916.82	15835
916.932	15842
917.044	15960
917.156	15812
917.268	15717
917.38	15675
917.491	15759
917.603	15629
917.715	15705
917.826	15842
917.938	15633
918.049	15507
918.161	15614
918.272	15686
918.384	15724
918.495	15610
918.606	15428
918.717	15367
918.828	15557
918.939	15557
919.05	15245
919.161	15405
919.272	15260
919.383	15321
919.494	15370
919.604	15564
919.715	15466
919.826	15340
919.936	15351
920.047	15420
920.157	15348
920.267	15557
920.378	15367
920.488	15306
920.598	15504
920.708	15720
920.818	15561
920.928	15462
921.038	15759
921.148	15637
921.258	15370
921.368	15184
921.477	15169
921.587	15009
921.697	14979
921.806	15047
921.916	14979
922.025	14864
922.134	14659
922.244	14693
922.353	14815
922.462	14583
922.571	14541
922.68	14450
922.789	14214
922.898	14351
923.007	14263
923.116	14362
923.224	14355
923.333	14320
923.442	14263
923.55	14195
923.659	14180
923.767	14183
923.876	14088
923.984	14183
924.092	14100
924.201	14100
924.309	14035
924.417	14005
924.525	14035
924.633	14058
924.741	14800
924.849	13776
924.956	13909
925.064	13693
925.172	13776
925.279	13715
925.387	13674
925.494	13670
925.602	13989
925.709	13757
925.816	13666
925.924	13620
926.031	13734
926.138	13582
926.245	13643
926.352	13658
926.459	13708
926.566	13723
926.673	13521
926.779	13422
926.886	13472
926.993	13350
927.099	13282
927.206	13251
927.312	13240
927.419	13308
927.525	13217
927.631	13301
927.737	13133
927.843	13099
927.95	12966
928.056	13031
928.162	13129
928.267	13057
928.373	13746
928.479	13156
928.585	12924
928.69	13065
928.796	13057
928.901	12954
929.007	12722
929.112	12920
929.218	12871
929.323	12837
929.428	12783
929.533	12829
929.638	12703
929.743	12677
929.848	12730
929.953	12764
930.058	12555
930.163	12445
930.267	12418
930.372	12555
930.477	12361
930.581	12521
930.685	12540
930.79	12311
930.894	12327
930.998	12296
931.103	12498
931.207	12079
931.311	11958
931.415	11927
931.519	11710
931.623	11623
