Data from test_V78500241_518.txt Node
Date: Fri Mar 25 15:45:23 CST 2022
User: usil
Spectrometer: V785-0024
Trigger mode: 0
Integration Time (sec): 4.000000E-1
Scans to average: 1
Nonlinearity correction enabled: false
Boxcar width: 0
Storing dark spectrum: false
XAxis mode: Wavelengths
Number of Pixels in Spectrum: 1024
>>>>>Begin Spectral Data<<<<<
801.071	27504
801.214	27256
801.356	26933
801.499	27100
801.641	26933
801.783	26960
801.926	26982
802.068	26971
802.211	26864
802.353	26724
802.496	26609
802.638	26678
802.78	26621
802.923	26476
803.065	26286
803.208	26518
803.35	26549
803.492	26602
803.635	26629
803.777	26511
803.919	26636
804.061	26921
804.204	26769
804.346	26629
804.488	26530
804.63	26705
804.773	26598
804.915	26636
805.057	26705
805.199	26587
805.341	26712
805.483	26826
805.626	26758
805.768	26735
805.91	26800
806.052	26845
806.194	26693
806.336	27013
806.478	26746
806.62	26720
806.762	26883
806.904	27268
807.046	27214
807.188	27180
807.33	27165
807.472	27302
807.614	27386
807.756	27249
807.898	27161
808.04	27001
808.182	27032
808.324	27013
808.465	27165
808.607	27313
808.749	27370
808.891	27709
809.033	27534
809.174	27523
809.316	27488
809.458	27587
809.6	27370
809.741	27477
809.883	27545
810.025	27622
810.166	27713
810.308	27759
810.45	27625
810.591	27679
810.733	27511
810.875	27363
811.016	27161
811.158	27363
811.299	27564
811.441	27705
811.582	27500
811.724	27431
811.865	27252
812.007	27344
812.148	27351
812.29	27511
812.431	27511
812.573	27644
812.714	27720
812.855	27972
812.997	28173
813.138	28196
813.279	27987
813.421	27816
813.562	27991
813.703	27804
813.845	27637
813.986	27332
814.127	27203
814.268	27066
814.41	27104
814.551	26960
814.692	27146
814.833	27051
814.974	27070
815.115	27055
815.256	26872
815.397	26929
815.539	26929
815.68	26872
815.821	26823
815.962	26800
816.103	26815
816.244	26689
816.385	26891
816.526	26785
816.666	26480
816.807	26381
816.948	26347
817.089	26320
817.23	26396
817.371	26377
817.512	26377
817.653	26248
817.793	26336
817.934	26317
818.075	26282
818.216	26339
818.356	26328
818.497	26176
818.638	26035
818.778	26138
818.919	26092
819.06	26111
819.2	26195
819.341	26434
819.481	26259
819.622	26389
819.762	26602
819.903	26705
820.043	26518
820.184	26415
820.324	26339
820.465	26438
820.605	26518
820.746	26396
820.886	26324
821.026	26404
821.167	26396
821.307	26442
821.447	26484
821.588	26237
821.728	26119
821.868	25970
822.008	25936
822.149	25795
822.289	25765
822.429	25582
822.569	25502
822.709	25358
822.849	25438
822.99	25266
823.13	25194
823.27	25327
823.41	25137
823.55	25053
823.69	25091
823.83	25015
823.97	25065
824.11	24837
824.25	24821
824.389	24916
824.529	24924
824.669	24954
824.809	25171
824.949	24966
825.089	25015
825.228	24981
825.368	24852
825.508	24715
825.648	24935
825.787	24871
825.927	24856
826.067	24730
826.206	24878
826.346	24791
826.485	24871
826.625	24692
826.765	24894
826.904	24817
827.044	24585
827.183	24532
827.323	24437
827.462	24574
827.601	24563
827.741	24483
827.88	24547
828.02	24304
828.159	24410
828.298	24612
828.437	24517
828.577	24384
828.716	24582
828.855	24460
828.994	24254
829.134	24247
829.273	24224
829.412	24125
829.551	24239
829.69	24102
829.829	24186
829.968	24357
830.107	24205
830.246	24273
830.385	24098
830.524	24106
830.663	23901
830.802	23980
830.941	23756
831.08	23855
831.219	23859
831.357	23889
831.496	23980
831.635	23855
831.774	23691
831.913	23608
832.051	23577
832.19	23577
832.329	23608
832.467	23482
832.606	23379
832.744	23372
832.883	23436
833.022	23516
833.16	23474
833.299	23509
833.437	23509
833.576	23566
833.714	23630
833.852	23524
833.991	23535
834.129	23695
834.267	23623
834.406	23551
834.544	23471
834.682	23562
834.821	23535
834.959	23699
835.097	23478
835.235	23657
835.373	23623
835.511	23516
835.65	23360
835.788	23315
835.926	23258
836.064	23060
836.202	23189
836.34	23398
836.478	23493
836.615	23288
836.753	23334
836.891	23455
837.029	23227
837.167	23349
837.305	23303
837.443	23280
837.58	23212
837.718	23391
837.856	23151
837.993	23197
838.131	23102
838.269	23098
838.406	23117
838.544	23003
838.681	22717
838.819	22866
838.956	22691
839.094	22649
839.231	22710
839.369	22953
839.506	23132
839.643	22957
839.781	22577
839.918	22653
840.055	22702
840.193	22599
840.33	22569
840.467	22733
840.604	22767
840.742	22911
840.879	22546
841.016	22618
841.153	22607
841.29	22721
841.427	22592
841.564	22713
841.701	22497
841.838	22573
841.975	22611
842.112	22516
842.249	22402
842.385	22390
842.522	22675
842.659	22550
842.796	22246
842.933	22519
843.069	22280
843.206	22204
843.343	22436
843.479	22341
843.616	22325
843.752	22287
843.889	22158
844.025	22257
844.162	22070
844.298	22211
844.435	22158
844.571	22139
844.708	22139
844.844	22348
844.98	22234
845.117	22177
845.253	22051
845.389	21941
845.525	22090
845.661	21975
845.798	21861
845.934	21926
846.07	21873
846.206	21983
846.342	21926
846.478	21968
846.614	21736
846.75	21473
846.886	21652
847.022	21652
847.158	21675
847.294	21572
847.429	21644
847.565	21515
847.701	21865
847.837	21393
847.972	21393
848.108	21492
848.244	21291
848.379	21294
848.515	21218
848.65	21135
848.786	21233
848.921	21298
849.057	21454
849.192	21268
849.328	21150
849.463	21203
849.598	21218
849.734	21077
849.869	21112
850.004	20960
850.14	21043
850.275	21089
850.41	20864
850.545	20933
850.68	20941
850.815	20990
850.95	20883
851.085	21089
851.22	20979
851.355	20990
851.49	20982
851.625	20960
851.76	20880
851.895	20902
852.03	20941
852.165	21112
852.299	20937
852.434	20948
852.569	21017
852.703	21028
852.838	21142
852.973	21112
853.107	21047
853.242	20998
853.376	20781
853.511	20682
853.645	20807
853.78	20880
853.914	20883
854.048	20697
854.183	20781
854.317	20792
854.451	20982
854.585	20754
854.72	20819
854.854	20769
854.988	20765
855.122	20781
855.256	20670
855.39	20811
855.524	20880
855.658	20842
855.792	20727
855.926	20872
856.06	20899
856.194	20941
856.327	20765
856.461	20750
856.595	20689
856.729	20777
856.862	20891
856.996	20853
857.13	20941
857.263	20910
857.397	20853
857.53	20891
857.664	20804
857.797	20815
857.931	20910
858.064	20640
858.197	20944
858.331	20830
858.464	20727
858.597	20720
858.731	20697
858.864	20906
858.997	20705
859.13	20785
859.263	20750
859.396	20975
859.529	20842
859.662	20720
859.795	20655
859.928	20762
860.061	20861
860.194	20975
860.327	20838
860.46	20811
860.592	20754
860.725	20941
860.858	20979
860.99	20804
861.123	20739
861.256	20697
861.388	20781
861.521	21462
861.653	20625
861.786	20530
861.918	20560
862.05	20727
862.183	20689
862.315	20693
862.447	20845
862.58	20727
862.712	20746
862.844	20499
862.976	20549
863.108	20598
863.24	20948
863.372	20454
863.504	20480
863.636	20503
863.768	20632
863.9	20465
864.032	20442
864.164	20537
864.296	20545
864.428	20682
864.559	20564
864.691	20503
864.823	20549
864.954	20533
865.086	20514
865.217	20465
865.349	20294
865.48	20442
865.612	20347
865.743	20473
865.875	20518
866.006	20385
866.137	20499
866.269	20332
866.4	20362
866.531	20324
866.662	20400
866.793	20301
866.924	20275
867.055	20408
867.186	20393
867.317	20320
867.448	20286
867.579	20161
867.71	20229
867.841	20324
867.972	20298
868.103	20351
868.233	20396
868.364	20271
868.495	20339
868.625	20568
868.756	20651
868.886	20484
869.017	20590
869.147	20549
869.278	20754
869.408	20564
869.539	20632
869.669	20659
869.799	20655
869.929	20697
870.06	20686
870.19	20880
870.32	20705
870.45	20971
870.58	20887
870.71	21051
870.84	21112
870.97	20834
871.1	20979
871.23	21188
871.36	21283
871.489	21142
871.619	21154
871.749	21116
871.879	21157
872.008	21260
872.138	21165
872.267	21154
872.397	20982
872.526	21036
872.656	20872
872.785	21066
872.915	21173
873.044	21230
873.173	21207
873.303	21272
873.432	21317
873.561	21291
873.69	21264
873.819	21169
873.948	21306
874.077	21252
874.206	21116
874.335	21207
874.464	21367
874.593	21428
874.722	21340
874.851	21542
874.979	21568
875.108	21561
875.237	21313
875.365	21363
875.494	21431
875.623	21610
875.751	21435
875.88	21325
876.008	21622
876.136	21500
876.265	21762
876.393	21994
876.521	21945
876.65	21869
876.778	21842
876.906	21789
877.034	21781
877.162	21732
877.29	21644
877.418	21755
877.546	21770
877.674	21739
877.802	21660
877.93	21736
878.058	21774
878.185	21561
878.313	21762
878.441	21751
878.568	21614
878.696	21808
878.824	21812
878.951	21899
879.079	22032
879.206	22078
879.333	22051
879.461	21789
879.588	21865
879.715	21907
879.842	22097
879.97	21880
880.097	21656
880.224	21690
880.351	21644
880.478	21675
880.605	21667
880.732	21519
880.859	21854
880.986	21606
881.112	21682
881.239	21542
881.366	21313
881.493	21294
881.619	21157
881.746	21283
881.872	21268
881.999	21184
882.125	21161
882.252	21188
882.378	21230
882.505	21458
882.631	21096
882.757	21051
882.883	20948
883.01	20921
883.136	20849
883.262	20739
883.388	20788
883.514	20979
883.64	20921
883.766	20849
883.892	20651
884.018	20731
884.143	20921
884.269	21074
884.395	20606
884.52	20609
884.646	20518
884.772	20427
884.897	20518
885.023	20564
885.148	20606
885.274	20739
885.399	20746
885.524	20587
885.65	20594
885.775	20511
885.9	20568
886.025	20621
886.15	20609
886.275	20537
886.4	20423
886.525	20389
886.65	20484
886.775	20537
886.9	20659
887.025	20739
887.149	20545
887.274	20423
887.399	20400
887.523	20214
887.648	20237
887.773	20176
887.897	20309
888.021	20370
888.146	20237
888.27	20450
888.395	20400
888.519	20381
888.643	20339
888.767	20469
888.891	20244
889.015	20134
889.139	20263
889.263	20221
889.387	20355
889.511	20244
889.635	20320
889.759	20069
889.883	20111
890.006	20107
890.13	20100
890.254	20122
890.377	20126
890.501	19826
890.624	19814
890.748	19906
890.871	19784
890.995	19655
891.118	19723
891.241	19753
891.364	19685
891.488	19822
891.611	19784
891.734	19780
891.857	19784
891.98	19788
892.103	19674
892.226	19742
892.349	19643
892.471	19544
892.594	19643
892.717	19628
892.839	19578
892.962	19624
893.085	19708
893.207	19632
893.33	19548
893.452	19605
893.575	19765
893.697	19632
893.819	19639
893.941	19788
894.064	19662
894.186	19693
894.308	19472
894.43	19620
894.552	19757
894.674	19616
894.796	19556
894.918	19620
895.04	19552
895.161	19647
895.283	19639
895.405	19582
895.526	19647
895.648	19540
895.769	19738
895.891	19628
896.012	19727
896.134	19791
896.255	19746
896.376	19677
896.498	19719
896.619	19715
896.74	19757
896.861	19715
896.982	19909
897.103	20138
897.224	19951
897.345	19811
897.466	19753
897.587	19879
897.708	20027
897.828	19955
897.949	19845
898.07	19685
898.19	19750
898.311	19955
898.431	19738
898.552	19830
898.672	20001
898.792	20012
898.913	19898
899.033	19807
899.153	19719
899.273	19582
899.393	19628
899.513	19712
899.633	19639
899.753	19586
899.873	19594
899.993	19776
900.113	19472
900.232	19552
900.352	19597
900.472	19472
900.591	19381
900.711	19441
900.83	19304
900.95	19480
901.069	19521
901.189	19282
901.308	19171
901.427	19061
901.546	19072
901.665	19137
901.784	19008
901.904	18939
902.023	18882
902.141	18509
902.26	18528
902.379	18688
902.498	18471
902.617	18536
902.735	18566
902.854	18460
902.973	18445
903.091	18152
903.21	18163
903.328	18163
903.446	18026
903.565	18003
903.683	18057
903.801	17939
903.919	17882
904.038	17916
904.156	17756
904.274	17866
904.392	17760
904.51	17745
904.627	17790
904.745	17748
904.863	17840
904.981	17535
905.098	17376
905.216	17364
905.334	17551
905.451	17490
905.569	17440
905.686	17539
905.803	17425
905.921	17265
906.038	17360
906.155	17185
906.272	17162
906.389	17166
906.506	17060
906.623	17037
906.74	16946
906.857	16885
906.974	16999
907.091	17052
907.208	17086
907.324	16972
907.441	16843
907.557	16755
907.674	16759
907.79	16630
907.907	16637
908.023	16801
908.139	16763
908.256	16618
908.372	16607
908.488	16634
908.604	16523
908.72	16360
908.836	16443
908.952	16443
909.068	16432
909.184	16550
909.3	16322
909.415	16470
909.531	16451
909.647	16211
909.762	16116
909.878	16097
909.993	16093
910.108	16177
910.224	16048
910.339	16086
910.454	15956
910.57	15964
910.685	15892
910.8	16147
910.915	16128
911.03	15854
911.145	15785
911.259	15838
911.374	15800
911.489	15637
911.604	15572
911.718	15542
911.833	15557
911.947	15370
912.062	15397
912.176	15435
912.291	15485
912.405	15488
912.519	15580
912.633	15652
912.748	15466
912.862	15378
912.976	15252
913.09	15260
913.204	15199
913.318	15321
913.431	15408
913.545	15287
913.659	15370
913.772	15241
913.886	15264
914	15043
914.113	15108
914.226	15256
914.34	15138
914.453	14929
914.566	15233
914.68	15100
914.793	14971
914.906	14823
915.019	14796
915.132	14636
915.245	14682
915.358	14735
915.47	14804
915.583	14716
915.696	14708
915.809	14750
915.921	14842
916.034	14629
916.146	14560
916.259	14556
916.371	14746
916.483	14739
916.595	14541
916.708	14602
916.82	14537
916.932	14454
917.044	14480
917.156	14571
917.268	14412
917.38	14404
917.491	14484
917.603	14434
917.715	14469
917.826	14507
917.938	14415
918.049	14218
918.161	14366
918.272	14450
918.384	14549
918.495	14278
918.606	14168
918.717	14157
918.828	14263
918.939	14164
919.05	14111
919.161	14142
919.272	13974
919.383	14043
919.494	14168
919.604	14374
919.715	14164
919.826	14024
919.936	14142
920.047	14157
920.157	13974
920.267	14317
920.378	14088
920.488	14084
920.598	14267
920.708	14370
920.818	14313
920.928	14221
921.038	14419
921.148	14404
921.258	14100
921.368	13967
921.477	13856
921.587	13932
921.697	13788
921.806	13902
921.916	13784
922.025	13601
922.134	13575
922.244	13525
922.353	13609
922.462	13400
922.571	13422
922.68	13244
922.789	13194
922.898	13156
923.007	13141
923.116	13179
923.224	13187
923.333	13103
923.442	13103
923.55	12981
923.659	13012
923.767	13031
923.876	12894
923.984	13114
924.092	12932
924.201	12989
924.309	12867
924.417	12909
924.525	12837
924.633	12958
924.741	13689
924.849	12642
924.956	12795
925.064	12654
925.172	12604
925.279	12597
925.387	12642
925.494	12593
925.602	12715
925.709	12711
925.816	12445
925.924	12544
926.031	12681
926.138	12509
926.245	12574
926.352	12452
926.459	12662
926.566	12635
926.673	12460
926.779	12464
926.886	12407
926.993	12136
927.099	12213
927.206	12167
927.312	12060
927.419	12213
927.525	12224
927.631	12224
927.737	12155
927.843	12106
927.95	12003
928.056	11882
928.162	12041
928.267	12053
928.373	12650
928.479	12060
928.585	11874
928.69	11942
928.796	12049
928.901	11885
929.007	11726
929.112	11901
929.218	11870
929.323	11828
929.428	11798
929.533	11843
929.638	11775
929.743	11703
929.848	11790
929.953	11707
930.058	11630
930.163	11474
930.267	11547
930.372	11570
930.477	11368
930.581	11657
930.685	11474
930.79	11311
930.894	11341
930.998	11288
931.103	11421
931.207	11181
931.311	11025
931.415	10946
931.519	10721
931.623	10752
