Data from test_V78500241_2522.txt Node
Date: Fri Mar 25 15:59:16 CST 2022
User: usil
Spectrometer: V785-0024
Trigger mode: 0
Integration Time (sec): 4.000000E-1
Scans to average: 1
Nonlinearity correction enabled: false
Boxcar width: 0
Storing dark spectrum: false
XAxis mode: Wavelengths
Number of Pixels in Spectrum: 1024
>>>>>Begin Spectral Data<<<<<
801.071	28782
801.214	28618
801.356	28394
801.499	28447
801.641	28398
801.783	28276
801.926	28371
802.068	28192
802.211	28413
802.353	28284
802.496	28135
802.638	28002
802.78	28013
802.923	27895
803.065	27895
803.208	28010
803.35	28082
803.492	28185
803.635	28230
803.777	28268
803.919	28337
804.061	28470
804.204	28367
804.346	28360
804.488	28238
804.63	28367
804.773	28314
804.915	28333
805.057	28268
805.199	28249
805.341	28424
805.483	28436
805.626	28371
805.768	28375
805.91	28390
806.052	28451
806.194	28405
806.336	28615
806.478	28462
806.62	28466
806.762	28649
806.904	28748
807.046	29086
807.188	28736
807.33	28888
807.472	29060
807.614	28976
807.756	28949
807.898	28820
808.04	28721
808.182	28653
808.324	28896
808.465	28850
808.607	29033
808.749	29288
808.891	29265
809.033	29220
809.174	29014
809.316	29170
809.458	29109
809.6	29155
809.741	29277
809.883	29242
810.025	29493
810.166	29414
810.308	29429
810.45	29311
810.591	29318
810.733	29136
810.875	29170
811.016	29060
811.158	29029
811.299	29117
811.441	29322
811.582	29212
811.724	29033
811.865	29109
812.007	29064
812.148	29220
812.29	29132
812.431	29303
812.573	29455
812.714	29539
812.855	29646
812.997	29668
813.138	29961
813.279	29794
813.421	29627
813.562	29551
813.703	29455
813.845	29387
813.986	29094
814.127	28938
814.268	28885
814.41	28824
814.551	28824
814.692	28927
814.833	28740
814.974	28763
815.115	28843
815.256	28668
815.397	28767
815.539	28793
815.68	28546
815.821	28565
815.962	28561
816.103	28702
816.244	28569
816.385	28428
816.526	28436
816.666	28291
816.807	28223
816.948	28333
817.089	28204
817.23	28215
817.371	28257
817.512	28112
817.653	28147
817.793	28055
817.934	28131
818.075	28086
818.216	28029
818.356	28177
818.497	28032
818.638	27865
818.778	27949
818.919	27953
819.06	28090
819.2	28051
819.341	28143
819.481	28158
819.622	28303
819.762	28424
819.903	28386
820.043	28352
820.184	28375
820.324	28382
820.465	28348
820.605	28325
820.746	28120
820.886	28169
821.026	28261
821.167	28166
821.307	28367
821.447	28211
821.588	27960
821.728	28048
821.868	27743
822.008	27686
822.149	27774
822.289	27728
822.429	27348
822.569	27283
822.709	27386
822.849	27203
822.99	27123
823.13	27203
823.27	27150
823.41	27188
823.55	26902
823.69	26883
823.83	27081
823.97	27013
824.11	26686
824.25	26705
824.389	26921
824.529	26804
824.669	26811
824.809	26792
824.949	26956
825.089	26834
825.228	26750
825.368	26743
825.508	26777
825.648	26746
825.787	26788
825.927	26590
826.067	26602
826.206	26533
826.346	26777
826.485	26769
826.625	26735
826.765	26883
826.904	26758
827.044	26507
827.183	26511
827.323	26473
827.462	26484
827.601	26568
827.741	26374
827.88	26560
828.02	26252
828.159	26571
828.298	26434
828.437	26530
828.577	26431
828.716	26473
828.855	26381
828.994	26290
829.134	26039
829.273	26130
829.412	26161
829.551	25925
829.69	26035
829.829	26122
829.968	26122
830.107	26237
830.246	26202
830.385	26180
830.524	26145
830.663	25974
830.802	25845
830.941	25833
831.08	25864
831.219	25871
831.357	25765
831.496	25871
831.635	25784
831.774	25620
831.913	25639
832.051	25578
832.19	25487
832.329	25438
832.467	25301
832.606	25331
832.744	25339
832.883	25396
833.022	25335
833.16	25312
833.299	25434
833.437	25502
833.576	25441
833.714	25434
833.852	25571
833.991	25537
834.129	25681
834.267	25594
834.406	25476
834.544	25441
834.682	25518
834.821	25373
834.959	25628
835.097	25339
835.235	25514
835.373	25476
835.511	25411
835.65	25438
835.788	25339
835.926	25270
836.064	25145
836.202	25240
836.34	25202
836.478	25369
836.615	25206
836.753	25164
836.891	25308
837.029	25339
837.167	25217
837.305	25209
837.443	25031
837.58	25000
837.718	25240
837.856	25160
837.993	25000
838.131	25187
838.269	24939
838.406	25110
838.544	25015
838.681	24764
838.819	24707
838.956	24570
839.094	24631
839.231	24635
839.369	24726
839.506	24962
839.643	24840
839.781	24547
839.918	24601
840.055	24570
840.193	24544
840.33	24338
840.467	24563
840.604	24467
840.742	24810
840.879	24205
841.016	24388
841.153	24410
841.29	24494
841.427	24448
841.564	24536
841.701	24517
841.838	24521
841.975	24407
842.112	24376
842.249	24315
842.385	24304
842.522	24391
842.659	24281
842.796	24190
842.933	24319
843.069	24152
843.206	24174
843.343	24209
843.479	24098
843.616	24251
843.752	24057
843.889	24007
844.025	24148
844.162	23927
844.298	24030
844.435	24034
844.571	24159
844.708	24076
844.844	24155
844.98	24159
845.117	24171
845.253	23946
845.389	23901
845.525	23920
845.661	23874
845.798	23832
845.934	23760
846.07	23699
846.206	23703
846.342	23863
846.478	23756
846.614	23478
846.75	23379
846.886	23417
847.022	23528
847.158	23520
847.294	23425
847.429	23482
847.565	23509
847.701	23573
847.837	23250
847.972	23181
848.108	23318
848.244	23227
848.379	23060
848.515	23052
848.65	22991
848.786	23029
848.921	23143
849.057	23181
849.192	23056
849.328	23010
849.463	22961
849.598	23033
849.734	22885
849.869	22968
850.004	22862
850.14	22843
850.275	22816
850.41	22763
850.545	22744
850.68	22767
850.815	22938
850.95	22873
851.085	23044
851.22	22839
851.355	22850
851.49	22934
851.625	22854
851.76	22812
851.895	22778
852.03	22801
852.165	22778
852.299	22850
852.434	23018
852.569	22858
852.703	22858
852.838	22995
852.973	22885
853.107	22892
853.242	22763
853.376	22733
853.511	22577
853.645	22634
853.78	22675
853.914	22645
854.048	22557
854.183	22596
854.317	22569
854.451	22736
854.585	22596
854.72	22637
854.854	22774
854.988	22550
855.122	22649
855.256	22516
855.39	22656
855.524	22675
855.658	22675
855.792	22664
855.926	22577
856.06	22637
856.194	22675
856.327	22664
856.461	22550
856.595	22440
856.729	22622
856.862	22771
856.996	22615
857.13	22793
857.263	22702
857.397	22736
857.53	22618
857.664	22706
857.797	22729
857.931	22786
858.064	22675
858.197	22710
858.331	22569
858.464	22672
858.597	22500
858.731	22519
858.864	22599
858.997	22508
859.13	22687
859.263	22557
859.396	22653
859.529	22653
859.662	22630
859.795	22519
859.928	22542
860.061	22740
860.194	22828
860.327	22752
860.46	22687
860.592	22698
860.725	22759
860.858	22626
860.99	22573
861.123	22573
861.256	22508
861.388	22634
861.521	23326
861.653	22573
861.786	22394
861.918	22493
862.05	22611
862.183	22512
862.315	22508
862.447	22557
862.58	22550
862.712	22409
862.844	22352
862.976	22451
863.108	22280
863.24	22664
863.372	22272
863.504	22348
863.636	22325
863.768	22390
863.9	22299
864.032	22154
864.164	22428
864.296	22375
864.428	22337
864.559	22360
864.691	22337
864.823	22398
864.954	22363
865.086	22131
865.217	22287
865.349	22181
865.48	22291
865.612	22284
865.743	22265
865.875	22356
866.006	22093
866.137	22291
866.269	22192
866.4	22200
866.531	22169
866.662	22139
866.793	22177
866.924	22219
867.055	22158
867.186	22109
867.317	22128
867.448	21956
867.579	22116
867.71	22090
867.841	21968
867.972	22044
868.103	22185
868.233	22162
868.364	22257
868.495	22166
868.625	22398
868.756	22413
868.886	22242
869.017	22360
869.147	22519
869.278	22569
869.408	22447
869.539	22253
869.669	22409
869.799	22413
869.929	22500
870.06	22424
870.19	22618
870.32	22573
870.45	22679
870.58	22782
870.71	22923
870.84	22835
870.97	22774
871.1	22801
871.23	22972
871.36	23022
871.489	22961
871.619	22930
871.749	22881
871.879	22953
872.008	23052
872.138	23010
872.267	23014
872.397	22820
872.526	22862
872.656	22881
872.785	22866
872.915	23041
873.044	22953
873.173	22915
873.303	23037
873.432	23079
873.561	23018
873.69	23018
873.819	22900
873.948	23105
874.077	23041
874.206	22923
874.335	23022
874.464	23136
874.593	23265
874.722	23128
874.851	23258
874.979	23231
875.108	23185
875.237	23181
875.365	23033
875.494	23155
875.623	23193
875.751	23193
875.88	23231
876.008	23372
876.136	23387
876.265	23509
876.393	23543
876.521	23524
876.65	23813
876.778	23695
876.906	23395
877.034	23535
877.162	23425
877.29	23562
877.418	23558
877.546	23516
877.674	23608
877.802	23623
877.93	23604
878.058	23493
878.185	23398
878.313	23558
878.441	23528
878.568	23368
878.696	23478
878.824	23608
878.951	23516
879.079	23596
879.206	23851
879.333	23726
879.461	23596
879.588	23699
879.715	23767
879.842	23756
879.97	23551
880.097	23383
880.224	23315
880.351	23444
880.478	23299
880.605	23277
880.732	23417
880.859	23619
880.986	23379
881.112	23471
881.239	23121
881.366	23178
881.493	23090
881.619	22949
881.746	22828
881.872	23010
881.999	23033
882.125	22938
882.252	22991
882.378	22927
882.505	22987
882.631	22793
882.757	22588
882.883	22702
883.01	22645
883.136	22656
883.262	22451
883.388	22519
883.514	22580
883.64	22580
883.766	22508
883.892	22341
884.018	22337
884.143	22443
884.269	22637
884.395	22352
884.52	22261
884.646	22348
884.772	22135
884.897	22070
885.023	22234
885.148	22280
885.274	22386
885.399	22394
885.524	22196
885.65	22318
885.775	22204
885.9	22090
886.025	22238
886.15	22363
886.275	22044
886.4	22196
886.525	22181
886.65	22150
886.775	22207
886.9	22303
887.025	22398
887.149	22131
887.274	22131
887.399	21945
887.523	22002
887.648	21922
887.773	21838
887.897	22021
888.021	22048
888.146	21895
888.27	22143
888.395	22032
888.519	22021
888.643	22135
888.767	21987
888.891	21930
889.015	21861
889.139	21835
889.263	21778
889.387	21835
889.511	21953
889.635	22029
889.759	21751
889.883	21679
890.006	21751
890.13	21747
890.254	21701
890.377	21587
890.501	21519
890.624	21534
890.748	21591
890.871	21477
890.995	21218
891.118	21386
891.241	21435
891.364	21325
891.488	21374
891.611	21298
891.734	21268
891.857	21306
891.98	21386
892.103	21298
892.226	21332
892.349	21146
892.471	21062
892.594	21272
892.717	21226
892.839	21245
892.962	21180
893.085	21298
893.207	21146
893.33	21024
893.452	21203
893.575	21226
893.697	21241
893.819	21313
893.941	21386
894.064	21363
894.186	21058
894.308	21180
894.43	21351
894.552	21294
894.674	21154
894.796	21199
894.918	21081
895.04	21203
895.161	21203
895.283	21230
895.405	21085
895.526	21154
895.648	21119
895.769	21241
895.891	21211
896.012	21214
896.134	21268
896.255	21226
896.376	21161
896.498	21211
896.619	21142
896.74	21222
896.861	21222
896.982	21488
897.103	21545
897.224	21416
897.345	21386
897.466	21363
897.587	21321
897.708	21515
897.828	21435
897.949	21412
898.07	21142
898.19	21340
898.311	21389
898.431	21279
898.552	21424
898.672	21367
898.792	21488
898.913	21325
899.033	21260
899.153	21211
899.273	21017
899.393	21192
899.513	21188
899.633	21066
899.753	21089
899.873	21161
899.993	21085
900.113	21036
900.232	21123
900.352	21001
900.472	20914
900.591	20849
900.711	20963
900.83	20838
900.95	20864
901.069	20960
901.189	20785
901.308	20606
901.427	20434
901.546	20499
901.665	20400
901.784	20492
901.904	20317
902.023	20206
902.141	20073
902.26	19906
902.379	20020
902.498	19928
902.617	19837
902.735	19890
902.854	19967
902.973	19932
903.091	19681
903.21	19643
903.328	19597
903.446	19480
903.565	19411
903.683	19365
903.801	19384
903.919	19384
904.038	19285
904.156	19118
904.274	19171
904.392	19072
904.51	19225
904.627	19202
904.745	19190
904.863	19209
904.981	18947
905.098	18810
905.216	18791
905.334	18894
905.451	18913
905.569	18825
905.686	18894
905.803	18715
905.921	18578
906.038	18722
906.155	18559
906.272	18513
906.389	18570
906.506	18391
906.623	18273
906.74	18384
906.857	18224
906.974	18136
907.091	18426
907.208	18437
907.324	18403
907.441	18182
907.557	18091
907.674	18083
907.79	18038
907.907	17992
908.023	18095
908.139	17999
908.256	17954
908.372	17977
908.488	17969
908.604	17843
908.72	17707
908.836	17817
908.952	17760
909.068	17843
909.184	17821
909.3	17764
909.415	17752
909.531	17672
909.647	17520
909.762	17440
909.878	17360
909.993	17406
910.108	17368
910.224	17379
910.339	17231
910.454	17315
910.57	17254
910.685	17216
910.8	17368
910.915	17490
911.03	17273
911.145	17090
911.259	17029
911.374	16995
911.489	16942
911.604	16892
911.718	16763
911.833	16748
911.947	16713
912.062	16706
912.176	16824
912.291	16820
912.405	16706
912.519	16923
912.633	16904
912.748	16694
912.862	16736
912.976	16683
913.09	16470
913.204	16569
913.318	16542
913.431	16679
913.545	16565
913.659	16679
913.772	16436
913.886	16421
914	16344
914.113	16424
914.226	16462
914.34	16386
914.453	16234
914.566	16360
914.68	16242
914.793	16204
914.906	16090
915.019	15934
915.132	15903
915.245	16021
915.358	15915
915.47	15945
915.583	15975
915.696	15922
915.809	16029
915.921	16105
916.034	15865
916.146	15812
916.259	15823
916.371	16048
916.483	15838
916.595	15831
916.708	15739
916.82	15747
916.932	15789
917.044	15755
917.156	15656
917.268	15671
917.38	15625
917.491	15534
917.603	15523
917.715	15572
917.826	15743
917.938	15458
918.049	15359
918.161	15496
918.272	15599
918.384	15686
918.495	15538
918.606	15359
918.717	15302
918.828	15268
918.939	15351
919.05	15180
919.161	15291
919.272	15074
919.383	15150
919.494	15317
919.604	15462
919.715	15260
919.826	15180
919.936	15188
920.047	15359
920.157	15275
920.267	15504
920.378	15344
920.488	15260
920.598	15477
920.708	15629
920.818	15393
920.928	15363
921.038	15549
921.148	15397
921.258	15211
921.368	15024
921.477	14944
921.587	15017
921.697	14830
921.806	14963
921.916	14807
922.025	14682
922.134	14659
922.244	14629
922.353	14583
922.462	14522
922.571	14400
922.68	14385
922.789	14256
922.898	14229
923.007	14180
923.116	14221
923.224	14256
923.333	14168
923.442	14027
923.55	14050
923.659	14058
923.767	14172
923.876	14031
923.984	14138
924.092	13967
924.201	13951
924.309	13978
924.417	14043
924.525	13898
924.633	13913
924.741	14651
924.849	13658
924.956	13887
925.064	13636
925.172	13647
925.279	13670
925.387	13639
925.494	13639
925.602	13734
925.709	13685
925.816	13586
925.924	13480
926.031	13647
926.138	13537
926.245	13613
926.352	13457
926.459	13548
926.566	13655
926.673	13537
926.779	13445
926.886	13320
926.993	13335
927.099	13122
927.206	13126
927.312	13118
927.419	13129
927.525	13179
927.631	13228
927.737	13053
927.843	12954
927.95	12863
928.056	12993
928.162	12996
928.267	12993
928.373	13613
928.479	13000
928.585	12825
928.69	12890
928.796	13027
928.901	12859
929.007	12642
929.112	12844
929.218	12837
929.323	12745
929.428	12639
929.533	12783
929.638	12631
929.743	12635
929.848	12681
929.953	12673
930.058	12448
930.163	12338
930.267	12315
930.372	12555
930.477	12304
930.581	12574
930.685	12296
930.79	12251
930.894	12296
930.998	12133
931.103	12300
931.207	11977
931.311	11821
931.415	11859
931.519	11657
931.623	11463
