Data from test_V78500241_228.txt Node
Date: Fri Mar 25 15:43:22 CST 2022
User: usil
Spectrometer: V785-0024
Trigger mode: 0
Integration Time (sec): 4.000000E-1
Scans to average: 1
Nonlinearity correction enabled: false
Boxcar width: 0
Storing dark spectrum: false
XAxis mode: Wavelengths
Number of Pixels in Spectrum: 1024
>>>>>Begin Spectral Data<<<<<
801.071	29455
801.214	29345
801.356	29052
801.499	29159
801.641	29010
801.783	29018
801.926	28965
802.068	28965
802.211	28793
802.353	28786
802.496	28641
802.638	28630
802.78	28417
802.923	28424
803.065	28493
803.208	28512
803.35	28542
803.492	28611
803.635	28675
803.777	28622
803.919	28839
804.061	29006
804.204	28713
804.346	28721
804.488	28839
804.63	28531
804.773	28546
804.915	28664
805.057	28755
805.199	28763
805.341	28801
805.483	28854
805.626	28713
805.768	28698
805.91	28790
806.052	28839
806.194	28717
806.336	28934
806.478	28801
806.62	28733
806.762	28953
806.904	29151
807.046	29258
807.188	29292
807.33	29315
807.472	29326
807.614	29162
807.756	29083
807.898	29083
808.04	28820
808.182	28949
808.324	29010
808.465	28976
808.607	29033
808.749	29417
808.891	29448
809.033	29672
809.174	29497
809.316	29345
809.458	29322
809.6	29429
809.741	29493
809.883	29417
810.025	29668
810.166	29718
810.308	29680
810.45	29528
810.591	29596
810.733	29372
810.875	29402
811.016	29322
811.158	29151
811.299	29539
811.441	29524
811.582	29512
811.724	29410
811.865	29345
812.007	29410
812.148	29326
812.29	29463
812.431	29417
812.573	29501
812.714	29832
812.855	29809
812.997	29802
813.138	30136
813.279	29927
813.421	29893
813.562	29684
813.703	29653
813.845	29634
813.986	29132
814.127	29033
814.268	29086
814.41	29044
814.551	29029
814.692	29105
814.833	28946
814.974	28904
815.115	28942
815.256	28664
815.397	28854
815.539	28946
815.68	28812
815.821	28790
815.962	28748
816.103	28717
816.244	28580
816.385	28500
816.526	28417
816.666	28238
816.807	28192
816.948	28268
817.089	28310
817.23	28211
817.371	28173
817.512	28223
817.653	28013
817.793	28070
817.934	28105
818.075	28090
818.216	28139
818.356	28090
818.497	27968
818.638	27854
818.778	27918
818.919	27854
819.06	27926
819.2	27960
819.341	28120
819.481	28139
819.622	28257
819.762	28462
819.903	28428
820.043	28181
820.184	28306
820.324	28185
820.465	28268
820.605	28169
820.746	28177
820.886	27998
821.026	28173
821.167	28116
821.307	28230
821.447	28135
821.588	28006
821.728	27797
821.868	27720
822.008	27545
822.149	27473
822.289	27519
822.429	27203
822.569	27180
822.709	27055
822.849	26998
822.99	27005
823.13	26838
823.27	26944
823.41	26826
823.55	26632
823.69	26876
823.83	26838
823.97	26727
824.11	26560
824.25	26564
824.389	26412
824.529	26655
824.669	26533
824.809	26686
824.949	26697
825.089	26648
825.228	26537
825.368	26533
825.508	26473
825.648	26431
825.787	26419
825.927	26503
826.067	26389
826.206	26431
826.346	26541
826.485	26461
826.625	26362
826.765	26602
826.904	26434
827.044	26351
827.183	26256
827.323	25982
827.462	26180
827.601	26100
827.741	26096
827.88	26111
828.02	25986
828.159	25966
828.298	26031
828.437	26149
828.577	25989
828.716	26157
828.855	25993
828.994	25715
829.134	25814
829.273	25826
829.412	25632
829.551	25693
829.69	25624
829.829	25727
829.968	25776
830.107	25753
830.246	25841
830.385	25731
830.524	25681
830.663	25552
830.802	25578
830.941	25316
831.08	25217
831.219	25381
831.357	25441
831.496	25563
831.635	25282
831.774	25088
831.913	25206
832.051	25126
832.19	25057
832.329	25160
832.467	25023
832.606	24951
832.744	25015
832.883	24875
833.022	24875
833.16	24875
833.299	24970
833.437	24935
833.576	24951
833.714	24924
833.852	25057
833.991	24909
834.129	24958
834.267	25118
834.406	24992
834.544	24935
834.682	25012
834.821	24996
834.959	25027
835.097	24973
835.235	24875
835.373	24901
835.511	24798
835.65	24852
835.788	24772
835.926	24730
836.064	24517
836.202	24703
836.34	24867
836.478	24821
836.615	24791
836.753	24730
836.891	24829
837.029	24760
837.167	24783
837.305	24677
837.443	24597
837.58	24536
837.718	24738
837.856	24601
837.993	24502
838.131	24665
838.269	24384
838.406	24479
838.544	24399
838.681	24296
838.819	24152
838.956	24178
839.094	24022
839.231	24114
839.369	24133
839.506	24353
839.643	24266
839.781	24114
839.918	24049
840.055	23965
840.193	24038
840.33	23874
840.467	23958
840.604	24049
840.742	24327
840.879	23790
841.016	23840
841.153	23946
841.29	23996
841.427	23969
841.564	23973
841.701	23923
841.838	23764
841.975	23767
842.112	23878
842.249	23589
842.385	23699
842.522	23942
842.659	23672
842.796	23604
842.933	23657
843.069	23531
843.206	23440
843.343	23752
843.479	23619
843.616	23543
843.752	23334
843.889	23414
844.025	23638
844.162	23322
844.298	23391
844.435	23356
844.571	23288
844.708	23402
844.844	23490
844.98	23429
845.117	23467
845.253	23360
845.389	23136
845.525	23326
845.661	23162
845.798	23094
845.934	23143
846.07	23121
846.206	23136
846.342	23223
846.478	22995
846.614	22748
846.75	22615
846.886	22744
847.022	22850
847.158	22763
847.294	22782
847.429	22877
847.565	22725
847.701	22938
847.837	22634
847.972	22424
848.108	22615
848.244	22588
848.379	22413
848.515	22265
848.65	22280
848.786	22371
848.921	22367
849.057	22527
849.192	22421
849.328	22310
849.463	22219
849.598	22314
849.734	22265
849.869	22265
850.004	22109
850.14	22131
850.275	22013
850.41	22032
850.545	22013
850.68	22029
850.815	22192
850.95	22029
851.085	22322
851.22	22257
851.355	22185
851.49	21922
851.625	22006
851.76	22059
851.895	22154
852.03	22029
852.165	21998
852.299	22139
852.434	22055
852.569	22067
852.703	22055
852.838	22162
852.973	22219
853.107	22276
853.242	21937
853.376	21903
853.511	21739
853.645	21835
853.78	22051
853.914	21861
854.048	21850
854.183	21865
854.317	21926
854.451	22162
854.585	21892
854.72	21759
854.854	21884
854.988	21800
855.122	21892
855.256	21724
855.39	21789
855.524	21869
855.658	21823
855.792	21907
855.926	21922
856.06	21949
856.194	21983
856.327	21968
856.461	21903
856.595	21759
856.729	21816
856.862	21926
856.996	21941
857.13	21964
857.263	21960
857.397	21972
857.53	21899
857.664	21937
857.797	21941
857.931	22010
858.064	21865
858.197	22063
858.331	21857
858.464	21690
858.597	21819
858.731	21774
858.864	21865
858.997	21842
859.13	21854
859.263	21827
859.396	21903
859.529	21781
859.662	21724
859.795	21705
859.928	21781
860.061	21857
860.194	21945
860.327	21781
860.46	21823
860.592	21907
860.725	21888
860.858	21899
860.99	21778
861.123	21732
861.256	21766
861.388	21922
861.521	22516
861.653	21831
861.786	21583
861.918	21675
862.05	21797
862.183	21831
862.315	21854
862.447	21854
862.58	21850
862.712	21675
862.844	21542
862.976	21580
863.108	21545
863.24	21907
863.372	21386
863.504	21496
863.636	21363
863.768	21572
863.9	21606
864.032	21431
864.164	21408
864.296	21538
864.428	21606
864.559	21564
864.691	21519
864.823	21473
864.954	21530
865.086	21648
865.217	21332
865.349	21329
865.48	21431
865.612	21428
865.743	21504
865.875	21443
866.006	21264
866.137	21431
866.269	21386
866.4	21458
866.531	21431
866.662	21389
866.793	21332
866.924	21393
867.055	21344
867.186	21287
867.317	21325
867.448	21173
867.579	21176
867.71	21279
867.841	21176
867.972	21416
868.103	21363
868.233	21450
868.364	21169
868.495	21283
868.625	21587
868.756	21694
868.886	21393
869.017	21523
869.147	21682
869.278	21553
869.408	21591
869.539	21519
869.669	21660
869.799	21530
869.929	21694
870.06	21736
870.19	21918
870.32	21892
870.45	21861
870.58	21983
870.71	21968
870.84	22154
870.97	21926
871.1	22025
871.23	22025
871.36	22196
871.489	22093
871.619	22143
871.749	22162
871.879	22223
872.008	22242
872.138	22204
872.267	22154
872.397	22139
872.526	21953
872.656	21998
872.785	22063
872.915	22253
873.044	22333
873.173	22135
873.303	22200
873.432	22314
873.561	22390
873.69	22188
873.819	22162
873.948	22272
874.077	22173
874.206	22200
874.335	22265
874.464	22390
874.593	22466
874.722	22375
874.851	22348
874.979	22344
875.108	22375
875.237	22455
875.365	22265
875.494	22398
875.623	22462
875.751	22432
875.88	22481
876.008	22577
876.136	22508
876.265	22877
876.393	22961
876.521	22820
876.65	22923
876.778	22778
876.906	22927
877.034	22755
877.162	22729
877.29	22603
877.418	22759
877.546	22763
877.674	22889
877.802	22748
877.93	22801
878.058	22767
878.185	22668
878.313	22725
878.441	22782
878.568	22531
878.696	22774
878.824	22706
878.951	22866
879.079	22995
879.206	22881
879.333	22896
879.461	22774
879.588	22793
879.715	22946
879.842	23121
879.97	22885
880.097	22630
880.224	22512
880.351	22519
880.478	22599
880.605	22519
880.732	22580
880.859	22805
880.986	22698
881.112	22523
881.239	22409
881.366	22230
881.493	22253
881.619	22124
881.746	22128
881.872	22044
881.999	22280
882.125	22185
882.252	22219
882.378	22185
882.505	22280
882.631	22013
882.757	21876
882.883	22025
883.01	21869
883.136	21884
883.262	21850
883.388	21682
883.514	21880
883.64	21747
883.766	21835
883.892	21667
884.018	21633
884.143	21816
884.269	21941
884.395	21618
884.52	21515
884.646	21523
884.772	21386
884.897	21256
885.023	21530
885.148	21717
885.274	21603
885.399	21625
885.524	21549
885.65	21507
885.775	21545
885.9	21580
886.025	21614
886.15	21564
886.275	21401
886.4	21397
886.525	21401
886.65	21408
886.775	21515
886.9	21587
887.025	21728
887.149	21428
887.274	21245
887.399	21230
887.523	21249
887.648	21256
887.773	21123
887.897	21317
888.021	21211
888.146	21108
888.27	21424
888.395	21313
888.519	21184
888.643	21245
888.767	21199
888.891	21131
889.015	21112
889.139	21051
889.263	20952
889.387	21112
889.511	21275
889.635	21188
889.759	21058
889.883	20891
890.006	21058
890.13	21058
890.254	20986
890.377	20883
890.501	20773
890.624	20769
890.748	20777
890.871	20564
890.995	20526
891.118	20499
891.241	20712
891.364	20712
891.488	20670
891.611	20522
891.734	20545
891.857	20644
891.98	20568
892.103	20663
892.226	20518
892.349	20454
892.471	20381
892.594	20454
892.717	20518
892.839	20450
892.962	20377
893.085	20579
893.207	20537
893.33	20290
893.452	20423
893.575	20568
893.697	20415
893.819	20583
893.941	20708
894.064	20598
894.186	20450
894.308	20499
894.43	20621
894.552	20579
894.674	20579
894.796	20339
894.918	20415
895.04	20499
895.161	20454
895.283	20526
895.405	20518
895.526	20511
895.648	20495
895.769	20575
895.891	20503
896.012	20552
896.134	20575
896.255	20530
896.376	20537
896.498	20617
896.619	20473
896.74	20484
896.861	20503
896.982	20887
897.103	21013
897.224	20804
897.345	20712
897.466	20583
897.587	20754
897.708	20823
897.828	20777
897.949	20670
898.07	20549
898.19	20629
898.311	20743
898.431	20556
898.552	20663
898.672	20697
898.792	20788
898.913	20598
899.033	20568
899.153	20465
899.273	20366
899.393	20480
899.513	20408
899.633	20408
899.753	20427
899.873	20275
899.993	20423
900.113	20278
900.232	20309
900.352	20199
900.472	20267
900.591	20218
900.711	20278
900.83	20161
900.95	20199
901.069	20210
901.189	20092
901.308	19791
901.427	19750
901.546	19761
901.665	19696
901.784	19712
901.904	19586
902.023	19559
902.141	19217
902.26	19289
902.379	19304
902.498	19308
902.617	19088
902.735	19266
902.854	19179
902.973	19088
903.091	18882
903.21	18817
903.328	19042
903.446	18829
903.565	18669
903.683	18757
903.801	18604
903.919	18646
904.038	18646
904.156	18528
904.274	18452
904.392	18460
904.51	18566
904.627	18467
904.745	18460
904.863	18441
904.981	18239
905.098	18152
905.216	18117
905.334	18251
905.451	18174
905.569	18064
905.686	18194
905.803	18083
905.921	17950
906.038	18095
906.155	17954
906.272	17874
906.389	17847
906.506	17570
906.623	17551
906.74	17623
906.857	17497
906.974	17455
907.091	17707
907.208	17733
907.324	17627
907.441	17501
907.557	17417
907.674	17303
907.79	17277
907.907	17292
908.023	17315
908.139	17410
908.256	17258
908.372	17254
908.488	17277
908.604	17113
908.72	17022
908.836	17033
908.952	16877
909.068	16976
909.184	17037
909.3	16824
909.415	16972
909.531	16965
909.647	16782
909.762	16752
909.878	16706
909.993	16736
910.108	16641
910.224	16691
910.339	16675
910.454	16569
910.57	16500
910.685	16363
910.8	16660
910.915	16622
911.03	16538
911.145	16390
911.259	16390
911.374	16291
911.489	16204
911.604	16143
911.718	15994
911.833	15895
911.947	15903
912.062	15899
912.176	16116
912.291	15983
912.405	16162
912.519	16223
912.633	16173
912.748	16036
912.862	15972
912.976	15869
913.09	15770
913.204	15759
913.318	15739
913.431	15941
913.545	15869
913.659	15781
913.772	15838
913.886	15701
914	15576
914.113	15557
914.226	15819
914.34	15644
914.453	15443
914.566	15694
914.68	15553
914.793	15466
914.906	15260
915.019	15207
915.132	15222
915.245	15260
915.358	15207
915.47	15291
915.583	15188
915.696	15329
915.809	15313
915.921	15359
916.034	15119
916.146	15138
916.259	15100
916.371	15123
916.483	15252
916.595	15108
916.708	14990
916.82	15058
916.932	14929
917.044	14963
917.156	15028
917.268	14906
917.38	14887
917.491	14864
917.603	14952
917.715	14994
917.826	14895
917.938	14689
918.049	14735
918.161	14918
918.272	14914
918.384	14921
918.495	14868
918.606	14739
918.717	14583
918.828	14678
918.939	14636
919.05	14564
919.161	14560
919.272	14389
919.383	14495
919.494	14552
919.604	14849
919.715	14575
919.826	14450
919.936	14530
920.047	14712
920.157	14678
920.267	14724
920.378	14689
920.488	14518
920.598	14785
920.708	14819
920.818	14724
920.928	14743
921.038	14941
921.148	14754
921.258	14492
921.368	14454
921.477	14404
921.587	14259
921.697	14183
921.806	14244
921.916	14096
922.025	14039
922.134	14012
922.244	13940
922.353	14065
922.462	13852
922.571	13791
922.68	13594
922.789	13578
922.898	13681
923.007	13476
923.116	13643
923.224	13407
923.333	13525
923.442	13434
923.55	13422
923.659	13468
923.767	13422
923.876	13244
923.984	13407
924.092	13289
924.201	13350
924.309	13266
924.417	13358
924.525	13240
924.633	13213
924.741	14001
924.849	13008
924.956	13198
925.064	13027
925.172	12951
925.279	13031
925.387	12981
925.494	13050
925.602	13164
925.709	13000
925.816	12924
925.924	13012
926.031	13061
926.138	12897
926.245	12943
926.352	12814
926.459	13012
926.566	12981
926.673	12928
926.779	12730
926.886	12696
926.993	12673
927.099	12551
927.206	12604
927.312	12513
927.419	12589
927.525	12532
927.631	12597
927.737	12479
927.843	12441
927.95	12270
928.056	12357
928.162	12361
928.267	12437
928.373	13137
928.479	12342
928.585	12296
928.69	12346
928.796	12330
928.901	12247
929.007	12140
929.112	12178
929.218	12209
929.323	12136
929.428	12045
929.533	12235
929.638	11996
929.743	12106
929.848	12117
929.953	11969
930.058	11961
930.163	11767
930.267	11802
930.372	11984
930.477	11775
930.581	11988
930.685	11859
930.79	11627
930.894	11710
930.998	11657
931.103	11726
931.207	11330
931.311	11345
931.415	11273
931.519	11037
931.623	10968
