Data from test_V78500241_1871.txt Node
Date: Fri Mar 25 15:54:45 CST 2022
User: usil
Spectrometer: V785-0024
Trigger mode: 0
Integration Time (sec): 4.000000E-1
Scans to average: 1
Nonlinearity correction enabled: false
Boxcar width: 0
Storing dark spectrum: false
XAxis mode: Wavelengths
Number of Pixels in Spectrum: 1024
>>>>>Begin Spectral Data<<<<<
801.071	28774
801.214	28793
801.356	28409
801.499	28512
801.641	28413
801.783	28261
801.926	28436
802.068	28375
802.211	28295
802.353	28287
802.496	28025
802.638	28002
802.78	28013
802.923	27907
803.065	27964
803.208	27956
803.35	28025
803.492	28276
803.635	28299
803.777	28128
803.919	28265
804.061	28603
804.204	28215
804.346	28249
804.488	28303
804.63	28329
804.773	28310
804.915	28139
805.057	28413
805.199	28322
805.341	28310
805.483	28413
805.626	28466
805.768	28291
805.91	28466
806.052	28478
806.194	28318
806.336	28489
806.478	28474
806.62	28466
806.762	28611
806.904	28710
807.046	28850
807.188	28835
807.33	28949
807.472	28915
807.614	28847
807.756	28927
807.898	28824
808.04	28774
808.182	28683
808.324	28645
808.465	28778
808.607	28965
808.749	29261
808.891	29071
809.033	29273
809.174	29227
809.316	29033
809.458	29128
809.6	28999
809.741	29239
809.883	29360
810.025	29440
810.166	29562
810.308	29239
810.45	29436
810.591	29337
810.733	29136
810.875	29216
811.016	28987
811.158	28938
811.299	29174
811.441	29265
811.582	29197
811.724	29204
811.865	29121
812.007	29022
812.148	29067
812.29	29204
812.431	29360
812.573	29463
812.714	29516
812.855	29733
812.997	29737
813.138	29878
813.279	29855
813.421	29573
813.562	29615
813.703	29543
813.845	29406
813.986	29109
814.127	29067
814.268	28805
814.41	28828
814.551	28793
814.692	28812
814.833	28774
814.974	28691
815.115	29003
815.256	28596
815.397	28774
815.539	28759
815.68	28653
815.821	28554
815.962	28588
816.103	28565
816.244	28489
816.385	28455
816.526	28341
816.666	28158
816.807	28185
816.948	28128
817.089	28177
817.23	28112
817.371	28306
817.512	28128
817.653	28166
817.793	28097
817.934	28078
818.075	28192
818.216	28166
818.356	28067
818.497	28067
818.638	28029
818.778	27823
818.919	27922
819.06	27930
819.2	28124
819.341	28192
819.481	28055
819.622	28424
819.762	28542
819.903	28405
820.043	28341
820.184	28284
820.324	28249
820.465	28500
820.605	28322
820.746	28295
820.886	28063
821.026	28322
821.167	28249
821.307	28295
821.447	28211
821.588	28032
821.728	27968
821.868	27884
822.008	27747
822.149	27835
822.289	27736
822.429	27355
822.569	27325
822.709	27374
822.849	27195
822.99	27169
823.13	27062
823.27	27264
823.41	27017
823.55	26811
823.69	26899
823.83	26944
823.97	26929
824.11	26800
824.25	26762
824.389	26891
824.529	27032
824.669	26716
824.809	26918
824.949	26960
825.089	26804
825.228	26826
825.368	26678
825.508	26750
825.648	26823
825.787	26765
825.927	26769
826.067	26499
826.206	26701
826.346	26621
826.485	26743
826.625	26773
826.765	26800
826.904	26716
827.044	26507
827.183	26602
827.323	26419
827.462	26366
827.601	26461
827.741	26434
827.88	26298
828.02	26396
828.159	26324
828.298	26442
828.437	26389
828.577	26286
828.716	26495
828.855	26328
828.994	25928
829.134	26065
829.273	26073
829.412	25921
829.551	26016
829.69	26180
829.829	26046
829.968	26096
830.107	26164
830.246	26062
830.385	25951
830.524	25936
830.663	25845
830.802	25788
830.941	25693
831.08	25712
831.219	25814
831.357	25620
831.496	25951
831.635	25624
831.774	25635
831.913	25537
832.051	25529
832.19	25388
832.329	25651
832.467	25495
832.606	25285
832.744	25232
832.883	25289
833.022	25335
833.16	25293
833.299	25331
833.437	25430
833.576	25396
833.714	25327
833.852	25396
833.991	25479
834.129	25362
834.267	25434
834.406	25358
834.544	25392
834.682	25403
834.821	25270
834.959	25632
835.097	25266
835.235	25533
835.373	25472
835.511	25308
835.65	25221
835.788	25278
835.926	25133
836.064	25152
836.202	25050
836.34	25164
836.478	25384
836.615	25327
836.753	25061
836.891	25304
837.029	25392
837.167	25156
837.305	24966
837.443	25148
837.58	24909
837.718	25061
837.856	25137
837.993	25065
838.131	25088
838.269	24981
838.406	25027
838.544	24859
838.681	24798
838.819	24589
838.956	24665
839.094	24540
839.231	24582
839.369	24684
839.506	24962
839.643	24776
839.781	24517
839.918	24582
840.055	24536
840.193	24350
840.33	24509
840.467	24570
840.604	24448
840.742	24616
840.879	24323
841.016	24239
841.153	24239
841.29	24479
841.427	24479
841.564	24498
841.701	24323
841.838	24350
841.975	24330
842.112	24194
842.249	24266
842.385	24205
842.522	24536
842.659	24251
842.796	24232
842.933	24300
843.069	24064
843.206	24178
843.343	24258
843.479	24087
843.616	24140
843.752	23950
843.889	23973
844.025	24034
844.162	23939
844.298	24079
844.435	24041
844.571	23847
844.708	23973
844.844	24076
844.98	24011
845.117	24079
845.253	23961
845.389	23748
845.525	23802
845.661	23798
845.798	23729
845.934	23764
846.07	23779
846.206	23722
846.342	23828
846.478	23653
846.614	23524
846.75	23490
846.886	23440
847.022	23474
847.158	23459
847.294	23653
847.429	23463
847.565	23360
847.701	23661
847.837	23124
847.972	23174
848.108	23124
848.244	23220
848.379	22995
848.515	22999
848.65	23033
848.786	22869
848.921	23060
849.057	23014
849.192	23060
849.328	23025
849.463	23025
849.598	23033
849.734	22790
849.869	22809
850.004	22736
850.14	22790
850.275	22915
850.41	22778
850.545	22672
850.68	22729
850.815	22744
850.95	22687
851.085	22862
851.22	22866
851.355	22793
851.49	22649
851.625	22740
851.76	22687
851.895	22679
852.03	22694
852.165	22801
852.299	22694
852.434	22904
852.569	22839
852.703	22675
852.838	22759
852.973	22949
853.107	22839
853.242	22835
853.376	22607
853.511	22470
853.645	22527
853.78	22611
853.914	22565
854.048	22554
854.183	22462
854.317	22645
854.451	22683
854.585	22546
854.72	22443
854.854	22664
854.988	22478
855.122	22702
855.256	22535
855.39	22485
855.524	22565
855.658	22596
855.792	22618
855.926	22668
856.06	22729
856.194	22615
856.327	22607
856.461	22512
856.595	22478
856.729	22481
856.862	22744
856.996	22519
857.13	22634
857.263	22660
857.397	22740
857.53	22516
857.664	22618
857.797	22626
857.931	22778
858.064	22588
858.197	22752
858.331	22508
858.464	22577
858.597	22363
858.731	22565
858.864	22402
858.997	22615
859.13	22622
859.263	22611
859.396	22649
859.529	22512
859.662	22519
859.795	22512
859.928	22569
860.061	22812
860.194	22698
860.327	22653
860.46	22645
860.592	22733
860.725	22828
860.858	22698
860.99	22641
861.123	22417
861.256	22546
861.388	22557
861.521	23414
861.653	22474
861.786	22367
861.918	22512
862.05	22447
862.183	22527
862.315	22519
862.447	22474
862.58	22546
862.712	22249
862.844	22325
862.976	22310
863.108	22295
863.24	22793
863.372	22299
863.504	22253
863.636	22367
863.768	22375
863.9	22329
864.032	22196
864.164	22215
864.296	22287
864.428	22375
864.559	22344
864.691	22440
864.823	22192
864.954	22284
865.086	22150
865.217	22143
865.349	22036
865.48	22166
865.612	22147
865.743	22318
865.875	22257
866.006	22109
866.137	22150
866.269	22063
866.4	22101
866.531	22029
866.662	22025
866.793	22158
866.924	22078
867.055	22135
867.186	22055
867.317	22090
867.448	21960
867.579	21998
867.71	21873
867.841	21998
867.972	22044
868.103	22105
868.233	22112
868.364	22051
868.495	22090
868.625	22268
868.756	22481
868.886	22230
869.017	22440
869.147	22421
869.278	22440
869.408	22246
869.539	22261
869.669	22466
869.799	22360
869.929	22398
870.06	22382
870.19	22626
870.32	22577
870.45	22637
870.58	22782
870.71	22889
870.84	22881
870.97	22645
871.1	22847
871.23	22923
871.36	22961
871.489	22850
871.619	22862
871.749	22873
871.879	23037
872.008	23086
872.138	22957
872.267	22953
872.397	22812
872.526	22854
872.656	22797
872.785	22774
872.915	22957
873.044	22987
873.173	22961
873.303	22999
873.432	23022
873.561	23083
873.69	22976
873.819	22843
873.948	23117
874.077	22949
874.206	22831
874.335	22942
874.464	22991
874.593	23239
874.722	23083
874.851	23307
874.979	23151
875.108	23246
875.237	23155
875.365	22995
875.494	23075
875.623	23162
875.751	23128
875.88	23280
876.008	23379
876.136	23258
876.265	23649
876.393	23630
876.521	23703
876.65	23604
876.778	23516
876.906	23524
877.034	23436
877.162	23478
877.29	23600
877.418	23562
877.546	23528
877.674	23425
877.802	23410
877.93	23539
878.058	23482
878.185	23292
878.313	23383
878.441	23509
878.568	23292
878.696	23482
878.824	23531
878.951	23535
879.079	23638
879.206	23699
879.333	23642
879.461	23509
879.588	23577
879.715	23592
879.842	23687
879.97	23570
880.097	23356
880.224	23296
880.351	23455
880.478	23364
880.605	23258
880.732	23311
880.859	23444
880.986	23322
881.112	23368
881.239	23147
881.366	23079
881.493	23109
881.619	22771
881.746	22790
881.872	22801
881.999	22831
882.125	22736
882.252	22942
882.378	22812
882.505	23044
882.631	22679
882.757	22634
882.883	22550
883.01	22462
883.136	22542
883.262	22424
883.388	22440
883.514	22592
883.64	22462
883.766	22489
883.892	22394
884.018	22409
884.143	22466
884.269	22535
884.395	22287
884.52	22139
884.646	22196
884.772	22082
884.897	22082
885.023	22128
885.148	22310
885.274	22310
885.399	22253
885.524	22261
885.65	22086
885.775	22219
885.9	22078
886.025	22268
886.15	22314
886.275	22143
886.4	22120
886.525	22070
886.65	22109
886.775	22051
886.9	22379
887.025	22390
887.149	22166
887.274	21960
887.399	21983
887.523	21937
887.648	21873
887.773	21895
887.897	21892
888.021	21987
888.146	21861
888.27	22021
888.395	21998
888.519	21907
888.643	22029
888.767	22013
888.891	21876
889.015	21644
889.139	21797
889.263	21747
889.387	21915
889.511	21941
889.635	21869
889.759	21663
889.883	21663
890.006	21800
890.13	21831
890.254	21542
890.377	21610
890.501	21416
890.624	21408
890.748	21519
890.871	21291
890.995	21230
891.118	21173
891.241	21294
891.364	21329
891.488	21272
891.611	21294
891.734	21382
891.857	21416
891.98	21329
892.103	21268
892.226	21275
892.349	21188
892.471	21039
892.594	21116
892.717	21275
892.839	21173
892.962	21218
893.085	21241
893.207	21123
893.33	21100
893.452	21047
893.575	21173
893.697	21154
893.819	21386
893.941	21249
894.064	21195
894.186	21119
894.308	21047
894.43	21146
894.552	21275
894.674	21211
894.796	21043
894.918	21214
895.04	21100
895.161	21142
895.283	21252
895.405	21127
895.526	21146
895.648	21146
895.769	21256
895.891	21245
896.012	21203
896.134	21047
896.255	21123
896.376	21085
896.498	21096
896.619	21268
896.74	21093
896.861	21256
896.982	21405
897.103	21622
897.224	21386
897.345	21340
897.466	21325
897.587	21428
897.708	21401
897.828	21336
897.949	21294
898.07	21112
898.19	21298
898.311	21302
898.431	21192
898.552	21256
898.672	21526
898.792	21332
898.913	21355
899.033	21245
899.153	21138
899.273	20948
899.393	21009
899.513	21154
899.633	21119
899.753	21157
899.873	20956
899.993	20998
900.113	20941
900.232	20918
900.352	21062
900.472	20853
900.591	20834
900.711	20792
900.83	20731
900.95	20830
901.069	20876
901.189	20743
901.308	20537
901.427	20377
901.546	20415
901.665	20309
901.784	20530
901.904	20317
902.023	20138
902.141	20046
902.26	19963
902.379	19868
902.498	19913
902.617	19871
902.735	19928
902.854	19811
902.973	19902
903.091	19518
903.21	19525
903.328	19582
903.446	19445
903.565	19396
903.683	19430
903.801	19282
903.919	19274
904.038	19206
904.156	19065
904.274	19164
904.392	19175
904.51	19148
904.627	19065
904.745	19069
904.863	19114
904.981	19004
905.098	18757
905.216	18798
905.334	18901
905.451	18779
905.569	18776
905.686	18871
905.803	18707
905.921	18525
906.038	18650
906.155	18658
906.272	18464
906.389	18502
906.506	18266
906.623	18353
906.74	18243
906.857	18243
906.974	18232
907.091	18350
907.208	18437
907.324	18433
907.441	18186
907.557	18057
907.674	18060
907.79	17984
907.907	18026
908.023	17950
908.139	17996
908.256	17977
908.372	17920
908.488	17965
908.604	17729
908.72	17722
908.836	17771
908.952	17775
909.068	17813
909.184	17855
909.3	17760
909.415	17786
909.531	17649
909.647	17482
909.762	17463
909.878	17425
909.993	17341
910.108	17429
910.224	17402
910.339	17360
910.454	17383
910.57	17220
910.685	17136
910.8	17516
910.915	17417
911.03	17345
911.145	17018
911.259	17022
911.374	16961
911.489	16911
911.604	16980
911.718	16824
911.833	16687
911.947	16649
912.062	16626
912.176	16721
912.291	16790
912.405	16748
912.519	16968
912.633	17052
912.748	16721
912.862	16721
912.976	16653
913.09	16531
913.204	16493
913.318	16584
913.431	16592
913.545	16599
913.659	16603
913.772	16493
913.886	16341
914	16367
914.113	16417
914.226	16497
914.34	16436
914.453	16265
914.566	16451
914.68	16238
914.793	16303
914.906	16040
915.019	15968
915.132	15838
915.245	16002
915.358	15979
915.47	15861
915.583	15880
915.696	15960
915.809	16188
915.921	16074
916.034	15922
916.146	15755
916.259	15804
916.371	15953
916.483	15819
916.595	15846
916.708	15675
916.82	15827
916.932	15686
917.044	15656
917.156	15606
917.268	15568
917.38	15564
917.491	15599
917.603	15648
917.715	15644
917.826	15606
917.938	15553
918.049	15428
918.161	15477
918.272	15644
918.384	15610
918.495	15534
918.606	15313
918.717	15325
918.828	15264
918.939	15469
919.05	15203
919.161	15294
919.272	15039
919.383	15154
919.494	15367
919.604	15530
919.715	15317
919.826	15089
919.936	15173
920.047	15389
920.157	15348
920.267	15393
920.378	15245
920.488	15184
920.598	15405
920.708	15557
920.818	15412
920.928	15359
921.038	15545
921.148	15526
921.258	15252
921.368	15127
921.477	15039
921.587	15009
921.697	14811
921.806	14975
921.916	14807
922.025	14648
922.134	14632
922.244	14583
922.353	14621
922.462	14476
922.571	14484
922.68	14290
922.789	14248
922.898	14229
923.007	14271
923.116	14195
923.224	14244
923.333	14218
923.442	14050
923.55	14050
923.659	14084
923.767	14145
923.876	13940
923.984	14119
924.092	14035
924.201	14024
924.309	14031
924.417	13947
924.525	13883
924.633	13887
924.741	14674
924.849	13674
924.956	13769
925.064	13696
925.172	13651
925.279	13594
925.387	13670
925.494	13578
925.602	13818
925.709	13666
925.816	13502
925.924	13510
926.031	13685
926.138	13514
926.245	13666
926.352	13426
926.459	13582
926.566	13616
926.673	13441
926.779	13411
926.886	13434
926.993	13202
927.099	13274
927.206	13171
927.312	13050
927.419	13168
927.525	13209
927.631	13247
927.737	13084
927.843	13088
927.95	12878
928.056	13012
928.162	12970
928.267	13133
928.373	13597
928.479	13031
928.585	12840
928.69	12878
928.796	12947
928.901	12859
929.007	12673
929.112	12768
929.218	12856
929.323	12688
929.428	12658
929.533	12810
929.638	12631
929.743	12703
929.848	12642
929.953	12684
930.058	12570
930.163	12418
930.267	12372
930.372	12471
930.477	12330
930.581	12509
930.685	12391
930.79	12167
930.894	12209
930.998	12224
931.103	12327
931.207	11984
931.311	12011
931.415	11790
931.519	11638
931.623	11573
