Data from test_V78500241_3471.txt Node
Date: Fri Mar 25 16:05:50 CST 2022
User: usil
Spectrometer: V785-0024
Trigger mode: 0
Integration Time (sec): 4.000000E-1
Scans to average: 1
Nonlinearity correction enabled: false
Boxcar width: 0
Storing dark spectrum: false
XAxis mode: Wavelengths
Number of Pixels in Spectrum: 1024
>>>>>Begin Spectral Data<<<<<
801.071	28991
801.214	28987
801.356	28767
801.499	28733
801.641	28577
801.783	28546
801.926	28763
802.068	28622
802.211	28706
802.353	28516
802.496	28363
802.638	28424
802.78	28405
802.923	28215
803.065	28200
803.208	28306
803.35	28352
803.492	28394
803.635	28672
803.777	28527
803.919	28634
804.061	28869
804.204	28626
804.346	28516
804.488	28573
804.63	28516
804.773	28535
804.915	28691
805.057	28740
805.199	28535
805.341	28824
805.483	28759
805.626	28691
805.768	28664
805.91	28721
806.052	28774
806.194	28733
806.336	28911
806.478	28820
806.62	28725
806.762	28953
806.904	29090
807.046	29330
807.188	29200
807.33	29258
807.472	29322
807.614	29010
807.756	29277
807.898	29155
808.04	29162
808.182	29094
808.324	29197
808.465	29212
808.607	29455
808.749	29341
808.891	29600
809.033	29562
809.174	29581
809.316	29490
809.458	29543
809.6	29448
809.741	29436
809.883	29699
810.025	29729
810.166	29817
810.308	29809
810.45	29764
810.591	29665
810.733	29535
810.875	29501
811.016	29524
811.158	29497
811.299	29577
811.441	29649
811.582	29638
811.724	29687
811.865	29493
812.007	29436
812.148	29497
812.29	29547
812.431	29623
812.573	29950
812.714	29882
812.855	29977
812.997	30182
813.138	30239
813.279	30144
813.421	30030
813.562	29950
813.703	29733
813.845	29882
813.986	29395
814.127	29277
814.268	29185
814.41	29235
814.551	29330
814.692	29147
814.833	29181
814.974	29151
815.115	29273
815.256	29151
815.397	29102
815.539	29136
815.68	28923
815.821	29014
815.962	29018
816.103	29029
816.244	28904
816.385	28862
816.526	28725
816.666	28596
816.807	28538
816.948	28630
817.089	28672
817.23	28634
817.371	28542
817.512	28588
817.653	28653
817.793	28523
817.934	28569
818.075	28592
818.216	28615
818.356	28599
818.497	28360
818.638	28253
818.778	28284
818.919	28337
819.06	28356
819.2	28379
819.341	28577
819.481	28504
819.622	28748
819.762	28915
819.903	28694
820.043	28812
820.184	28820
820.324	28615
820.465	28896
820.605	28660
820.746	28675
820.886	28516
821.026	28740
821.167	28634
821.307	28839
821.447	28615
821.588	28626
821.728	28265
821.868	28226
822.008	28010
822.149	28051
822.289	28021
822.429	27778
822.569	27705
822.709	27701
822.849	27481
822.99	27595
823.13	27545
823.27	27656
823.41	27504
823.55	27169
823.69	27397
823.83	27424
823.97	27408
824.11	27062
824.25	27104
824.389	27203
824.529	27222
824.669	27294
824.809	27359
824.949	27256
825.089	27249
825.228	27157
825.368	27055
825.508	27123
825.648	27195
825.787	27226
825.927	27317
826.067	27001
826.206	27127
826.346	27165
826.485	27085
826.625	27157
826.765	27112
826.904	27165
827.044	26845
827.183	26921
827.323	26921
827.462	27043
827.601	26876
827.741	26864
827.88	26868
828.02	26655
828.159	26754
828.298	26769
828.437	26914
828.577	26815
828.716	26944
828.855	26788
828.994	26583
829.134	26503
829.273	26533
829.412	26533
829.551	26446
829.69	26362
829.829	26495
829.968	26583
830.107	26492
830.246	26446
830.385	26377
830.524	26533
830.663	26313
830.802	26214
830.941	26043
831.08	26134
831.219	26225
831.357	26271
831.496	26267
831.635	26157
831.774	26035
831.913	25966
832.051	25925
832.19	25925
832.329	25921
832.467	25845
832.606	25837
832.744	25753
832.883	25757
833.022	25616
833.16	25799
833.299	25871
833.437	25860
833.576	25780
833.714	25837
833.852	25833
833.991	25928
834.129	26005
834.267	25936
834.406	25966
834.544	25917
834.682	25795
834.821	25883
834.959	25982
835.097	25849
835.235	25712
835.373	25807
835.511	25921
835.65	25818
835.788	25731
835.926	25525
836.064	25590
836.202	25620
836.34	25590
836.478	25670
836.615	25571
836.753	25750
836.891	25799
837.029	25780
837.167	25548
837.305	25567
837.443	25491
837.58	25491
837.718	25651
837.856	25518
837.993	25613
838.131	25445
838.269	25441
838.406	25453
838.544	25232
838.681	25126
838.819	25114
838.956	25046
839.094	24954
839.231	24863
839.369	25198
839.506	25324
839.643	25095
839.781	24989
839.918	24791
840.055	24878
840.193	24882
840.33	24795
840.467	24806
840.604	24905
840.742	25099
840.879	24772
841.016	24764
841.153	24814
841.29	25031
841.427	24741
841.564	24920
841.701	24924
841.838	24802
841.975	24726
842.112	24779
842.249	24631
842.385	24627
842.522	24901
842.659	24711
842.796	24536
842.933	24631
843.069	24582
843.206	24513
843.343	24745
843.479	24616
843.616	24677
843.752	24334
843.889	24281
844.025	24593
844.162	24296
844.298	24414
844.435	24414
844.571	24357
844.708	24433
844.844	24612
844.98	24601
845.117	24544
845.253	24292
845.389	24247
845.525	24289
845.661	24266
845.798	24049
845.934	24117
846.07	24178
846.206	24182
846.342	24270
846.478	24190
846.614	23950
846.75	23828
846.886	23767
847.022	23889
847.158	23999
847.294	23863
847.429	23874
847.565	23783
847.701	24053
847.837	23627
847.972	23642
848.108	23657
848.244	23661
848.379	23493
848.515	23433
848.65	23337
848.786	23474
848.921	23452
849.057	23623
849.192	23505
849.328	23524
849.463	23391
849.598	23391
849.734	23360
849.869	23216
850.004	23223
850.14	23299
850.275	23159
850.41	23162
850.545	23143
850.68	23143
850.815	23246
850.95	23162
851.085	23452
851.22	23414
851.355	23265
851.49	23250
851.625	23303
851.76	23231
851.895	23029
852.03	23162
852.165	23117
852.299	23254
852.434	23288
852.569	23288
852.703	23197
852.838	23284
852.973	23303
853.107	23349
853.242	23018
853.376	23128
853.511	22881
853.645	22915
853.78	23102
853.914	23006
854.048	22938
854.183	22930
854.317	23109
854.451	23052
854.585	23037
854.72	23022
854.854	23048
854.988	23029
855.122	23044
855.256	22831
855.39	22946
855.524	23052
855.658	23064
855.792	23090
855.926	22946
856.06	23041
856.194	23109
856.327	23037
856.461	23033
856.595	22904
856.729	22972
856.862	23136
856.996	23083
857.13	23083
857.263	23200
857.397	23113
857.53	23102
857.664	23086
857.797	23022
857.931	23105
858.064	22972
858.197	23147
858.331	23033
858.464	22919
858.597	22938
858.731	22968
858.864	22972
858.997	23006
859.13	23075
859.263	23041
859.396	23048
859.529	22938
859.662	22946
859.795	22896
859.928	22961
860.061	23181
860.194	23292
860.327	23025
860.46	23056
860.592	23121
860.725	23273
860.858	23136
860.99	23056
861.123	23060
861.256	23014
861.388	23086
861.521	23589
861.653	22850
861.786	22790
861.918	22908
862.05	22793
862.183	22953
862.315	23067
862.447	23018
862.58	22934
862.712	22733
862.844	22691
862.976	22763
863.108	22744
863.24	23246
863.372	22599
863.504	22771
863.636	22672
863.768	22679
863.9	22763
864.032	22573
864.164	22649
864.296	22767
864.428	22839
864.559	22584
864.691	22755
864.823	22706
864.954	22618
865.086	22687
865.217	22584
865.349	22577
865.48	22569
865.612	22538
865.743	22691
865.875	22580
866.006	22599
866.137	22577
866.269	22615
866.4	22683
866.531	22504
866.662	22440
866.793	22481
866.924	22557
867.055	22607
867.186	22637
867.317	22523
867.448	22421
867.579	22360
867.71	22440
867.841	22474
867.972	22523
868.103	22363
868.233	22554
868.364	22634
868.495	22527
868.625	22691
868.756	22816
868.886	22588
869.017	22736
869.147	22816
869.278	22767
869.408	22748
869.539	22744
869.669	22694
869.799	22748
869.929	22843
870.06	22793
870.19	23189
870.32	22923
870.45	23094
870.58	23086
870.71	23216
870.84	23379
870.97	23037
871.1	23193
871.23	23395
871.36	23334
871.489	23280
871.619	23265
871.749	23372
871.879	23315
872.008	23471
872.138	23318
872.267	23292
872.397	23174
872.526	23166
872.656	23143
872.785	23204
872.915	23376
873.044	23459
873.173	23414
873.303	23478
873.432	23398
873.561	23531
873.69	23398
873.819	23220
873.948	23364
874.077	23535
874.206	23200
874.335	23307
874.464	23444
874.593	23600
874.722	23562
874.851	23615
874.979	23684
875.108	23554
875.237	23543
875.365	23440
875.494	23543
875.623	23490
875.751	23608
875.88	23672
876.008	23600
876.136	23760
876.265	23904
876.393	24129
876.521	23954
876.65	24091
876.778	24087
876.906	23904
877.034	23904
877.162	23893
877.29	23794
877.418	23805
877.546	23958
877.674	23931
877.802	23969
877.93	23847
878.058	23859
878.185	23786
878.313	23847
878.441	23798
878.568	23783
878.696	23802
878.824	23961
878.951	23958
879.079	24098
879.206	24228
879.333	23996
879.461	24053
879.588	24079
879.715	24106
879.842	24266
879.97	23996
880.097	23764
880.224	23802
880.351	23748
880.478	23783
880.605	23581
880.732	23684
880.859	23992
880.986	23851
881.112	23790
881.239	23543
881.366	23433
881.493	23478
881.619	23353
881.746	23455
881.872	23296
881.999	23246
882.125	23151
882.252	23311
882.378	23223
882.505	23341
882.631	23189
882.757	22999
882.883	23037
883.01	22987
883.136	22991
883.262	22946
883.388	22850
883.514	22896
883.64	22999
883.766	22892
883.892	22668
884.018	22736
884.143	22904
884.269	22961
884.395	22588
884.52	22554
884.646	22527
884.772	22447
884.897	22455
885.023	22573
885.148	22698
885.274	22687
885.399	22740
885.524	22531
885.65	22615
885.775	22603
885.9	22546
886.025	22717
886.15	22683
886.275	22500
886.4	22497
886.525	22656
886.65	22478
886.775	22611
886.9	22664
887.025	22778
887.149	22489
887.274	22322
887.399	22143
887.523	22333
887.648	22234
887.773	22322
887.897	22390
888.021	22413
888.146	22207
888.27	22390
888.395	22413
888.519	22394
888.643	22443
888.767	22356
888.891	22291
889.015	22055
889.139	22166
889.263	22128
889.387	22314
889.511	22341
889.635	22291
889.759	22017
889.883	21979
890.006	22090
890.13	22101
890.254	21994
890.377	22010
890.501	21797
890.624	21762
890.748	21964
890.871	21652
890.995	21614
891.118	21610
891.241	21671
891.364	21675
891.488	21785
891.611	21629
891.734	21759
891.857	21793
891.98	21633
892.103	21762
892.226	21682
892.349	21549
892.471	21504
892.594	21709
892.717	21477
892.839	21462
892.962	21549
893.085	21610
893.207	21500
893.33	21496
893.452	21454
893.575	21462
893.697	21412
893.819	21656
893.941	21732
894.064	21644
894.186	21625
894.308	21393
894.43	21504
894.552	21705
894.674	21523
894.796	21435
894.918	21511
895.04	21500
895.161	21618
895.283	21564
895.405	21443
895.526	21439
895.648	21431
895.769	21439
895.891	21504
896.012	21606
896.134	21583
896.255	21534
896.376	21542
896.498	21386
896.619	21549
896.74	21477
896.861	21561
896.982	21846
897.103	21956
897.224	21701
897.345	21724
897.466	21732
897.587	21690
897.708	21827
897.828	21812
897.949	21724
898.07	21534
898.19	21599
898.311	21789
898.431	21724
898.552	21739
898.672	21671
898.792	21732
898.913	21675
899.033	21663
899.153	21599
899.273	21237
899.393	21466
899.513	21420
899.633	21386
899.753	21424
899.873	21348
899.993	21424
900.113	21488
900.232	21401
900.352	21325
900.472	21138
900.591	21157
900.711	21256
900.83	21203
900.95	21279
901.069	21329
901.189	21009
901.308	20777
901.427	20693
901.546	20785
901.665	20701
901.784	20629
901.904	20469
902.023	20518
902.141	20210
902.26	20229
902.379	20328
902.498	20237
902.617	20191
902.735	20237
902.854	20172
902.973	20172
903.091	19989
903.21	19841
903.328	19902
903.446	19807
903.565	19719
903.683	19704
903.801	19563
903.919	19658
904.038	19655
904.156	19434
904.274	19559
904.392	19384
904.51	19415
904.627	19506
904.745	19415
904.863	19426
904.981	19198
905.098	19103
905.216	19148
905.334	19190
905.451	19183
905.569	19114
905.686	19122
905.803	19072
905.921	18947
906.038	18932
906.155	18905
906.272	18757
906.389	18825
906.506	18650
906.623	18681
906.74	18715
906.857	18513
906.974	18509
907.091	18791
907.208	18730
907.324	18677
907.441	18506
907.557	18365
907.674	18452
907.79	18346
907.907	18391
908.023	18369
908.139	18323
908.256	18308
908.372	18213
908.488	18129
908.604	18030
908.72	18041
908.836	18133
908.952	18095
909.068	18117
909.184	18152
909.3	18155
909.415	17988
909.531	18034
909.647	17726
909.762	17756
909.878	17745
909.993	17817
910.108	17745
910.224	17714
910.339	17767
910.454	17615
910.57	17524
910.685	17478
910.8	17699
910.915	17627
911.03	17604
911.145	17353
911.259	17391
911.374	17334
911.489	17193
911.604	17185
911.718	17052
911.833	17064
911.947	16953
912.062	16923
912.176	17140
912.291	17086
912.405	16953
912.519	17246
912.633	17235
912.748	17102
912.862	16995
912.976	16889
913.09	16744
913.204	16809
913.318	16911
913.431	17033
913.545	16957
913.659	16881
913.772	16835
913.886	16694
914	16672
914.113	16858
914.226	16801
914.34	16660
914.453	16577
914.566	16725
914.68	16535
914.793	16443
914.906	16223
915.019	16253
915.132	16166
915.245	16177
915.358	16219
915.47	16131
915.583	16268
915.696	16223
915.809	16329
915.921	16394
916.034	16120
916.146	16067
916.259	16173
916.371	16169
916.483	16150
916.595	16029
916.708	15987
916.82	16082
916.932	16051
917.044	16006
917.156	16032
917.268	15804
917.38	15903
917.491	15759
917.603	15812
917.715	15903
917.826	15994
917.938	15675
918.049	15557
918.161	15724
918.272	15838
918.384	15899
918.495	15743
918.606	15584
918.717	15633
918.828	15553
918.939	15641
919.05	15523
919.161	15519
919.272	15374
919.383	15408
919.494	15561
919.604	15629
919.715	15485
919.826	15416
919.936	15374
920.047	15576
920.157	15469
920.267	15663
920.378	15526
920.488	15545
920.598	15610
920.708	15838
920.818	15682
920.928	15652
921.038	15679
921.148	15743
921.258	15477
921.368	15412
921.477	15214
921.587	15199
921.697	15100
921.806	15226
921.916	15104
922.025	14838
922.134	14902
922.244	14758
922.353	14826
922.462	14716
922.571	14644
922.68	14571
922.789	14579
922.898	14560
923.007	14499
923.116	14522
923.224	14480
923.333	14408
923.442	14374
923.55	14328
923.659	14309
923.767	14355
923.876	14123
923.984	14305
924.092	14161
924.201	14317
924.309	14233
924.417	14180
924.525	14096
924.633	14138
924.741	14948
924.849	13955
924.956	14046
925.064	13944
925.172	13814
925.279	13833
925.387	13951
925.494	13795
925.602	13970
925.709	13871
925.816	13696
925.924	13765
926.031	13887
926.138	13700
926.245	13894
926.352	13666
926.459	13868
926.566	13879
926.673	13651
926.779	13594
926.886	13639
926.993	13476
927.099	13384
927.206	13422
927.312	13324
927.419	13476
927.525	13373
927.631	13506
927.737	13335
927.843	13266
927.95	13152
928.056	13221
928.162	13194
928.267	13206
928.373	13864
928.479	13206
928.585	13031
928.69	13152
928.796	13129
928.901	13126
929.007	12928
929.112	13107
929.218	13046
929.323	12909
929.428	12928
929.533	13031
929.638	12882
929.743	12871
929.848	12844
929.953	12867
930.058	12753
930.163	12483
930.267	12570
930.372	12726
930.477	12608
930.581	12859
930.685	12601
930.79	12452
930.894	12479
930.998	12365
931.103	12578
931.207	12266
931.311	12155
931.415	12015
931.519	11809
931.623	11851
