Data from test_V78500241_2116.txt Node
Date: Fri Mar 25 15:56:27 CST 2022
User: usil
Spectrometer: V785-0024
Trigger mode: 0
Integration Time (sec): 4.000000E-1
Scans to average: 1
Nonlinearity correction enabled: false
Boxcar width: 0
Storing dark spectrum: false
XAxis mode: Wavelengths
Number of Pixels in Spectrum: 1024
>>>>>Begin Spectral Data<<<<<
801.071	28862
801.214	28911
801.356	28611
801.499	28565
801.641	28664
801.783	28550
801.926	28550
802.068	28599
802.211	28466
802.353	28356
802.496	28238
802.638	28131
802.78	28280
802.923	28112
803.065	28219
803.208	28090
803.35	28215
803.492	28333
803.635	28451
803.777	28314
803.919	28538
804.061	28774
804.204	28440
804.346	28440
804.488	28318
804.63	28481
804.773	28352
804.915	28535
805.057	28611
805.199	28440
805.341	28550
805.483	28740
805.626	28546
805.768	28546
805.91	28443
806.052	28653
806.194	28542
806.336	28790
806.478	28683
806.62	28713
806.762	28809
806.904	28968
807.046	29033
807.188	28911
807.33	29083
807.472	29166
807.614	28995
807.756	29022
807.898	28816
808.04	29003
808.182	28888
808.324	29025
808.465	29098
808.607	29159
808.749	29349
808.891	29471
809.033	29402
809.174	29379
809.316	29375
809.458	29322
809.6	29273
809.741	29444
809.883	29505
810.025	29619
810.166	29646
810.308	29558
810.45	29551
810.591	29516
810.733	29250
810.875	29448
811.016	29212
811.158	29277
811.299	29433
811.441	29570
811.582	29486
811.724	29474
811.865	29360
812.007	29227
812.148	29402
812.29	29383
812.431	29596
812.573	29703
812.714	29779
812.855	29775
812.997	30038
813.138	30049
813.279	29882
813.421	29927
813.562	29733
813.703	29748
813.845	29509
813.986	29402
814.127	29254
814.268	29060
814.41	29105
814.551	29037
814.692	29079
814.833	29044
814.974	29003
815.115	29128
815.256	28923
815.397	28820
815.539	28919
815.68	28774
815.821	28812
815.962	28904
816.103	28862
816.244	28774
816.385	28603
816.526	28630
816.666	28329
816.807	28481
816.948	28527
817.089	28401
817.23	28337
817.371	28386
817.512	28344
817.653	28219
817.793	28341
817.934	28360
818.075	28352
818.216	28344
818.356	28295
818.497	28177
818.638	28013
818.778	28112
818.919	28143
819.06	28135
819.2	28291
819.341	28409
819.481	28325
819.622	28432
819.762	28618
819.903	28694
820.043	28599
820.184	28531
820.324	28618
820.465	28436
820.605	28561
820.746	28527
820.886	28246
821.026	28554
821.167	28485
821.307	28519
821.447	28485
821.588	28329
821.728	28166
821.868	28010
822.008	27797
822.149	27899
822.289	27827
822.429	27618
822.569	27553
822.709	27713
822.849	27515
822.99	27363
823.13	27340
823.27	27230
823.41	27138
823.55	27104
823.69	27173
823.83	27241
823.97	27184
824.11	26925
824.25	26925
824.389	27135
824.529	27096
824.669	26979
824.809	27127
824.949	27207
825.089	27165
825.228	27214
825.368	26933
825.508	26750
825.648	26986
825.787	27047
825.927	26963
826.067	26883
826.206	26883
826.346	26937
826.485	27017
826.625	26838
826.765	27020
826.904	26960
827.044	26640
827.183	26758
827.323	26549
827.462	26727
827.601	26701
827.741	26556
827.88	26602
828.02	26476
828.159	26625
828.298	26571
828.437	26785
828.577	26537
828.716	26655
828.855	26518
828.994	26221
829.134	26317
829.273	26374
829.412	26252
829.551	26149
829.69	26256
829.829	26317
829.968	26412
830.107	26298
830.246	26324
830.385	26294
830.524	26259
830.663	26035
830.802	25986
830.941	26024
831.08	25795
831.219	25951
831.357	25928
831.496	26119
831.635	25776
831.774	25917
831.913	25795
832.051	25616
832.19	25674
832.329	25753
832.467	25685
832.606	25597
832.744	25548
832.883	25514
833.022	25655
833.16	25453
833.299	25578
833.437	25670
833.576	25616
833.714	25647
833.852	25780
833.991	25639
834.129	25731
834.267	25761
834.406	25578
834.544	25685
834.682	25643
834.821	25514
834.959	25693
835.097	25525
835.235	25628
835.373	25666
835.511	25556
835.65	25419
835.788	25483
835.926	25381
836.064	25225
836.202	25396
836.34	25476
836.478	25647
836.615	25251
836.753	25464
836.891	25514
837.029	25403
837.167	25339
837.305	25403
837.443	25400
837.58	25289
837.718	25354
837.856	25312
837.993	25293
838.131	25202
838.269	25228
838.406	25274
838.544	25133
838.681	24989
838.819	24795
838.956	24696
839.094	24810
839.231	24768
839.369	24916
839.506	25126
839.643	24951
839.781	24829
839.918	24646
840.055	24825
840.193	24593
840.33	24684
840.467	24810
840.604	24646
840.742	24878
840.879	24532
841.016	24601
841.153	24559
841.29	24692
841.427	24646
841.564	24585
841.701	24669
841.838	24544
841.975	24475
842.112	24574
842.249	24357
842.385	24388
842.522	24540
842.659	24460
842.796	24448
842.933	24490
843.069	24388
843.206	24426
843.343	24460
843.479	24376
843.616	24448
843.752	24194
843.889	24144
844.025	24350
844.162	24197
844.298	24270
844.435	24121
844.571	24121
844.708	24289
844.844	24289
844.98	24281
845.117	24228
845.253	24026
845.389	23939
845.525	24026
845.661	23965
845.798	23984
845.934	23889
846.07	23901
846.206	23965
846.342	24022
846.478	23809
846.614	23600
846.75	23699
846.886	23566
847.022	23718
847.158	23729
847.294	23718
847.429	23707
847.565	23684
847.701	23885
847.837	23493
847.972	23429
848.108	23493
848.244	23345
848.379	23296
848.515	23216
848.65	23204
848.786	23280
848.921	23170
849.057	23326
849.192	23254
849.328	23334
849.463	23212
849.598	23185
849.734	23197
849.869	23159
850.004	23079
850.14	22999
850.275	23048
850.41	23022
850.545	22927
850.68	22946
850.815	23071
850.95	22889
851.085	23162
851.22	23094
851.355	22927
851.49	22927
851.625	23003
851.76	22946
851.895	22835
852.03	22885
852.165	23056
852.299	22991
852.434	23052
852.569	22991
852.703	23006
852.838	22984
852.973	23178
853.107	23223
853.242	22889
853.376	22790
853.511	22615
853.645	22752
853.78	22877
853.914	22767
854.048	22748
854.183	22759
854.317	22717
854.451	22991
854.585	22736
854.72	22759
854.854	22904
854.988	22694
855.122	22725
855.256	22713
855.39	22797
855.524	22847
855.658	22748
855.792	22767
855.926	22889
856.06	22717
856.194	22771
856.327	22820
856.461	22725
856.595	22691
856.729	22752
856.862	22748
856.996	22698
857.13	22843
857.263	22919
857.397	22904
857.53	22706
857.664	22706
857.797	23006
857.931	22831
858.064	22812
858.197	22835
858.331	22752
858.464	22691
858.597	22569
858.731	22664
858.864	22702
858.997	22771
859.13	22774
859.263	22801
859.396	22854
859.529	22664
859.662	22805
859.795	22831
859.928	22736
860.061	22854
860.194	22889
860.327	22828
860.46	22729
860.592	22816
860.725	22786
860.858	22869
860.99	22889
861.123	22740
861.256	22622
861.388	22801
861.521	23436
861.653	22717
861.786	22565
861.918	22611
862.05	22584
862.183	22622
862.315	22713
862.447	22748
862.58	22752
862.712	22481
862.844	22394
862.976	22599
863.108	22546
863.24	22828
863.372	22462
863.504	22603
863.636	22322
863.768	22512
863.9	22550
864.032	22485
864.164	22428
864.296	22497
864.428	22542
864.559	22565
864.691	22512
864.823	22337
864.954	22394
865.086	22447
865.217	22382
865.349	22314
865.48	22325
865.612	22344
865.743	22588
865.875	22379
866.006	22428
866.137	22459
866.269	22356
866.4	22390
866.531	22223
866.662	22246
866.793	22295
866.924	22268
867.055	22291
867.186	22440
867.317	22329
867.448	22196
867.579	22226
867.71	22318
867.841	22181
867.972	22371
868.103	22261
868.233	22268
868.364	22196
868.495	22371
868.625	22432
868.756	22603
868.886	22390
869.017	22607
869.147	22645
869.278	22615
869.408	22569
869.539	22535
869.669	22611
869.799	22519
869.929	22649
870.06	22531
870.19	22820
870.32	22774
870.45	22949
870.58	22927
870.71	22923
870.84	23044
870.97	22957
871.1	22843
871.23	23094
871.36	23151
871.489	22984
871.619	23029
871.749	23140
871.879	23197
872.008	23284
872.138	23174
872.267	23117
872.397	23018
872.526	23014
872.656	22877
872.785	22984
872.915	23151
873.044	23197
873.173	23197
873.303	23056
873.432	23280
873.561	23227
873.69	23090
873.819	23128
873.948	23178
874.077	23151
874.206	23155
874.335	23185
874.464	23326
874.593	23322
874.722	23356
874.851	23417
874.979	23376
875.108	23440
875.237	23261
875.365	23311
875.494	23216
875.623	23353
875.751	23395
875.88	23334
876.008	23421
876.136	23570
876.265	23729
876.393	23779
876.521	23764
876.65	23695
876.778	23775
876.906	23634
877.034	23699
877.162	23843
877.29	23589
877.418	23653
877.546	23630
877.674	23691
877.802	23703
877.93	23589
878.058	23707
878.185	23570
878.313	23649
878.441	23695
878.568	23570
878.696	23657
878.824	23684
878.951	23737
879.079	23813
879.206	23992
879.333	23817
879.461	23726
879.588	23680
879.715	23878
879.842	23923
879.97	23611
880.097	23535
880.224	23505
880.351	23562
880.478	23608
880.605	23467
880.732	23558
880.859	23630
880.986	23531
881.112	23497
881.239	23387
881.366	23147
881.493	23128
881.619	23010
881.746	23067
881.872	23056
881.999	23102
882.125	22976
882.252	23060
882.378	23155
882.505	23132
882.631	22946
882.757	22729
882.883	22847
883.01	22717
883.136	22790
883.262	22611
883.388	22557
883.514	22710
883.64	22824
883.766	22694
883.892	22565
884.018	22531
884.143	22729
884.269	22721
884.395	22386
884.52	22382
884.646	22466
884.772	22284
884.897	22242
885.023	22371
885.148	22485
885.274	22481
885.399	22470
885.524	22295
885.65	22306
885.775	22371
885.9	22150
886.025	22485
886.15	22432
886.275	22371
886.4	22223
886.525	22196
886.65	22280
886.775	22310
886.9	22379
887.025	22535
887.149	22363
887.274	22173
887.399	22261
887.523	22101
887.648	22097
887.773	22032
887.897	22185
888.021	22093
888.146	22006
888.27	22226
888.395	22253
888.519	21994
888.643	22097
888.767	22143
888.891	22013
889.015	21960
889.139	21854
889.263	21800
889.387	21960
889.511	22067
889.635	22063
889.759	21838
889.883	21941
890.006	21892
890.13	22059
890.254	21728
890.377	21835
890.501	21717
890.624	21690
890.748	21770
890.871	21504
890.995	21500
891.118	21348
891.241	21389
891.364	21431
891.488	21431
891.611	21408
891.734	21481
891.857	21614
891.98	21477
892.103	21614
892.226	21485
892.349	21355
892.471	21283
892.594	21393
892.717	21401
892.839	21279
892.962	21313
893.085	21408
893.207	21431
893.33	21173
893.452	21283
893.575	21405
893.697	21268
893.819	21576
893.941	21458
894.064	21481
894.186	21161
894.308	21256
894.43	21382
894.552	21325
894.674	21359
894.796	21188
894.918	21329
895.04	21241
895.161	21526
895.283	21344
895.405	21321
895.526	21214
895.648	21154
895.769	21450
895.891	21306
896.012	21534
896.134	21222
896.255	21424
896.376	21313
896.498	21298
896.619	21363
896.74	21275
896.861	21325
896.982	21500
897.103	21747
897.224	21530
897.345	21618
897.466	21504
897.587	21507
897.708	21610
897.828	21412
897.949	21473
898.07	21233
898.19	21504
898.311	21473
898.431	21397
898.552	21534
898.672	21698
898.792	21587
898.913	21530
899.033	21389
899.153	21264
899.273	21093
899.393	21146
899.513	21214
899.633	21135
899.753	21302
899.873	21096
899.993	21260
900.113	21203
900.232	21180
900.352	21207
900.472	21157
900.591	20826
900.711	21051
900.83	20956
900.95	21017
901.069	21051
901.189	20891
901.308	20617
901.427	20526
901.546	20621
901.665	20621
901.784	20629
901.904	20374
902.023	20317
902.141	20176
902.26	20058
902.379	20134
902.498	20138
902.617	20062
902.735	20161
902.854	20024
902.973	19890
903.091	19674
903.21	19719
903.328	19696
903.446	19681
903.565	19616
903.683	19457
903.801	19373
903.919	19403
904.038	19419
904.156	19221
904.274	19255
904.392	19289
904.51	19263
904.627	19293
904.745	19255
904.863	19343
904.981	19156
905.098	18932
905.216	18863
905.334	18954
905.451	18878
905.569	18962
905.686	19095
905.803	18943
905.921	18639
906.038	18833
906.155	18776
906.272	18521
906.389	18684
906.506	18563
906.623	18426
906.74	18490
906.857	18315
906.974	18273
907.091	18498
907.208	18574
907.324	18513
907.441	18342
907.557	18182
907.674	18281
907.79	18022
907.907	18102
908.023	18262
908.139	18136
908.256	18068
908.372	18026
908.488	18129
908.604	17912
908.72	17832
908.836	17863
908.952	17863
909.068	17843
909.184	17920
909.3	17840
909.415	17901
909.531	17802
909.647	17543
909.762	17661
909.878	17524
909.993	17539
910.108	17676
910.224	17493
910.339	17627
910.454	17368
910.57	17383
910.685	17277
910.8	17630
910.915	17524
911.03	17478
911.145	17178
911.259	17140
911.374	17086
911.489	17037
911.604	16995
911.718	16919
911.833	16908
911.947	16744
912.062	16630
912.176	16885
912.291	16885
912.405	16881
912.519	17083
912.633	17083
912.748	16869
912.862	16854
912.976	16752
913.09	16645
913.204	16691
913.318	16733
913.431	16809
913.545	16778
913.659	16725
913.772	16645
913.886	16512
914	16478
914.113	16470
914.226	16523
914.34	16504
914.453	16344
914.566	16470
914.68	16424
914.793	16337
914.906	16223
915.019	15979
915.132	16029
915.245	16071
915.358	16109
915.47	16074
915.583	15998
915.696	16032
915.809	16124
915.921	16162
916.034	15907
916.146	15983
916.259	15926
916.371	16082
916.483	16093
916.595	15876
916.708	15953
916.82	15869
916.932	15850
917.044	15789
917.156	15759
917.268	15701
917.38	15800
917.491	15686
917.603	15739
917.715	15762
917.826	15728
917.938	15553
918.049	15572
918.161	15614
918.272	15724
918.384	15743
918.495	15595
918.606	15549
918.717	15348
918.828	15504
918.939	15450
919.05	15298
919.161	15424
919.272	15199
919.383	15260
919.494	15389
919.604	15610
919.715	15348
919.826	15302
919.936	15306
920.047	15473
920.157	15268
920.267	15458
920.378	15416
920.488	15336
920.598	15511
920.708	15618
920.818	15507
920.928	15542
921.038	15553
921.148	15633
921.258	15256
921.368	15211
921.477	15005
921.587	15108
921.697	14918
921.806	15138
921.916	14864
922.025	14769
922.134	14815
922.244	14712
922.353	14773
922.462	14568
922.571	14488
922.68	14423
922.789	14347
922.898	14454
923.007	14202
923.116	14434
923.224	14377
923.333	14385
923.442	14161
923.55	14183
923.659	14199
923.767	14142
923.876	14126
923.984	14168
924.092	14119
924.201	14111
924.309	14039
924.417	14016
924.525	13856
924.633	13955
924.741	14670
924.849	13791
924.956	13940
925.064	13693
925.172	13647
925.279	13723
925.387	13670
925.494	13700
925.602	13849
925.709	13731
925.816	13632
925.924	13605
926.031	13719
926.138	13693
926.245	13784
926.352	13514
926.459	13715
926.566	13719
926.673	13544
926.779	13460
926.886	13464
926.993	13403
927.099	13289
927.206	13259
927.312	13213
927.419	13255
927.525	13270
927.631	13308
927.737	13091
927.843	13084
927.95	13008
928.056	13057
928.162	13065
928.267	13099
928.373	13723
928.479	13061
928.585	12932
928.69	13057
928.796	13053
928.901	12943
929.007	12730
929.112	12863
929.218	12833
929.323	12825
929.428	12757
929.533	12886
929.638	12741
929.743	12677
929.848	12734
929.953	12669
930.058	12601
930.163	12521
930.267	12422
930.372	12532
930.477	12380
930.581	12608
930.685	12475
930.79	12327
930.894	12330
930.998	12213
931.103	12437
931.207	12079
931.311	11973
931.415	11901
931.519	11707
931.623	11646
