Data from test_V78500241_3247.txt Node
Date: Fri Mar 25 16:04:17 CST 2022
User: usil
Spectrometer: V785-0024
Trigger mode: 0
Integration Time (sec): 4.000000E-1
Scans to average: 1
Nonlinearity correction enabled: false
Boxcar width: 0
Storing dark spectrum: false
XAxis mode: Wavelengths
Number of Pixels in Spectrum: 1024
>>>>>Begin Spectral Data<<<<<
801.071	28771
801.214	28774
801.356	28607
801.499	28729
801.641	28276
801.783	28440
801.926	28440
802.068	28447
802.211	28325
802.353	28428
802.496	28169
802.638	28158
802.78	28169
802.923	28169
803.065	28040
803.208	28139
803.35	28242
803.492	28284
803.635	28272
803.777	28257
803.919	28466
804.061	28634
804.204	28584
804.346	28401
804.488	28417
804.63	28462
804.773	28162
804.915	28497
805.057	28500
805.199	28398
805.341	28451
805.483	28740
805.626	28527
805.768	28424
805.91	28447
806.052	28641
806.194	28447
806.336	28698
806.478	28440
806.62	28519
806.762	28668
806.904	28839
807.046	28896
807.188	29113
807.33	29037
807.472	29189
807.614	28976
807.756	28877
807.898	28869
808.04	28736
808.182	28755
808.324	28927
808.465	28942
808.607	29140
808.749	29280
808.891	29417
809.033	29436
809.174	29311
809.316	29151
809.458	29155
809.6	29280
809.741	29261
809.883	29383
810.025	29444
810.166	29577
810.308	29554
810.45	29531
810.591	29615
810.733	29364
810.875	29307
811.016	29269
811.158	29208
811.299	29318
811.441	29482
811.582	29474
811.724	29239
811.865	29299
812.007	29212
812.148	29273
812.29	29379
812.431	29429
812.573	29665
812.714	29843
812.855	29817
812.997	29931
813.138	30018
813.279	29950
813.421	29764
813.562	29805
813.703	29520
813.845	29448
813.986	29349
814.127	29102
814.268	28862
814.41	29025
814.551	28991
814.692	29052
814.833	29044
814.974	28991
815.115	28919
815.256	28923
815.397	28888
815.539	28938
815.68	28774
815.821	28736
815.962	28801
816.103	28828
816.244	28694
816.385	28546
816.526	28531
816.666	28417
816.807	28299
816.948	28299
817.089	28386
817.23	28337
817.371	28382
817.512	28234
817.653	28322
817.793	28314
817.934	28390
818.075	28310
818.216	28196
818.356	28284
818.497	28109
818.638	28109
818.778	28135
818.919	28105
819.06	28181
819.2	28219
819.341	28379
819.481	28265
819.622	28512
819.762	28675
819.903	28710
820.043	28538
820.184	28542
820.324	28344
820.465	28413
820.605	28390
820.746	28546
820.886	28211
821.026	28470
821.167	28310
821.307	28390
821.447	28295
821.588	28280
821.728	28128
821.868	27895
822.008	27789
822.149	27789
822.289	27922
822.429	27488
822.569	27427
822.709	27450
822.849	27382
822.99	27458
823.13	27317
823.27	27359
823.41	26967
823.55	26982
823.69	27180
823.83	27173
823.97	27036
824.11	26937
824.25	26895
824.389	26902
824.529	26948
824.669	26815
824.809	27138
824.949	26979
825.089	26994
825.228	26937
825.368	26811
825.508	26895
825.648	26914
825.787	26895
825.927	27020
826.067	26830
826.206	26861
826.346	26921
826.485	26800
826.625	26861
826.765	27043
826.904	26929
827.044	26705
827.183	26590
827.323	26598
827.462	26579
827.601	26587
827.741	26602
827.88	26568
828.02	26530
828.159	26552
828.298	26450
828.437	26495
828.577	26575
828.716	26568
828.855	26488
828.994	26267
829.134	26225
829.273	26286
829.412	26336
829.551	26161
829.69	26240
829.829	26221
829.968	26427
830.107	26278
830.246	26168
830.385	26134
830.524	26111
830.663	26001
830.802	26043
830.941	25921
831.08	25795
831.219	25814
831.357	25925
831.496	26202
831.635	25868
831.774	25818
831.913	25803
832.051	25548
832.19	25685
832.329	25537
832.467	25472
832.606	25525
832.744	25479
832.883	25381
833.022	25369
833.16	25468
833.299	25643
833.437	25582
833.576	25719
833.714	25578
833.852	25795
833.991	25548
834.129	25590
834.267	25632
834.406	25571
834.544	25403
834.682	25578
834.821	25499
834.959	25772
835.097	25514
835.235	25670
835.373	25578
835.511	25548
835.65	25384
835.788	25578
835.926	25400
836.064	25240
836.202	25304
836.34	25457
836.478	25529
836.615	25464
836.753	25559
836.891	25544
837.029	25392
837.167	25259
837.305	25145
837.443	25171
837.58	25225
837.718	25301
837.856	25426
837.993	25251
838.131	25213
838.269	25160
838.406	25289
838.544	25038
838.681	24939
838.819	24901
838.956	24783
839.094	24597
839.231	24688
839.369	24913
839.506	25084
839.643	24981
839.781	24696
839.918	24715
840.055	24566
840.193	24696
840.33	24578
840.467	24570
840.604	24612
840.742	24852
840.879	24426
841.016	24517
841.153	24604
841.29	24700
841.427	24513
841.564	24597
841.701	24525
841.838	24471
841.975	24536
842.112	24445
842.249	24350
842.385	24365
842.522	24475
842.659	24498
842.796	24395
842.933	24426
843.069	24426
843.206	24467
843.343	24437
843.479	24384
843.616	24467
843.752	24247
843.889	24174
844.025	24197
844.162	24060
844.298	24155
844.435	24087
844.571	24057
844.708	24216
844.844	24216
844.98	24445
845.117	24155
845.253	24079
845.389	23916
845.525	23999
845.661	23958
845.798	23897
845.934	23885
846.07	23874
846.206	23817
846.342	23893
846.478	23752
846.614	23600
846.75	23436
846.886	23672
847.022	23619
847.158	23672
847.294	23490
847.429	23570
847.565	23585
847.701	23851
847.837	23383
847.972	23223
848.108	23436
848.244	23467
848.379	23254
848.515	23048
848.65	23174
848.786	23143
848.921	23231
849.057	23227
849.192	23284
849.328	23220
849.463	23044
849.598	23162
849.734	23094
849.869	23006
850.004	22946
850.14	23022
850.275	22965
850.41	22824
850.545	22866
850.68	22877
850.815	22972
850.95	22896
851.085	23143
851.22	23170
851.355	22961
851.49	22847
851.625	22755
851.76	22816
851.895	22752
852.03	22953
852.165	22984
852.299	23029
852.434	22991
852.569	23029
852.703	22953
852.838	22961
852.973	23174
853.107	23071
853.242	22771
853.376	22668
853.511	22656
853.645	22923
853.78	22858
853.914	22771
854.048	22885
854.183	22809
854.317	22736
854.451	23025
854.585	22790
854.72	22733
854.854	22835
854.988	22752
855.122	22843
855.256	22634
855.39	22740
855.524	22904
855.658	22721
855.792	22721
855.926	22748
856.06	22828
856.194	22900
856.327	22839
856.461	22713
856.595	22805
856.729	22710
856.862	22847
856.996	22847
857.13	22858
857.263	22805
857.397	22965
857.53	22793
857.664	22831
857.797	22881
857.931	22809
858.064	22706
858.197	22904
858.331	22660
858.464	22721
858.597	22641
858.731	22729
858.864	22896
858.997	22725
859.13	22797
859.263	22847
859.396	22949
859.529	22698
859.662	22763
859.795	22710
859.928	22816
860.061	22919
860.194	22892
860.327	22755
860.46	22767
860.592	22949
860.725	22873
860.858	22869
860.99	22763
861.123	22668
861.256	22725
861.388	22854
861.521	23516
861.653	22660
861.786	22519
861.918	22535
862.05	22873
862.183	22774
862.315	22831
862.447	22767
862.58	22645
862.712	22497
862.844	22531
862.976	22573
863.108	22542
863.24	22885
863.372	22459
863.504	22561
863.636	22421
863.768	22462
863.9	22432
864.032	22337
864.164	22428
864.296	22557
864.428	22462
864.559	22596
864.691	22592
864.823	22474
864.954	22451
865.086	22455
865.217	22356
865.349	22207
865.48	22447
865.612	22333
865.743	22538
865.875	22382
866.006	22371
866.137	22356
866.269	22276
866.4	22390
866.531	22310
866.662	22143
866.793	22322
866.924	22249
867.055	22386
867.186	22284
867.317	22268
867.448	22196
867.579	22207
867.71	22120
867.841	22230
867.972	22276
868.103	22200
868.233	22318
868.364	22382
868.495	22337
868.625	22478
868.756	22599
868.886	22474
869.017	22493
869.147	22542
869.278	22626
869.408	22542
869.539	22466
869.669	22462
869.799	22508
869.929	22710
870.06	22694
870.19	22809
870.32	22790
870.45	22778
870.58	22843
870.71	23018
870.84	23109
870.97	22987
871.1	22919
871.23	23037
871.36	23166
871.489	22930
871.619	23102
871.749	23178
871.879	23189
872.008	23216
872.138	23250
872.267	23079
872.397	23090
872.526	23014
872.656	23041
872.785	23083
872.915	23170
873.044	23239
873.173	23216
873.303	23094
873.432	23277
873.561	23193
873.69	23151
873.819	23227
873.948	23185
874.077	23170
874.206	23159
874.335	23113
874.464	23265
874.593	23425
874.722	23391
874.851	23478
874.979	23410
875.108	23471
875.237	23330
875.365	23239
875.494	23250
875.623	23478
875.751	23280
875.88	23337
876.008	23512
876.136	23455
876.265	23726
876.393	23821
876.521	23805
876.65	23832
876.778	23756
876.906	23714
877.034	23615
877.162	23703
877.29	23756
877.418	23695
877.546	23596
877.674	23771
877.802	23638
877.93	23775
878.058	23653
878.185	23630
878.313	23551
878.441	23627
878.568	23566
878.696	23554
878.824	23634
878.951	23748
879.079	23767
879.206	23904
879.333	23847
879.461	23828
879.588	23843
879.715	23779
879.842	23931
879.97	23767
880.097	23516
880.224	23493
880.351	23478
880.478	23554
880.605	23573
880.732	23490
880.859	23710
880.986	23604
881.112	23543
881.239	23383
881.366	23258
881.493	23200
881.619	23105
881.746	23079
881.872	23143
881.999	23079
882.125	22991
882.252	22942
882.378	22965
882.505	23208
882.631	22812
882.757	22786
882.883	22839
883.01	22679
883.136	22809
883.262	22721
883.388	22618
883.514	22713
883.64	22885
883.766	22698
883.892	22546
884.018	22622
884.143	22596
884.269	22812
884.395	22390
884.52	22421
884.646	22314
884.772	22268
884.897	22196
885.023	22360
885.148	22542
885.274	22554
885.399	22405
885.524	22417
885.65	22402
885.775	22440
885.9	22314
886.025	22527
886.15	22512
886.275	22314
886.4	22276
886.525	22318
886.65	22226
886.775	22322
886.9	22413
887.025	22462
887.149	22310
887.274	22154
887.399	22109
887.523	22101
887.648	22044
887.773	22051
887.897	22025
888.021	22055
888.146	22112
888.27	22120
888.395	22219
888.519	22017
888.643	22131
888.767	22246
888.891	22055
889.015	22067
889.139	21983
889.263	21831
889.387	21949
889.511	22086
889.635	21994
889.759	22017
889.883	21861
890.006	21865
890.13	21975
890.254	21953
890.377	21831
890.501	21648
890.624	21587
890.748	21762
890.871	21545
890.995	21580
891.118	21454
891.241	21511
891.364	21496
891.488	21576
891.611	21420
891.734	21485
891.857	21504
891.98	21542
892.103	21450
892.226	21473
892.349	21431
892.471	21180
892.594	21431
892.717	21435
892.839	21393
892.962	21454
893.085	21370
893.207	21294
893.33	21310
893.452	21264
893.575	21294
893.697	21317
893.819	21545
893.941	21473
894.064	21420
894.186	21283
894.308	21127
894.43	21443
894.552	21329
894.674	21428
894.796	21005
894.918	21226
895.04	21207
895.161	21393
895.283	21458
895.405	21192
895.526	21344
895.648	21230
895.769	21389
895.891	21397
896.012	21431
896.134	21272
896.255	21294
896.376	21382
896.498	21241
896.619	21348
896.74	21272
896.861	21412
896.982	21625
897.103	21728
897.224	21553
897.345	21416
897.466	21317
897.587	21454
897.708	21610
897.828	21591
897.949	21507
898.07	21317
898.19	21424
898.311	21500
898.431	21443
898.552	21401
898.672	21641
898.792	21561
898.913	21401
899.033	21523
899.153	21332
899.273	21211
899.393	21207
899.513	21325
899.633	21230
899.753	21192
899.873	21039
899.993	21313
900.113	21180
900.232	21154
900.352	21112
900.472	21081
900.591	20975
900.711	20895
900.83	20902
900.95	21100
901.069	21081
901.189	20895
901.308	20606
901.427	20629
901.546	20537
901.665	20530
901.784	20560
901.904	20381
902.023	20282
902.141	20191
902.26	20027
902.379	20199
902.498	20126
902.617	19906
902.735	20206
902.854	19993
902.973	20024
903.091	19757
903.21	19620
903.328	19601
903.446	19514
903.565	19544
903.683	19472
903.801	19506
903.919	19514
904.038	19411
904.156	19316
904.274	19403
904.392	19225
904.51	19179
904.627	19232
904.745	19377
904.863	19358
904.981	19050
905.098	18924
905.216	18890
905.334	19012
905.451	18973
905.569	18943
905.686	18996
905.803	19057
905.921	18623
906.038	18810
906.155	18745
906.272	18612
906.389	18635
906.506	18456
906.623	18494
906.74	18528
906.857	18216
906.974	18388
907.091	18506
907.208	18574
907.324	18525
907.441	18365
907.557	18155
907.674	18148
907.79	18079
907.907	18178
908.023	18254
908.139	18224
908.256	17988
908.372	18049
908.488	18076
908.604	17843
908.72	17916
908.836	17840
908.952	17908
909.068	17916
909.184	17946
909.3	17882
909.415	17843
909.531	17870
909.647	17604
909.762	17562
909.878	17581
909.993	17596
910.108	17562
910.224	17585
910.339	17539
910.454	17372
910.57	17395
910.685	17337
910.8	17474
910.915	17646
911.03	17364
911.145	17197
911.259	17109
911.374	17227
911.489	17045
911.604	17060
911.718	16946
911.833	16915
911.947	16793
912.062	16706
912.176	16904
912.291	16854
912.405	16816
912.519	17090
912.633	17029
912.748	16911
912.862	16923
912.976	16668
913.09	16565
913.204	16710
913.318	16626
913.431	16786
913.545	16641
913.659	16828
913.772	16615
913.886	16535
914	16554
914.113	16592
914.226	16565
914.34	16516
914.453	16284
914.566	16512
914.68	16375
914.793	16360
914.906	16128
915.019	16063
915.132	16044
915.245	16143
915.358	16090
915.47	15945
915.583	16002
915.696	16051
915.809	16051
915.921	16181
916.034	16044
916.146	15869
916.259	15918
916.371	16051
916.483	16101
916.595	15869
916.708	15895
916.82	15846
916.932	15842
917.044	15739
917.156	15686
917.268	15633
917.38	15606
917.491	15587
917.603	15701
917.715	15819
917.826	15751
917.938	15580
918.049	15515
918.161	15641
918.272	15774
918.384	15755
918.495	15576
918.606	15447
918.717	15389
918.828	15310
918.939	15504
919.05	15310
919.161	15420
919.272	15249
919.383	15256
919.494	15389
919.604	15545
919.715	15370
919.826	15287
919.936	15313
920.047	15332
920.157	15256
920.267	15591
920.378	15340
920.488	15233
920.598	15530
920.708	15599
920.818	15469
920.928	15523
921.038	15648
921.148	15595
921.258	15310
921.368	15222
921.477	15024
921.587	15047
921.697	15009
921.806	15104
921.916	14918
922.025	14800
922.134	14697
922.244	14670
922.353	14769
922.462	14587
922.571	14438
922.68	14370
922.789	14450
922.898	14320
923.007	14313
923.116	14434
923.224	14294
923.333	14282
923.442	14176
923.55	14142
923.659	14119
923.767	14263
923.876	14088
923.984	14111
924.092	14024
924.201	13982
924.309	14050
924.417	14031
924.525	13959
924.633	14016
924.741	14762
924.849	13685
924.956	13917
925.064	13826
925.172	13556
925.279	13719
925.387	13742
925.494	13742
925.602	13852
925.709	13753
925.816	13658
925.924	13746
926.031	13700
926.138	13616
926.245	13651
926.352	13499
926.459	13696
926.566	13647
926.673	13605
926.779	13487
926.886	13411
926.993	13327
927.099	13259
927.206	13236
927.312	13156
927.419	13289
927.525	13221
927.631	13320
927.737	13042
927.843	13206
927.95	13027
928.056	13034
928.162	12977
928.267	13137
928.373	13620
928.479	13133
928.585	12844
928.69	13027
928.796	13034
928.901	12829
929.007	12741
929.112	12886
929.218	12768
929.323	12779
929.428	12760
929.533	12886
929.638	12757
929.743	12753
929.848	12745
929.953	12642
930.058	12559
930.163	12506
930.267	12486
930.372	12566
930.477	12422
930.581	12604
930.685	12441
930.79	12254
930.894	12308
930.998	12235
931.103	12426
931.207	12038
931.311	11973
931.415	11866
931.519	11722
931.623	11661
