Data from test_V78500241_3297.txt Node
Date: Fri Mar 25 16:04:38 CST 2022
User: usil
Spectrometer: V785-0024
Trigger mode: 0
Integration Time (sec): 4.000000E-1
Scans to average: 1
Nonlinearity correction enabled: false
Boxcar width: 0
Storing dark spectrum: false
XAxis mode: Wavelengths
Number of Pixels in Spectrum: 1024
>>>>>Begin Spectral Data<<<<<
801.071	28797
801.214	28752
801.356	28565
801.499	28489
801.641	28459
801.783	28344
801.926	28478
802.068	28390
802.211	28363
802.353	28299
802.496	28173
802.638	28048
802.78	28055
802.923	27937
803.065	27937
803.208	27998
803.35	28185
803.492	28226
803.635	28333
803.777	28181
803.919	28276
804.061	28668
804.204	28569
804.346	28329
804.488	28242
804.63	28333
804.773	28097
804.915	28443
805.057	28455
805.199	28337
805.341	28413
805.483	28405
805.626	28489
805.768	28306
805.91	28569
806.052	28577
806.194	28466
806.336	28630
806.478	28440
806.62	28489
806.762	28687
806.904	28839
807.046	29014
807.188	28953
807.33	28904
807.472	28968
807.614	28911
807.756	28866
807.898	28771
808.04	28881
808.182	28736
808.324	28881
808.465	28702
808.607	29029
808.749	29170
808.891	29231
809.033	29368
809.174	29204
809.316	29273
809.458	29220
809.6	29231
809.741	29299
809.883	29273
810.025	29383
810.166	29410
810.308	29429
810.45	29436
810.591	29395
810.733	29265
810.875	29208
811.016	29246
811.158	29102
811.299	29299
811.441	29463
811.582	29459
811.724	29143
811.865	29185
812.007	29364
812.148	29140
812.29	29258
812.431	29398
812.573	29402
812.714	29608
812.855	29722
812.997	29661
813.138	30110
813.279	29923
813.421	29870
813.562	29790
813.703	29672
813.845	29379
813.986	29239
814.127	29105
814.268	29018
814.41	28854
814.551	28862
814.692	28858
814.833	28862
814.974	28942
815.115	28919
815.256	28839
815.397	28774
815.539	28812
815.68	28752
815.821	28847
815.962	28744
816.103	28869
816.244	28641
816.385	28569
816.526	28546
816.666	28363
816.807	28158
816.948	28398
817.089	28306
817.23	28314
817.371	28261
817.512	28314
817.653	28246
817.793	28215
817.934	28230
818.075	28257
818.216	28287
818.356	28291
818.497	28116
818.638	27956
818.778	28002
818.919	28090
819.06	28021
819.2	28116
819.341	28356
819.481	28192
819.622	28352
819.762	28466
819.903	28656
820.043	28489
820.184	28546
820.324	28405
820.465	28481
820.605	28371
820.746	28268
820.886	28295
821.026	28322
821.167	28413
821.307	28390
821.447	28280
821.588	28261
821.728	28032
821.868	27994
822.008	27869
822.149	27781
822.289	27625
822.429	27462
822.569	27397
822.709	27279
822.849	27298
822.99	27336
823.13	27108
823.27	27256
823.41	27150
823.55	26948
823.69	27085
823.83	27036
823.97	27085
824.11	26876
824.25	26902
824.389	26902
824.529	27028
824.669	26796
824.809	27013
824.949	26940
825.089	26963
825.228	26918
825.368	26686
825.508	26876
825.648	26701
825.787	26811
825.927	26823
826.067	26750
826.206	26830
826.346	26849
826.485	26883
826.625	26876
826.765	26986
826.904	26743
827.044	26670
827.183	26473
827.323	26431
827.462	26575
827.601	26583
827.741	26533
827.88	26533
828.02	26381
828.159	26431
828.298	26625
828.437	26484
828.577	26362
828.716	26674
828.855	26225
828.994	26191
829.134	26180
829.273	26164
829.412	26001
829.551	26168
829.69	26183
829.829	26282
829.968	26202
830.107	26240
830.246	26237
830.385	26157
830.524	26164
830.663	26031
830.802	25917
830.941	25856
831.08	25837
831.219	25860
831.357	25879
831.496	25932
831.635	25917
831.774	25776
831.913	25731
832.051	25655
832.19	25533
832.329	25578
832.467	25571
832.606	25453
832.744	25343
832.883	25525
833.022	25381
833.16	25468
833.299	25415
833.437	25544
833.576	25468
833.714	25563
833.852	25552
833.991	25613
834.129	25582
834.267	25613
834.406	25552
834.544	25582
834.682	25510
834.821	25476
834.959	25734
835.097	25419
835.235	25674
835.373	25563
835.511	25575
835.65	25430
835.788	25419
835.926	25164
836.064	25156
836.202	25285
836.34	25377
836.478	25559
836.615	25293
836.753	25301
836.891	25422
837.029	25339
837.167	25297
837.305	25213
837.443	25270
837.58	25263
837.718	25183
837.856	25190
837.993	25198
838.131	25164
838.269	25084
838.406	25168
838.544	25000
838.681	24928
838.819	24863
838.956	24635
839.094	24642
839.231	24646
839.369	24745
839.506	25110
839.643	25042
839.781	24719
839.918	24578
840.055	24585
840.193	24654
840.33	24574
840.467	24726
840.604	24654
840.742	24817
840.879	24494
841.016	24479
841.153	24338
841.29	24620
841.427	24544
841.564	24612
841.701	24498
841.838	24604
841.975	24445
842.112	24403
842.249	24437
842.385	24262
842.522	24559
842.659	24414
842.796	24201
842.933	24311
843.069	24319
843.206	24308
843.343	24365
843.479	24289
843.616	24369
843.752	24190
843.889	24159
844.025	24228
844.162	24239
844.298	24114
844.435	24117
844.571	24076
844.708	24125
844.844	24289
844.98	24346
845.117	24015
845.253	24011
845.389	23912
845.525	24110
845.661	23988
845.798	23729
845.934	23885
846.07	23866
846.206	23897
846.342	23912
846.478	23863
846.614	23786
846.75	23543
846.886	23531
847.022	23539
847.158	23562
847.294	23501
847.429	23577
847.565	23448
847.701	23745
847.837	23318
847.972	23368
848.108	23474
848.244	23303
848.379	23136
848.515	23159
848.65	23189
848.786	23117
848.921	23212
849.057	23254
849.192	23258
849.328	23128
849.463	23143
849.598	23117
849.734	22896
849.869	23010
850.004	22873
850.14	22957
850.275	22900
850.41	22771
850.545	22820
850.68	22824
850.815	23033
850.95	23018
851.085	23037
851.22	23018
851.355	22839
851.49	22904
851.625	22934
851.76	22824
851.895	22869
852.03	22774
852.165	22820
852.299	22847
852.434	22957
852.569	22923
852.703	22862
852.838	23014
852.973	23048
853.107	23029
853.242	22824
853.376	22717
853.511	22634
853.645	22615
853.78	22889
853.914	22706
854.048	22679
854.183	22771
854.317	22752
854.451	22923
854.585	22679
854.72	22755
854.854	22896
854.988	22622
855.122	22687
855.256	22596
855.39	22744
855.524	22866
855.658	22793
855.792	22736
855.926	22759
856.06	22725
856.194	22740
856.327	22687
856.461	22561
856.595	22759
856.729	22664
856.862	22869
856.996	22702
857.13	22869
857.263	22774
857.397	22797
857.53	22778
857.664	22649
857.797	22839
857.931	22805
858.064	22850
858.197	22698
858.331	22767
858.464	22645
858.597	22607
858.731	22767
858.864	22573
858.997	22717
859.13	22626
859.263	22763
859.396	22752
859.529	22725
859.662	22626
859.795	22691
859.928	22736
860.061	22957
860.194	22904
860.327	22729
860.46	22885
860.592	22847
860.725	22900
860.858	22892
860.99	22782
861.123	22634
861.256	22683
861.388	22816
861.521	23387
861.653	22603
861.786	22634
861.918	22603
862.05	22615
862.183	22592
862.315	22561
862.447	22653
862.58	22584
862.712	22409
862.844	22367
862.976	22569
863.108	22527
863.24	22843
863.372	22337
863.504	22512
863.636	22478
863.768	22508
863.9	22493
864.032	22253
864.164	22413
864.296	22538
864.428	22592
864.559	22565
864.691	22523
864.823	22417
864.954	22325
865.086	22375
865.217	22356
865.349	22322
865.48	22223
865.612	22325
865.743	22333
865.875	22367
866.006	22333
866.137	22356
866.269	22341
866.4	22318
866.531	22257
866.662	22230
866.793	22200
866.924	22169
867.055	22265
867.186	22188
867.317	22204
867.448	22207
867.579	22223
867.71	22105
867.841	22181
867.972	22253
868.103	22147
868.233	22207
868.364	22257
868.495	22287
868.625	22474
868.756	22481
868.886	22470
869.017	22478
869.147	22516
869.278	22546
869.408	22500
869.539	22462
869.669	22683
869.799	22535
869.929	22561
870.06	22637
870.19	22755
870.32	22713
870.45	22942
870.58	22915
870.71	23025
870.84	22919
870.97	22793
871.1	22900
871.23	22991
871.36	23121
871.489	22946
871.619	23086
871.749	23003
871.879	23037
872.008	23292
872.138	23124
872.267	23037
872.397	22991
872.526	22942
872.656	22953
872.785	22892
872.915	23048
873.044	23098
873.173	22995
873.303	23216
873.432	23124
873.561	23147
873.69	23162
873.819	23006
873.948	23071
874.077	23159
874.206	22938
874.335	23174
874.464	23292
874.593	23307
874.722	23235
874.851	23372
874.979	23486
875.108	23417
875.237	23292
875.365	23277
875.494	23185
875.623	23452
875.751	23197
875.88	23307
876.008	23387
876.136	23459
876.265	23653
876.393	23916
876.521	23729
876.65	23805
876.778	23684
876.906	23478
877.034	23665
877.162	23707
877.29	23634
877.418	23573
877.546	23634
877.674	23570
877.802	23570
877.93	23573
878.058	23558
878.185	23554
878.313	23406
878.441	23512
878.568	23425
878.696	23562
878.824	23676
878.951	23630
879.079	23805
879.206	23958
879.333	23901
879.461	23611
879.588	23813
879.715	23885
879.842	23961
879.97	23748
880.097	23490
880.224	23524
880.351	23649
880.478	23566
880.605	23478
880.732	23585
880.859	23748
880.986	23463
881.112	23440
881.239	23315
881.366	23174
881.493	23029
881.619	22984
881.746	23037
881.872	23098
881.999	23064
882.125	22957
882.252	23086
882.378	23064
882.505	23071
882.631	22873
882.757	22710
882.883	22782
883.01	22672
883.136	22546
883.262	22622
883.388	22504
883.514	22721
883.64	22759
883.766	22592
883.892	22474
884.018	22485
884.143	22519
884.269	22687
884.395	22344
884.52	22192
884.646	22249
884.772	22318
884.897	22318
885.023	22207
885.148	22371
885.274	22542
885.399	22470
885.524	22394
885.65	22344
885.775	22337
885.9	22276
886.025	22390
886.15	22375
886.275	22356
886.4	22272
886.525	22219
886.65	22169
886.775	22276
886.9	22322
887.025	22500
887.149	22238
887.274	22063
887.399	21987
887.523	22093
887.648	21968
887.773	21945
887.897	22261
888.021	22097
888.146	22010
888.27	22128
888.395	22173
888.519	22150
888.643	22013
888.767	22090
888.891	21949
889.015	21911
889.139	21892
889.263	21854
889.387	21930
889.511	22128
889.635	21907
889.759	21876
889.883	21838
890.006	21892
890.13	22025
890.254	21720
890.377	21816
890.501	21576
890.624	21603
890.748	21682
890.871	21462
890.995	21435
891.118	21283
891.241	21355
891.364	21397
891.488	21488
891.611	21378
891.734	21283
891.857	21454
891.98	21363
892.103	21469
892.226	21439
892.349	21313
892.471	21180
892.594	21450
892.717	21348
892.839	21447
892.962	21294
893.085	21317
893.207	21332
893.33	21131
893.452	21207
893.575	21310
893.697	21283
893.819	21447
893.941	21576
894.064	21412
894.186	21252
894.308	21154
894.43	21367
894.552	21416
894.674	21393
894.796	21211
894.918	21260
895.04	21287
895.161	21294
895.283	21393
895.405	21176
895.526	21222
895.648	21306
895.769	21389
895.891	21279
896.012	21192
896.134	21340
896.255	21344
896.376	21260
896.498	21233
896.619	21351
896.74	21233
896.861	21294
896.982	21557
897.103	21690
897.224	21633
897.345	21336
897.466	21412
897.587	21321
897.708	21580
897.828	21458
897.949	21511
898.07	21291
898.19	21340
898.311	21534
898.431	21481
898.552	21496
898.672	21447
898.792	21526
898.913	21443
899.033	21332
899.153	21306
899.273	21226
899.393	21154
899.513	21291
899.633	21123
899.753	21203
899.873	21116
899.993	21192
900.113	21154
900.232	21081
900.352	21089
900.472	21062
900.591	20880
900.711	20918
900.83	20876
900.95	20902
901.069	20845
901.189	20834
901.308	20648
901.427	20495
901.546	20537
901.665	20530
901.784	20549
901.904	20389
902.023	20294
902.141	19970
902.26	20126
902.379	20164
902.498	19993
902.617	20130
902.735	19993
902.854	20069
902.973	19917
903.091	19693
903.21	19670
903.328	19666
903.446	19594
903.565	19430
903.683	19506
903.801	19335
903.919	19537
904.038	19362
904.156	19236
904.274	19369
904.392	19179
904.51	19247
904.627	19331
904.745	19179
904.863	19293
904.981	19065
905.098	18833
905.216	18848
905.334	18875
905.451	18890
905.569	18833
905.686	18932
905.803	18772
905.921	18802
906.038	18973
906.155	18741
906.272	18665
906.389	18570
906.506	18376
906.623	18513
906.74	18433
906.857	18186
906.974	18266
907.091	18563
907.208	18597
907.324	18483
907.441	18232
907.557	18167
907.674	18133
907.79	18106
907.907	18072
908.023	18091
908.139	18190
908.256	18117
908.372	17988
908.488	18053
908.604	17893
908.72	17726
908.836	17878
908.952	17870
909.068	17798
909.184	17996
909.3	17931
909.415	17958
909.531	17847
909.647	17608
909.762	17600
909.878	17497
909.993	17562
910.108	17528
910.224	17501
910.339	17535
910.454	17406
910.57	17334
910.685	17379
910.8	17524
910.915	17543
911.03	17326
911.145	17166
911.259	17052
911.374	17181
911.489	17052
911.604	16942
911.718	16854
911.833	16923
911.947	16717
912.062	16710
912.176	16873
912.291	16896
912.405	16793
912.519	16938
912.633	17014
912.748	16797
912.862	16858
912.976	16755
913.09	16558
913.204	16641
913.318	16725
913.431	16767
913.545	16649
913.659	16698
913.772	16607
913.886	16436
914	16466
914.113	16497
914.226	16569
914.34	16481
914.453	16417
914.566	16577
914.68	16363
914.793	16230
914.906	16223
915.019	15998
915.132	15979
915.245	16048
915.358	16112
915.47	15987
915.583	16006
915.696	15949
915.809	16120
915.921	16169
916.034	15926
916.146	15941
916.259	15956
916.371	15994
916.483	15895
916.595	15876
916.708	15755
916.82	15842
916.932	15778
917.044	15698
917.156	15724
917.268	15751
917.38	15808
917.491	15614
917.603	15587
917.715	15743
917.826	15675
917.938	15553
918.049	15530
918.161	15511
918.272	15648
918.384	15812
918.495	15564
918.606	15412
918.717	15294
918.828	15393
918.939	15519
919.05	15268
919.161	15317
919.272	15226
919.383	15188
919.494	15416
919.604	15530
919.715	15363
919.826	15180
919.936	15264
920.047	15298
920.157	15291
920.267	15618
920.378	15279
920.488	15321
920.598	15504
920.708	15603
920.818	15424
920.928	15355
921.038	15584
921.148	15534
921.258	15317
921.368	15256
921.477	15119
921.587	14979
921.697	14937
921.806	15051
921.916	14963
922.025	14712
922.134	14651
922.244	14613
922.353	14705
922.462	14579
922.571	14492
922.68	14412
922.789	14305
922.898	14298
923.007	14252
923.116	14324
923.224	14248
923.333	14298
923.442	14191
923.55	14157
923.659	14149
923.767	14123
923.876	14100
923.984	14180
924.092	14081
924.201	14043
924.309	13974
924.417	14039
924.525	14035
924.633	13963
924.741	14769
924.849	13700
924.956	13894
925.064	13799
925.172	13689
925.279	13655
925.387	13757
925.494	13696
925.602	13746
925.709	13681
925.816	13616
925.924	13704
926.031	13734
926.138	13693
926.245	13677
926.352	13567
926.459	13597
926.566	13765
926.673	13502
926.779	13400
926.886	13396
926.993	13301
927.099	13297
927.206	13187
927.312	13126
927.419	13228
927.525	13217
927.631	13194
927.737	13194
927.843	13065
927.95	13015
928.056	13008
928.162	13069
928.267	13091
928.373	13586
928.479	13122
928.585	12837
928.69	12958
928.796	12996
928.901	12928
929.007	12760
929.112	12882
929.218	12875
929.323	12707
929.428	12753
929.533	12802
929.638	12662
929.743	12684
929.848	12734
929.953	12787
930.058	12612
930.163	12300
930.267	12323
930.372	12601
930.477	12311
930.581	12483
930.685	12467
930.79	12300
930.894	12308
930.998	12270
931.103	12388
931.207	12007
931.311	11893
931.415	11783
931.519	11680
931.623	11615
