Data from test_V78500241_1956.txt Node
Date: Fri Mar 25 15:55:21 CST 2022
User: usil
Spectrometer: V785-0024
Trigger mode: 0
Integration Time (sec): 4.000000E-1
Scans to average: 1
Nonlinearity correction enabled: false
Boxcar width: 0
Storing dark spectrum: false
XAxis mode: Wavelengths
Number of Pixels in Spectrum: 1024
>>>>>Begin Spectral Data<<<<<
801.071	28755
801.214	28557
801.356	28481
801.499	28219
801.641	28181
801.783	28200
801.926	28295
802.068	27975
802.211	28135
802.353	28078
802.496	28010
802.638	27724
802.78	27972
802.923	27789
803.065	27762
803.208	27793
803.35	27930
803.492	28002
803.635	28147
803.777	28010
803.919	28074
804.061	28455
804.204	28120
804.346	27960
804.488	27873
804.63	28249
804.773	28223
804.915	28169
805.057	28181
805.199	28185
805.341	28257
805.483	28265
805.626	28287
805.768	28181
805.91	28211
806.052	28291
806.194	28219
806.336	28512
806.478	28344
806.62	28470
806.762	28344
806.904	28603
807.046	28763
807.188	28835
807.33	28717
807.472	28740
807.614	28615
807.756	28637
807.898	28759
808.04	28554
808.182	28481
808.324	28679
808.465	28637
808.607	28858
808.749	28904
808.891	29098
809.033	29239
809.174	29018
809.316	28999
809.458	28938
809.6	28797
809.741	29102
809.883	29216
810.025	29242
810.166	29330
810.308	29200
810.45	29254
810.591	29151
810.733	28972
810.875	28877
811.016	28850
811.158	28828
811.299	29113
811.441	29105
811.582	29197
811.724	28927
811.865	28904
812.007	28862
812.148	28987
812.29	29121
812.431	29178
812.573	29303
812.714	29311
812.855	29395
812.997	29551
813.138	29627
813.279	29642
813.421	29566
813.562	29337
813.703	29368
813.845	29227
813.986	28976
814.127	28786
814.268	28668
814.41	28713
814.551	28603
814.692	28755
814.833	28653
814.974	28683
815.115	28736
815.256	28569
815.397	28588
815.539	28626
815.68	28519
815.821	28386
815.962	28363
816.103	28683
816.244	28318
816.385	28268
816.526	28265
816.666	28223
816.807	27956
816.948	28040
817.089	28082
817.23	28017
817.371	28048
817.512	28131
817.653	28002
817.793	27865
817.934	28090
818.075	27968
818.216	27884
818.356	27888
818.497	27903
818.638	27675
818.778	27686
818.919	27774
819.06	27770
819.2	27926
819.341	28135
819.481	27934
819.622	28112
819.762	28386
819.903	28371
820.043	28181
820.184	28074
820.324	28105
820.465	28234
820.605	28211
820.746	28158
820.886	28040
821.026	28067
821.167	28109
821.307	28082
821.447	27972
821.588	27766
821.728	27701
821.868	27523
822.008	27496
822.149	27515
822.289	27389
822.429	27165
822.569	27169
822.709	27176
822.849	27074
822.99	27013
823.13	26952
823.27	26971
823.41	26902
823.55	26682
823.69	26697
823.83	26868
823.97	26705
824.11	26762
824.25	26564
824.389	26545
824.529	26678
824.669	26678
824.809	26781
824.949	26549
825.089	26598
825.228	26811
825.368	26427
825.508	26507
825.648	26415
825.787	26530
825.927	26590
826.067	26541
826.206	26484
826.346	26632
826.485	26549
826.625	26434
826.765	26571
826.904	26473
827.044	26259
827.183	26240
827.323	26195
827.462	26240
827.601	26252
827.741	26278
827.88	26282
828.02	26130
828.159	26031
828.298	26187
828.437	26259
828.577	26084
828.716	26381
828.855	26073
828.994	26096
829.134	26077
829.273	26024
829.412	25830
829.551	25856
829.69	25833
829.829	25947
829.968	26020
830.107	25959
830.246	25818
830.385	25852
830.524	25860
830.663	25632
830.802	25681
830.941	25468
831.08	25499
831.219	25597
831.357	25559
831.496	25727
831.635	25548
831.774	25415
831.913	25575
832.051	25285
832.19	25244
832.329	25331
832.467	25209
832.606	25110
832.744	25255
832.883	25187
833.022	25061
833.16	25145
833.299	25213
833.437	25266
833.576	25293
833.714	25244
833.852	25301
833.991	25263
834.129	25392
834.267	25316
834.406	25187
834.544	25312
834.682	25324
834.821	25259
834.959	25571
835.097	25164
835.235	25274
835.373	25145
835.511	25107
835.65	25202
835.788	25118
835.926	24989
836.064	24863
836.202	24973
836.34	24970
836.478	25156
836.615	25240
836.753	25095
836.891	25141
837.029	25015
837.167	24856
837.305	24966
837.443	25050
837.58	24901
837.718	24943
837.856	24886
837.993	24753
838.131	24882
838.269	24802
838.406	24798
838.544	24593
838.681	24604
838.819	24574
838.956	24319
839.094	24361
839.231	24452
839.369	24673
839.506	24863
839.643	24669
839.781	24391
839.918	24330
840.055	24357
840.193	24342
840.33	24270
840.467	24357
840.604	24174
840.742	24494
840.879	24167
841.016	24315
841.153	24087
841.29	24319
841.427	24319
841.564	24334
841.701	24167
841.838	24091
841.975	24091
842.112	24178
842.249	24224
842.385	24049
842.522	24201
842.659	24121
842.796	23988
842.933	23984
843.069	24034
843.206	23927
843.343	23992
843.479	24026
843.616	24133
843.752	23790
843.889	23866
844.025	23927
844.162	23847
844.298	23980
844.435	23687
844.571	23809
844.708	23843
844.844	23984
844.98	23973
845.117	23999
845.253	23756
845.389	23600
845.525	23558
845.661	23630
845.798	23551
845.934	23440
846.07	23452
846.206	23566
846.342	23646
846.478	23406
846.614	23242
846.75	23246
846.886	23303
847.022	23197
847.158	23277
847.294	23258
847.429	23288
847.565	23212
847.701	23505
847.837	23022
847.972	22896
848.108	23086
848.244	23166
848.379	22900
848.515	22850
848.65	22790
848.786	22908
848.921	22809
849.057	22930
849.192	22965
849.328	22896
849.463	22908
849.598	22790
849.734	22740
849.869	22694
850.004	22771
850.14	22672
850.275	22607
850.41	22466
850.545	22523
850.68	22653
850.815	22637
850.95	22535
851.085	22793
851.22	22733
851.355	22790
851.49	22557
851.625	22485
851.76	22512
851.895	22470
852.03	22481
852.165	22474
852.299	22523
852.434	22702
852.569	22603
852.703	22660
852.838	22588
852.973	22778
853.107	22831
853.242	22592
853.376	22413
853.511	22386
853.645	22508
853.78	22531
853.914	22508
854.048	22303
854.183	22211
854.317	22466
854.451	22668
854.585	22413
854.72	22390
854.854	22561
854.988	22390
855.122	22424
855.256	22367
855.39	22447
855.524	22554
855.658	22504
855.792	22436
855.926	22535
856.06	22580
856.194	22447
856.327	22413
856.461	22409
856.595	22329
856.729	22569
856.862	22561
856.996	22542
857.13	22447
857.263	22504
857.397	22470
857.53	22405
857.664	22554
857.797	22413
857.931	22656
858.064	22478
858.197	22447
858.331	22341
858.464	22348
858.597	22181
858.731	22295
858.864	22390
858.997	22356
859.13	22478
859.263	22455
859.396	22485
859.529	22432
859.662	22405
859.795	22257
859.928	22459
860.061	22478
860.194	22694
860.327	22485
860.46	22474
860.592	22557
860.725	22447
860.858	22519
860.99	22497
861.123	22386
861.256	22382
861.388	22436
861.521	23162
861.653	22314
861.786	22196
861.918	22173
862.05	22287
862.183	22394
862.315	22314
862.447	22421
862.58	22348
862.712	22173
862.844	22143
862.976	22135
863.108	22169
863.24	22683
863.372	22074
863.504	22105
863.636	22086
863.768	22147
863.9	22219
864.032	22032
864.164	21953
864.296	22112
864.428	22303
864.559	22147
864.691	22211
864.823	21979
864.954	22048
865.086	22002
865.217	22040
865.349	21899
865.48	21953
865.612	21979
865.743	22116
865.875	22017
866.006	21945
866.137	22010
866.269	22013
866.4	21903
866.531	22036
866.662	21884
866.793	21975
866.924	21884
867.055	21941
867.186	21960
867.317	21899
867.448	21846
867.579	21960
867.71	21816
867.841	21812
867.972	21854
868.103	21823
868.233	21888
868.364	21911
868.495	22078
868.625	22207
868.756	22322
868.886	22109
869.017	22067
869.147	22177
869.278	22207
869.408	22078
869.539	22150
869.669	22173
869.799	22185
869.929	22276
870.06	22169
870.19	22478
870.32	22478
870.45	22523
870.58	22618
870.71	22615
870.84	22592
870.97	22519
871.1	22618
871.23	22774
871.36	22748
871.489	22691
871.619	22721
871.749	22774
871.879	22858
872.008	22946
872.138	22797
872.267	22759
872.397	22557
872.526	22584
872.656	22561
872.785	22504
872.915	22763
873.044	22892
873.173	22843
873.303	22809
873.432	22797
873.561	22911
873.69	22679
873.819	22771
873.948	22835
874.077	22793
874.206	22656
874.335	22691
874.464	22904
874.593	22953
874.722	22877
874.851	22927
874.979	23105
875.108	23025
875.237	23003
875.365	22843
875.494	22957
875.623	23132
875.751	22930
875.88	23086
876.008	23113
876.136	23185
876.265	23444
876.393	23539
876.521	23505
876.65	23474
876.778	23452
876.906	23315
877.034	23292
877.162	23497
877.29	23159
877.418	23414
877.546	23421
877.674	23337
877.802	23265
877.93	23326
878.058	23341
878.185	23235
878.313	23204
878.441	23231
878.568	23102
878.696	23307
878.824	23299
878.951	23444
879.079	23554
879.206	23554
879.333	23497
879.461	23307
879.588	23474
879.715	23524
879.842	23577
879.97	23379
880.097	23170
880.224	23258
880.351	23258
880.478	23235
880.605	23041
880.732	23178
880.859	23242
880.986	23124
881.112	23200
881.239	22965
881.366	22904
881.493	22812
881.619	22729
881.746	22694
881.872	22759
881.999	22637
882.125	22687
882.252	22698
882.378	22664
882.505	22679
882.631	22481
882.757	22398
882.883	22360
883.01	22398
883.136	22417
883.262	22314
883.388	22215
883.514	22424
883.64	22474
883.766	22268
883.892	22120
884.018	22192
884.143	22360
884.269	22379
884.395	22109
884.52	22067
884.646	22040
884.772	21876
884.897	21979
885.023	22070
885.148	22120
885.274	22173
885.399	22013
885.524	21911
885.65	22139
885.775	22082
885.9	21975
886.025	22124
886.15	22067
886.275	22029
886.4	21907
886.525	22017
886.65	21998
886.775	21895
886.9	22059
887.025	22284
887.149	22002
887.274	21808
887.399	21800
887.523	21770
887.648	21690
887.773	21580
887.897	21713
888.021	21838
888.146	21705
888.27	21865
888.395	21953
888.519	21838
888.643	21812
888.767	21850
888.891	21629
889.015	21629
889.139	21606
889.263	21549
889.387	21713
889.511	21895
889.635	21671
889.759	21523
889.883	21595
890.006	21450
890.13	21618
890.254	21538
890.377	21580
890.501	21363
890.624	21359
890.748	21348
890.871	21176
890.995	21176
891.118	21142
891.241	21157
891.364	21100
891.488	21272
891.611	21116
891.734	21123
891.857	21077
891.98	21150
892.103	21157
892.226	21233
892.349	21036
892.471	20963
892.594	20887
892.717	21024
892.839	21001
892.962	21051
893.085	21203
893.207	21081
893.33	20857
893.452	20971
893.575	20925
893.697	21062
893.819	21131
893.941	21116
894.064	21188
894.186	20979
894.308	20902
894.43	21108
894.552	21203
894.674	21138
894.796	20823
894.918	21017
895.04	20998
895.161	20971
895.283	21104
895.405	20982
895.526	21135
895.648	20963
895.769	21013
895.891	20986
896.012	21104
896.134	20979
896.255	21066
896.376	20944
896.498	21001
896.619	21077
896.74	21005
896.861	21116
896.982	21458
897.103	21401
897.224	21226
897.345	21127
897.466	21192
897.587	21195
897.708	21348
897.828	21207
897.949	21096
898.07	20979
898.19	21157
898.311	21249
898.431	21214
898.552	21192
898.672	21279
898.792	21252
898.913	21169
899.033	21089
899.153	20994
899.273	20979
899.393	20952
899.513	20842
899.633	20944
899.753	20921
899.873	20967
899.993	20918
900.113	20921
900.232	20925
900.352	20785
900.472	20735
900.591	20632
900.711	20731
900.83	20606
900.95	20765
901.069	20659
901.189	20609
901.308	20339
901.427	20225
901.546	20446
901.665	20328
901.784	20244
901.904	19986
902.023	20016
902.141	19814
902.26	19674
902.379	19822
902.498	19708
902.617	19795
902.735	19772
902.854	19814
902.973	19731
903.091	19358
903.21	19419
903.328	19438
903.446	19358
903.565	19247
903.683	19221
903.801	19099
903.919	19270
904.038	19133
904.156	18962
904.274	19072
904.392	18939
904.51	18875
904.627	18882
904.745	18924
904.863	19019
904.981	18875
905.098	18722
905.216	18593
905.334	18604
905.451	18612
905.569	18677
905.686	18703
905.803	18688
905.921	18441
906.038	18506
906.155	18471
906.272	18254
906.389	18300
906.506	18091
906.623	18220
906.74	18239
906.857	18007
906.974	18049
907.091	18209
907.208	18418
907.324	18178
907.441	17988
907.557	17908
907.674	17878
907.79	17836
907.907	17840
908.023	17961
908.139	17939
908.256	17783
908.372	17786
908.488	17684
908.604	17729
908.72	17482
908.836	17634
908.952	17471
909.068	17703
909.184	17657
909.3	17570
909.415	17703
909.531	17581
909.647	17360
909.762	17212
909.878	17284
909.993	17258
910.108	17277
910.224	17170
910.339	17376
910.454	17185
910.57	17143
910.685	17014
910.8	17383
910.915	17185
911.03	17022
911.145	16942
911.259	17003
911.374	16919
911.489	16797
911.604	16778
911.718	16767
911.833	16710
911.947	16538
912.062	16481
912.176	16554
912.291	16721
912.405	16599
912.519	16843
912.633	16881
912.748	16805
912.862	16736
912.976	16550
913.09	16348
913.204	16386
913.318	16447
913.431	16565
913.545	16485
913.659	16527
913.772	16512
913.886	16276
914	16303
914.113	16268
914.226	16303
914.34	16295
914.453	16128
914.566	16375
914.68	16139
914.793	16105
914.906	16040
915.019	15819
915.132	15770
915.245	15888
915.358	15770
915.47	15922
915.583	15850
915.696	15895
915.809	15972
915.921	15964
916.034	15774
916.146	15736
916.259	15793
916.371	15797
916.483	15713
916.595	15644
916.708	15660
916.82	15671
916.932	15652
917.044	15595
917.156	15591
917.268	15447
917.38	15622
917.491	15591
917.603	15477
917.715	15530
917.826	15500
917.938	15507
918.049	15313
918.161	15485
918.272	15435
918.384	15519
918.495	15401
918.606	15135
918.717	15123
918.828	15230
918.939	15222
919.05	15047
919.161	15176
919.272	15024
919.383	14998
919.494	15203
919.604	15454
919.715	15211
919.826	15127
919.936	15165
920.047	15279
920.157	15070
920.267	15279
920.378	15157
920.488	15100
920.598	15294
920.708	15511
920.818	15180
920.928	15214
921.038	15424
921.148	15405
921.258	15081
921.368	14891
921.477	14910
921.587	14899
921.697	14796
921.806	14811
921.916	14682
922.025	14587
922.134	14579
922.244	14503
922.353	14590
922.462	14370
922.571	14385
922.68	14199
922.789	14161
922.898	14233
923.007	14100
923.116	14153
923.224	14111
923.333	14092
923.442	13932
923.55	14027
923.659	13978
923.767	14111
923.876	13951
923.984	14020
924.092	13765
924.201	13822
924.309	13845
924.417	13864
924.525	13913
924.633	13761
924.741	14689
924.849	13567
924.956	13795
925.064	13597
925.172	13449
925.279	13491
925.387	13518
925.494	13480
925.602	13689
925.709	13624
925.816	13552
925.924	13419
926.031	13590
926.138	13453
926.245	13518
926.352	13381
926.459	13552
926.566	13453
926.673	13460
926.779	13308
926.886	13285
926.993	13114
927.099	13244
927.206	13034
927.312	13034
927.419	13149
927.525	13141
927.631	13046
927.737	12901
927.843	12837
927.95	12734
928.056	12932
928.162	12977
928.267	12901
928.373	13559
928.479	12897
928.585	12814
928.69	12814
928.796	12852
928.901	12669
929.007	12612
929.112	12734
929.218	12730
929.323	12749
929.428	12582
929.533	12684
929.638	12555
929.743	12544
929.848	12582
929.953	12498
930.058	12486
930.163	12353
930.267	12308
930.372	12334
930.477	12289
930.581	12414
930.685	12350
930.79	12270
930.894	12167
930.998	12129
931.103	12330
931.207	11870
931.311	11847
931.415	11786
931.519	11589
931.623	11520
