Data from test_V78500241_3339.txt Node
Date: Fri Mar 25 16:04:55 CST 2022
User: usil
Spectrometer: V785-0024
Trigger mode: 0
Integration Time (sec): 4.000000E-1
Scans to average: 1
Nonlinearity correction enabled: false
Boxcar width: 0
Storing dark spectrum: false
XAxis mode: Wavelengths
Number of Pixels in Spectrum: 1024
>>>>>Begin Spectral Data<<<<<
801.071	28938
801.214	28911
801.356	28641
801.499	28828
801.641	28679
801.783	28656
801.926	28577
802.068	28512
802.211	28481
802.353	28500
802.496	28394
802.638	28246
802.78	28048
802.923	28109
803.065	28101
803.208	28272
803.35	28272
803.492	28523
803.635	28531
803.777	28443
803.919	28447
804.061	28835
804.204	28596
804.346	28421
804.488	28542
804.63	28451
804.773	28493
804.915	28672
805.057	28668
805.199	28535
805.341	28538
805.483	28637
805.626	28721
805.768	28641
805.91	28634
806.052	28649
806.194	28672
806.336	28710
806.478	28736
806.62	28679
806.762	28980
806.904	28957
807.046	29284
807.188	29071
807.33	29181
807.472	29265
807.614	29037
807.756	29208
807.898	28923
808.04	28930
808.182	28927
808.324	29052
808.465	29010
808.607	29185
808.749	29414
808.891	29387
809.033	29528
809.174	29303
809.316	29482
809.458	29436
809.6	29296
809.741	29608
809.883	29596
810.025	29676
810.166	29665
810.308	29710
810.45	29619
810.591	29600
810.733	29551
810.875	29292
811.016	29303
811.158	29155
811.299	29421
811.441	29444
811.582	29611
811.724	29410
811.865	29539
812.007	29379
812.148	29425
812.29	29558
812.431	29634
812.573	29710
812.714	29836
812.855	29946
812.997	30015
813.138	30190
813.279	30068
813.421	29855
813.562	29920
813.703	29786
813.845	29589
813.986	29406
814.127	29258
814.268	29212
814.41	29174
814.551	29242
814.692	29098
814.833	29071
814.974	29204
815.115	28991
815.256	29022
815.397	28976
815.539	29079
815.68	28919
815.821	28763
815.962	29094
816.103	28911
816.244	28919
816.385	28706
816.526	28729
816.666	28462
816.807	28531
816.948	28702
817.089	28440
817.23	28382
817.371	28382
817.512	28398
817.653	28508
817.793	28493
817.934	28379
818.075	28649
818.216	28561
818.356	28485
818.497	28272
818.638	28284
818.778	28177
818.919	28177
819.06	28230
819.2	28424
819.341	28497
819.481	28382
819.622	28489
819.762	28828
819.903	28615
820.043	28733
820.184	28706
820.324	28546
820.465	28653
820.605	28630
820.746	28584
820.886	28242
821.026	28542
821.167	28535
821.307	28493
821.447	28508
821.588	28329
821.728	28181
821.868	28150
822.008	27975
822.149	28074
822.289	27922
822.429	27785
822.569	27622
822.709	27679
822.849	27564
822.99	27351
823.13	27382
823.27	27329
823.41	27367
823.55	27135
823.69	27252
823.83	27340
823.97	27332
824.11	27089
824.25	27188
824.389	27161
824.529	27108
824.669	27112
824.809	27359
824.949	27127
825.089	27150
825.228	27096
825.368	26914
825.508	27161
825.648	26845
825.787	27009
825.927	26872
826.067	26918
826.206	26952
826.346	27096
826.485	27001
826.625	27096
826.765	26971
826.904	27096
827.044	26712
827.183	26708
827.323	26804
827.462	26838
827.601	26746
827.741	26781
827.88	26807
828.02	26629
828.159	26606
828.298	26697
828.437	26663
828.577	26693
828.716	26773
828.855	26579
828.994	26560
829.134	26476
829.273	26267
829.412	26446
829.551	26343
829.69	26404
829.829	26294
829.968	26640
830.107	26480
830.246	26343
830.385	26393
830.524	26259
830.663	26153
830.802	26046
830.941	26088
831.08	26008
831.219	25989
831.357	26134
831.496	26263
831.635	25925
831.774	25879
831.913	25925
832.051	25761
832.19	25655
832.329	25753
832.467	25685
832.606	25506
832.744	25651
832.883	25655
833.022	25594
833.16	25620
833.299	25715
833.437	25738
833.576	25890
833.714	25898
833.852	25746
833.991	25799
834.129	25875
834.267	25731
834.406	25651
834.544	25826
834.682	25734
834.821	25674
834.959	25807
835.097	25605
835.235	25689
835.373	25780
835.511	25780
835.65	25658
835.788	25544
835.926	25434
836.064	25339
836.202	25400
836.34	25590
836.478	25647
836.615	25518
836.753	25422
836.891	25556
837.029	25556
837.167	25441
837.305	25521
837.443	25445
837.58	25377
837.718	25377
837.856	25438
837.993	25369
838.131	25259
838.269	25217
838.406	25255
838.544	25301
838.681	25027
838.819	25088
838.956	24875
839.094	24932
839.231	24798
839.369	25000
839.506	25194
839.643	25069
839.781	24867
839.918	24844
840.055	24810
840.193	24779
840.33	24730
840.467	24715
840.604	24901
840.742	25031
840.879	24597
841.016	24646
841.153	24536
841.29	24791
841.427	24597
841.564	24760
841.701	24692
841.838	24764
841.975	24498
842.112	24703
842.249	24551
842.385	24479
842.522	24661
842.659	24498
842.796	24437
842.933	24490
843.069	24426
843.206	24509
843.343	24597
843.479	24513
843.616	24582
843.752	24254
843.889	24277
844.025	24418
844.162	24239
844.298	24403
844.435	24243
844.571	24304
844.708	24304
844.844	24517
844.98	24376
845.117	24433
845.253	24167
845.389	24152
845.525	24117
845.661	24174
845.798	24045
845.934	23996
846.07	23992
846.206	24163
846.342	24087
846.478	23908
846.614	23836
846.75	23798
846.886	23707
847.022	23764
847.158	23752
847.294	23638
847.429	23748
847.565	23733
847.701	23813
847.837	23493
847.972	23543
848.108	23566
848.244	23490
848.379	23284
848.515	23307
848.65	23303
848.786	23402
848.921	23258
849.057	23326
849.192	23360
849.328	23239
849.463	23376
849.598	23303
849.734	23254
849.869	23128
850.004	23166
850.14	23121
850.275	23102
850.41	22972
850.545	23098
850.68	23014
850.815	23018
850.95	23014
851.085	23178
851.22	23098
851.355	23056
851.49	23003
851.625	22873
851.76	23052
851.895	22984
852.03	23018
852.165	22934
852.299	23056
852.434	23124
852.569	23033
852.703	23102
852.838	23071
852.973	23102
853.107	23143
853.242	22961
853.376	22885
853.511	22824
853.645	22778
853.78	23075
853.914	22896
854.048	22793
854.183	23022
854.317	22946
854.451	23033
854.585	23006
854.72	22908
854.854	23075
854.988	22847
855.122	22809
855.256	22809
855.39	22790
855.524	23086
855.658	23029
855.792	22968
855.926	22930
856.06	22972
856.194	22934
856.327	22729
856.461	22938
856.595	22824
856.729	22934
856.862	22885
856.996	22991
857.13	22965
857.263	23037
857.397	22953
857.53	22835
857.664	23014
857.797	23018
857.931	23003
858.064	22953
858.197	23044
858.331	22835
858.464	22816
858.597	22797
858.731	22866
858.864	22763
858.997	22774
859.13	22820
859.263	22957
859.396	22968
859.529	22942
859.662	22793
859.795	22828
859.928	22839
860.061	23094
860.194	23083
860.327	22873
860.46	22915
860.592	22972
860.725	23014
860.858	22927
860.99	22911
861.123	22828
861.256	22889
861.388	22900
861.521	23421
861.653	22748
861.786	22683
861.918	22786
862.05	22767
862.183	22805
862.315	22763
862.447	22889
862.58	22755
862.712	22565
862.844	22523
862.976	22599
863.108	22713
863.24	22972
863.372	22474
863.504	22584
863.636	22523
863.768	22687
863.9	22538
864.032	22554
864.164	22630
864.296	22637
864.428	22679
864.559	22573
864.691	22637
864.823	22660
864.954	22538
865.086	22698
865.217	22565
865.349	22371
865.48	22455
865.612	22443
865.743	22675
865.875	22497
866.006	22554
866.137	22428
866.269	22428
866.4	22455
866.531	22424
866.662	22344
866.793	22417
866.924	22386
867.055	22462
867.186	22390
867.317	22303
867.448	22291
867.579	22424
867.71	22337
867.841	22257
867.972	22394
868.103	22360
868.233	22382
868.364	22318
868.495	22603
868.625	22615
868.756	22706
868.886	22546
869.017	22596
869.147	22660
869.278	22748
869.408	22630
869.539	22641
869.669	22679
869.799	22763
869.929	22839
870.06	22873
870.19	23037
870.32	23010
870.45	23086
870.58	23014
870.71	23166
870.84	23227
870.97	23006
871.1	22980
871.23	23242
871.36	23220
871.489	23197
871.619	23204
871.749	23258
871.879	23303
872.008	23299
872.138	23204
872.267	23189
872.397	23170
872.526	23033
872.656	23109
872.785	22980
872.915	23277
873.044	23250
873.173	23265
873.303	23299
873.432	23303
873.561	23315
873.69	23174
873.819	23174
873.948	23395
874.077	23204
874.206	23277
874.335	23239
874.464	23341
874.593	23497
874.722	23486
874.851	23383
874.979	23634
875.108	23444
875.237	23425
875.365	23425
875.494	23353
875.623	23497
875.751	23452
875.88	23474
876.008	23566
876.136	23562
876.265	23836
876.393	24144
876.521	23847
876.65	24053
876.778	23863
876.906	23726
877.034	23802
877.162	23798
877.29	23676
877.418	23923
877.546	23931
877.674	23741
877.802	23726
877.93	23809
878.058	23733
878.185	23554
878.313	23710
878.441	23775
878.568	23649
878.696	23638
878.824	23695
878.951	23828
879.079	23836
879.206	24106
879.333	23946
879.461	23817
879.588	23790
879.715	23992
879.842	24114
879.97	23916
880.097	23680
880.224	23600
880.351	23729
880.478	23661
880.605	23703
880.732	23687
880.859	23901
880.986	23535
881.112	23642
881.239	23471
881.366	23204
881.493	23181
881.619	23185
881.746	23178
881.872	23189
881.999	23162
882.125	23143
882.252	23280
882.378	23086
882.505	23303
882.631	22946
882.757	22805
882.883	22946
883.01	22915
883.136	22793
883.262	22733
883.388	22725
883.514	22801
883.64	22801
883.766	22892
883.892	22664
884.018	22637
884.143	22717
884.269	22782
884.395	22626
884.52	22565
884.646	22394
884.772	22466
884.897	22367
885.023	22478
885.148	22508
885.274	22702
885.399	22519
885.524	22443
885.65	22504
885.775	22531
885.9	22466
886.025	22596
886.15	22618
886.275	22447
886.4	22432
886.525	22329
886.65	22493
886.775	22462
886.9	22573
887.025	22721
887.149	22382
887.274	22238
887.399	22173
887.523	22181
887.648	22276
887.773	22131
887.897	22329
888.021	22105
888.146	22128
888.27	22398
888.395	22299
888.519	22177
888.643	22268
888.767	22360
888.891	22109
889.015	22112
889.139	22158
889.263	22074
889.387	22207
889.511	22375
889.635	22150
889.759	22147
889.883	22090
890.006	21964
890.13	22135
890.254	21968
890.377	21949
890.501	21766
890.624	21739
890.748	21804
890.871	21606
890.995	21557
891.118	21469
891.241	21606
891.364	21557
891.488	21793
891.611	21599
891.734	21614
891.857	21656
891.98	21439
892.103	21545
892.226	21553
892.349	21405
892.471	21313
892.594	21447
892.717	21538
892.839	21500
892.962	21389
893.085	21549
893.207	21382
893.33	21329
893.452	21355
893.575	21378
893.697	21374
893.819	21599
893.941	21679
894.064	21572
894.186	21386
894.308	21359
894.43	21458
894.552	21583
894.674	21443
894.796	21291
894.918	21462
895.04	21351
895.161	21431
895.283	21397
895.405	21382
895.526	21386
895.648	21431
895.769	21466
895.891	21424
896.012	21504
896.134	21428
896.255	21435
896.376	21268
896.498	21408
896.619	21481
896.74	21355
896.861	21492
896.982	21675
897.103	21846
897.224	21648
897.345	21633
897.466	21572
897.587	21667
897.708	21736
897.828	21709
897.949	21553
898.07	21420
898.19	21443
898.311	21648
898.431	21504
898.552	21648
898.672	21690
898.792	21705
898.913	21618
899.033	21542
899.153	21374
899.273	21260
899.393	21348
899.513	21325
899.633	21332
899.753	21325
899.873	21302
899.993	21294
900.113	21272
900.232	21287
900.352	21287
900.472	21188
900.591	21047
900.711	21150
900.83	21104
900.95	21211
901.069	21207
901.189	20998
901.308	20788
901.427	20526
901.546	20609
901.665	20522
901.784	20686
901.904	20495
902.023	20511
902.141	20134
902.26	20263
902.379	20237
902.498	20172
902.617	20130
902.735	20176
902.854	20153
902.973	20008
903.091	19936
903.21	19746
903.328	19757
903.446	19708
903.565	19620
903.683	19769
903.801	19304
903.919	19506
904.038	19590
904.156	19426
904.274	19354
904.392	19396
904.51	19335
904.627	19320
904.745	19419
904.863	19449
904.981	19160
905.098	18894
905.216	18954
905.334	19065
905.451	19099
905.569	18909
905.686	19053
905.803	18973
905.921	18840
906.038	18981
906.155	18844
906.272	18665
906.389	18677
906.506	18593
906.623	18544
906.74	18540
906.857	18388
906.974	18403
907.091	18570
907.208	18722
907.324	18582
907.441	18460
907.557	18311
907.674	18201
907.79	18266
907.907	18273
908.023	18281
908.139	18323
908.256	18178
908.372	18171
908.488	18034
908.604	18034
908.72	17882
908.836	17988
908.952	17904
909.068	17977
909.184	18114
909.3	17889
909.415	17992
909.531	17942
909.647	17726
909.762	17668
909.878	17535
909.993	17741
910.108	17661
910.224	17623
910.339	17642
910.454	17501
910.57	17421
910.685	17452
910.8	17611
910.915	17493
911.03	17455
911.145	17353
911.259	17159
911.374	17311
911.489	17124
911.604	17071
911.718	16984
911.833	16999
911.947	16942
912.062	16828
912.176	16934
912.291	16968
912.405	17045
912.519	17113
912.633	17170
912.748	16980
912.862	16877
912.976	16824
913.09	16653
913.204	16755
913.318	16729
913.431	16873
913.545	16752
913.659	16858
913.772	16664
913.886	16622
914	16542
914.113	16660
914.226	16713
914.34	16649
914.453	16481
914.566	16516
914.68	16451
914.793	16402
914.906	16299
915.019	16109
915.132	16074
915.245	16090
915.358	16078
915.47	16051
915.583	16147
915.696	16196
915.809	16291
915.921	16242
916.034	16139
916.146	16078
916.259	15998
916.371	16135
916.483	16010
916.595	16032
916.708	15991
916.82	15960
916.932	15808
917.044	15804
917.156	15873
917.268	15770
917.38	15778
917.491	15720
917.603	15698
917.715	15808
917.826	15781
917.938	15679
918.049	15466
918.161	15606
918.272	15694
918.384	15899
918.495	15599
918.606	15580
918.717	15447
918.828	15610
918.939	15591
919.05	15416
919.161	15511
919.272	15340
919.383	15272
919.494	15568
919.604	15690
919.715	15462
919.826	15439
919.936	15359
920.047	15420
920.157	15397
920.267	15652
920.378	15530
920.488	15389
920.598	15629
920.708	15724
920.818	15694
920.928	15439
921.038	15732
921.148	15667
921.258	15397
921.368	15321
921.477	15230
921.587	15199
921.697	15089
921.806	15230
921.916	14967
922.025	14834
922.134	14811
922.244	14735
922.353	14788
922.462	14678
922.571	14648
922.68	14389
922.789	14389
922.898	14503
923.007	14347
923.116	14511
923.224	14480
923.333	14427
923.442	14298
923.55	14183
923.659	14298
923.767	14286
923.876	14157
923.984	14240
924.092	14123
924.201	14096
924.309	14096
924.417	14191
924.525	14123
924.633	14077
924.741	14944
924.849	13906
924.956	14020
925.064	13864
925.172	13757
925.279	13864
925.387	13887
925.494	13761
925.602	13932
925.709	13769
925.816	13632
925.924	13814
926.031	13776
926.138	13712
926.245	13723
926.352	13712
926.459	13757
926.566	13769
926.673	13552
926.779	13426
926.886	13537
926.993	13415
927.099	13392
927.206	13274
927.312	13278
927.419	13293
927.525	13369
927.631	13255
927.737	13247
927.843	13141
927.95	13103
928.056	13160
928.162	13088
928.267	13179
928.373	13658
928.479	13152
928.585	12916
928.69	13069
928.796	13122
928.901	12951
929.007	12795
929.112	12966
929.218	12924
929.323	12821
929.428	12806
929.533	12916
929.638	12715
929.743	12837
929.848	12764
929.953	12753
930.058	12730
930.163	12509
930.267	12498
930.372	12574
930.477	12486
930.581	12616
930.685	12475
930.79	12414
930.894	12426
930.998	12391
931.103	12475
931.207	12076
931.311	12011
931.415	11961
931.519	11695
931.623	11710
