Data from test_V78500241_238.txt Node
Date: Fri Mar 25 15:43:27 CST 2022
User: usil
Spectrometer: V785-0024
Trigger mode: 0
Integration Time (sec): 4.000000E-1
Scans to average: 1
Nonlinearity correction enabled: false
Boxcar width: 0
Storing dark spectrum: false
XAxis mode: Wavelengths
Number of Pixels in Spectrum: 1024
>>>>>Begin Spectral Data<<<<<
801.071	29840
801.214	29528
801.356	29570
801.499	29258
801.641	29235
801.783	29429
801.926	29322
802.068	29311
802.211	29128
802.353	29014
802.496	28961
802.638	28877
802.78	28816
802.923	28782
803.065	28641
803.208	28668
803.35	28934
803.492	28900
803.635	29083
803.777	28786
803.919	29060
804.061	29360
804.204	29029
804.346	28942
804.488	28915
804.63	29044
804.773	28740
804.915	28923
805.057	29151
805.199	28938
805.341	29113
805.483	29162
805.626	29166
805.768	28980
805.91	29090
806.052	29193
806.194	29193
806.336	29353
806.478	29086
806.62	29197
806.762	29258
806.904	29341
807.046	29630
807.188	29672
807.33	29691
807.472	29657
807.614	29379
807.756	29356
807.898	29379
808.04	29265
808.182	29307
808.324	29330
808.465	29151
808.607	29459
808.749	29520
808.891	29691
809.033	29707
809.174	29756
809.316	29748
809.458	29672
809.6	29592
809.741	29813
809.883	29798
810.025	29984
810.166	29870
810.308	29923
810.45	29851
810.591	29954
810.733	29729
810.875	29760
811.016	29722
811.158	29672
811.299	29687
811.441	29882
811.582	29756
811.724	29638
811.865	29619
812.007	29722
812.148	29596
812.29	29676
812.431	29870
812.573	29965
812.714	29920
812.855	30068
812.997	30232
813.138	30536
813.279	30338
813.421	30258
813.562	30114
813.703	30034
813.845	29824
813.986	29448
814.127	29375
814.268	29360
814.41	29395
814.551	29414
814.692	29375
814.833	29239
814.974	29345
815.115	29334
815.256	29124
815.397	29162
815.539	29246
815.68	29083
815.821	29010
815.962	29204
816.103	29143
816.244	28934
816.385	28930
816.526	28683
816.666	28664
816.807	28497
816.948	28630
817.089	28645
817.23	28462
817.371	28470
817.512	28519
817.653	28401
817.793	28379
817.934	28569
818.075	28622
818.216	28573
818.356	28489
818.497	28462
818.638	28291
818.778	28253
818.919	28219
819.06	28409
819.2	28341
819.341	28379
819.481	28405
819.622	28508
819.762	28694
819.903	28877
820.043	28356
820.184	28599
820.324	28512
820.465	28626
820.605	28554
820.746	28519
820.886	28379
821.026	28459
821.167	28489
821.307	28481
821.447	28493
821.588	28341
821.728	28242
821.868	27987
822.008	27774
822.149	27926
822.289	27911
822.429	27519
822.569	27492
822.709	27587
822.849	27287
822.99	27382
823.13	27279
823.27	27252
823.41	27043
823.55	26982
823.69	27287
823.83	27032
823.97	27176
824.11	26864
824.25	26937
824.389	27089
824.529	26979
824.669	26891
824.809	27096
824.949	27024
825.089	26899
825.228	27032
825.368	26796
825.508	26720
825.648	26777
825.787	26804
825.927	26765
826.067	26724
826.206	26739
826.346	26899
826.485	26811
826.625	26853
826.765	26880
826.904	26731
827.044	26575
827.183	26446
827.323	26396
827.462	26480
827.601	26431
827.741	26583
827.88	26469
828.02	26256
828.159	26389
828.298	26446
828.437	26473
828.577	26355
828.716	26514
828.855	26263
828.994	26202
829.134	26240
829.273	26157
829.412	26218
829.551	26062
829.69	26092
829.829	25978
829.968	26187
830.107	26286
830.246	26062
830.385	26024
830.524	25963
830.663	25868
830.802	25807
830.941	25738
831.08	25677
831.219	25757
831.357	25871
831.496	25871
831.635	25586
831.774	25655
831.913	25502
832.051	25506
832.19	25434
832.329	25453
832.467	25407
832.606	25228
832.744	25236
832.883	25362
833.022	25301
833.16	25358
833.299	25419
833.437	25225
833.576	25369
833.714	25381
833.852	25289
833.991	25354
834.129	25343
834.267	25487
834.406	25316
834.544	25453
834.682	25225
834.821	25228
834.959	25540
835.097	25251
835.235	25270
835.373	25392
835.511	25232
835.65	25152
835.788	25031
835.926	25095
836.064	24973
836.202	24981
836.34	25084
836.478	25198
836.615	25015
836.753	25141
836.891	25202
837.029	25091
837.167	25076
837.305	25019
837.443	24996
837.58	25141
837.718	25027
837.856	24913
837.993	24954
838.131	24932
838.269	24802
838.406	24715
838.544	24696
838.681	24589
838.819	24544
838.956	24448
839.094	24365
839.231	24403
839.369	24665
839.506	24810
839.643	24665
839.781	24498
839.918	24384
840.055	24254
840.193	24277
840.33	24319
840.467	24365
840.604	24285
840.742	24597
840.879	24197
841.016	24106
841.153	24129
841.29	24391
841.427	24205
841.564	24228
841.701	24239
841.838	24266
841.975	24140
842.112	24121
842.249	24190
842.385	23904
842.522	24213
842.659	24083
842.796	23882
842.933	23950
843.069	23714
843.206	23878
843.343	23969
843.479	23935
843.616	23946
843.752	23786
843.889	23764
844.025	23882
844.162	23551
844.298	23836
844.435	23756
844.571	23592
844.708	23775
844.844	23908
844.98	23889
845.117	23779
845.253	23497
845.389	23455
845.525	23444
845.661	23497
845.798	23417
845.934	23433
846.07	23330
846.206	23360
846.342	23524
846.478	23315
846.614	23208
846.75	22869
846.886	23083
847.022	23280
847.158	23170
847.294	22957
847.429	23231
847.565	23022
847.701	23239
847.837	22801
847.972	22850
848.108	22911
848.244	22953
848.379	22763
848.515	22596
848.65	22691
848.786	22653
848.921	22725
849.057	22771
849.192	22820
849.328	22824
849.463	22782
849.598	22618
849.734	22645
849.869	22531
850.004	22405
850.14	22489
850.275	22447
850.41	22230
850.545	22356
850.68	22265
850.815	22459
850.95	22424
851.085	22630
851.22	22451
851.355	22428
851.49	22337
851.625	22356
851.76	22329
851.895	22402
852.03	22242
852.165	22394
852.299	22478
852.434	22459
852.569	22348
852.703	22344
852.838	22497
852.973	22554
853.107	22417
853.242	22360
853.376	22147
853.511	21998
853.645	22090
853.78	22284
853.914	22093
854.048	22238
854.183	22219
854.317	22150
854.451	22356
854.585	22101
854.72	22211
854.854	22249
854.988	22086
855.122	22150
855.256	22013
855.39	22276
855.524	22101
855.658	22223
855.792	22173
855.926	22280
856.06	22185
856.194	22325
856.327	22154
856.461	22139
856.595	22158
856.729	22310
856.862	22337
856.996	22128
857.13	22287
857.263	22428
857.397	22299
857.53	22128
857.664	22112
857.797	22276
857.931	22367
858.064	22044
858.197	22303
858.331	22150
858.464	22196
858.597	22116
858.731	22074
858.864	22139
858.997	22093
859.13	22215
859.263	22253
859.396	22150
859.529	22131
859.662	22040
859.795	22105
859.928	22147
860.061	22344
860.194	22200
860.327	22287
860.46	22150
860.592	22249
860.725	22211
860.858	22253
860.99	22150
861.123	22055
861.256	22124
861.388	22150
861.521	22748
861.653	22131
861.786	22051
861.918	21857
862.05	21968
862.183	22177
862.315	22166
862.447	22177
862.58	22112
862.712	21915
862.844	21774
862.976	21918
863.108	21842
863.24	22249
863.372	21781
863.504	21838
863.636	21804
863.768	21899
863.9	21823
864.032	21759
864.164	21736
864.296	21755
864.428	21964
864.559	21728
864.691	21899
864.823	21816
864.954	21800
865.086	21854
865.217	21766
865.349	21568
865.48	21679
865.612	21671
865.743	21884
865.875	21751
866.006	21694
866.137	21709
866.269	21656
866.4	21641
866.531	21614
866.662	21705
866.793	21705
866.924	21660
867.055	21679
867.186	21652
867.317	21488
867.448	21557
867.579	21583
867.71	21610
867.841	21553
867.972	21663
868.103	21641
868.233	21690
868.364	21580
868.495	21671
868.625	21804
868.756	21892
868.886	21800
869.017	21827
869.147	21850
869.278	21915
869.408	21915
869.539	21838
869.669	21895
869.799	21895
869.929	21953
870.06	21949
870.19	22048
870.32	22055
870.45	22097
870.58	22276
870.71	22386
870.84	22421
870.97	22234
871.1	22272
871.23	22489
871.36	22428
871.489	22344
871.619	22367
871.749	22451
871.879	22462
872.008	22603
872.138	22386
872.267	22432
872.397	22382
872.526	22341
872.656	22246
872.785	22287
872.915	22443
873.044	22497
873.173	22516
873.303	22573
873.432	22527
873.561	22561
873.69	22497
873.819	22440
873.948	22603
874.077	22546
874.206	22470
874.335	22546
874.464	22733
874.593	22778
874.722	22702
874.851	22812
874.979	22790
875.108	22771
875.237	22675
875.365	22675
875.494	22630
875.623	22759
875.751	22748
875.88	22721
876.008	22774
876.136	22999
876.265	23174
876.393	23246
876.521	23223
876.65	23208
876.778	23155
876.906	23117
877.034	22980
877.162	23071
877.29	22991
877.418	23037
877.546	23033
877.674	23094
877.802	23060
877.93	23025
878.058	23075
878.185	22942
878.313	23003
878.441	22961
878.568	22877
878.696	23033
878.824	23109
878.951	23170
879.079	23143
879.206	23402
879.333	23022
879.461	23025
879.588	23140
879.715	23235
879.842	23372
879.97	23159
880.097	22995
880.224	22843
880.351	22873
880.478	22839
880.605	22816
880.732	22866
880.859	23033
880.986	22843
881.112	22752
881.239	22683
881.366	22615
881.493	22649
881.619	22451
881.746	22516
881.872	22341
881.999	22371
882.125	22356
882.252	22584
882.378	22417
882.505	22459
882.631	22234
882.757	22230
882.883	22257
883.01	22147
883.136	22067
883.262	22025
883.388	21941
883.514	22196
883.64	22067
883.766	22048
883.892	21918
884.018	21934
884.143	22150
884.269	22120
884.395	21816
884.52	21751
884.646	21819
884.772	21671
884.897	21606
885.023	21842
885.148	21766
885.274	21812
885.399	21785
885.524	21705
885.65	21743
885.775	21926
885.9	21743
886.025	21918
886.15	21895
886.275	21812
886.4	21622
886.525	21755
886.65	21671
886.775	21633
886.9	21907
887.025	21915
887.149	21717
887.274	21576
887.399	21580
887.523	21454
887.648	21500
887.773	21526
887.897	21549
888.021	21511
888.146	21447
888.27	21561
888.395	21504
888.519	21545
888.643	21538
888.767	21439
888.891	21382
889.015	21211
889.139	21325
889.263	21275
889.387	21374
889.511	21389
889.635	21424
889.759	21226
889.883	21310
890.006	21340
890.13	21386
890.254	21203
890.377	21165
890.501	21028
890.624	21028
890.748	21070
890.871	20883
890.995	20796
891.118	20682
891.241	20758
891.364	20929
891.488	20868
891.611	20800
891.734	20800
891.857	20910
891.98	20853
892.103	20864
892.226	20868
892.349	20762
892.471	20629
892.594	20762
892.717	20807
892.839	20686
892.962	20754
893.085	20788
893.207	20602
893.33	20648
893.452	20670
893.575	20902
893.697	20716
893.819	20941
893.941	20876
894.064	20735
894.186	20708
894.308	20739
894.43	20788
894.552	20990
894.674	20686
894.796	20613
894.918	20739
895.04	20758
895.161	20819
895.283	20857
895.405	20651
895.526	20754
895.648	20739
895.769	20724
895.891	20689
896.012	20731
896.134	20724
896.255	20739
896.376	20739
896.498	20712
896.619	20838
896.74	20735
896.861	20823
896.982	21123
897.103	21256
897.224	20929
897.345	21001
897.466	20990
897.587	20937
897.708	21039
897.828	21066
897.949	20887
898.07	20800
898.19	20804
898.311	21074
898.431	20769
898.552	20906
898.672	20914
898.792	20925
898.913	20937
899.033	20708
899.153	20674
899.273	20530
899.393	20712
899.513	20731
899.633	20712
899.753	20609
899.873	20583
899.993	20651
900.113	20583
900.232	20533
900.352	20484
900.472	20495
900.591	20370
900.711	20465
900.83	20366
900.95	20568
901.069	20469
901.189	20298
901.308	20065
901.427	19936
901.546	19955
901.665	19982
901.784	20027
901.904	19830
902.023	19784
902.141	19575
902.26	19487
902.379	19563
902.498	19502
902.617	19384
902.735	19400
902.854	19449
902.973	19350
903.091	19099
903.21	19171
903.328	19145
903.446	19031
903.565	18924
903.683	18886
903.801	18795
903.919	18871
904.038	18928
904.156	18787
904.274	18730
904.392	18677
904.51	18681
904.627	18719
904.745	18722
904.863	18779
904.981	18517
905.098	18380
905.216	18323
905.334	18327
905.451	18319
905.569	18251
905.686	18346
905.803	18224
905.921	18155
906.038	18152
906.155	18232
906.272	18076
906.389	18038
906.506	17783
906.623	17885
906.74	17843
906.857	17790
906.974	17779
907.091	17931
907.208	17999
907.324	17775
907.441	17874
907.557	17554
907.674	17501
907.79	17493
907.907	17478
908.023	17570
908.139	17493
908.256	17391
908.372	17417
908.488	17452
908.604	17235
908.72	17261
908.836	17269
908.952	17223
909.068	17227
909.184	17326
909.3	17280
909.415	17265
909.531	17143
909.647	17022
909.762	16991
909.878	16942
909.993	16908
910.108	16885
910.224	16908
910.339	16934
910.454	16908
910.57	16771
910.685	16596
910.8	16881
910.915	16831
911.03	16656
911.145	16554
911.259	16493
911.374	16489
911.489	16371
911.604	16394
911.718	16188
911.833	16169
911.947	16078
912.062	16112
912.176	16314
912.291	16280
912.405	16367
912.519	16394
912.633	16367
912.748	16234
912.862	16154
912.976	16048
913.09	15888
913.204	15888
913.318	16021
913.431	16032
913.545	16112
913.659	16120
913.772	16021
913.886	15907
914	15762
914.113	15937
914.226	15915
914.34	15789
914.453	15766
914.566	15865
914.68	15747
914.793	15618
914.906	15530
915.019	15492
915.132	15428
915.245	15393
915.358	15447
915.47	15435
915.583	15458
915.696	15538
915.809	15511
915.921	15610
916.034	15355
916.146	15252
916.259	15260
916.371	15363
916.483	15439
916.595	15272
916.708	15332
916.82	15325
916.932	15188
917.044	15176
917.156	15184
917.268	15108
917.38	15097
917.491	15097
917.603	15077
917.715	15260
917.826	15226
917.938	14975
918.049	14944
918.161	15013
918.272	15169
918.384	15256
918.495	14952
918.606	14834
918.717	14842
918.828	14826
918.939	14815
919.05	14651
919.161	14765
919.272	14667
919.383	14659
919.494	14834
919.604	15020
919.715	14769
919.826	14731
919.936	14849
920.047	14857
920.157	14804
920.267	14979
920.378	14838
920.488	14804
920.598	14937
920.708	15138
920.818	14861
920.928	14872
921.038	15043
921.148	14963
921.258	14762
921.368	14632
921.477	14488
921.587	14552
921.697	14347
921.806	14590
921.916	14324
922.025	14237
922.134	14161
922.244	14176
922.353	14100
922.462	14092
922.571	13902
922.68	13887
922.789	13830
922.898	13734
923.007	13685
923.116	13738
923.224	13776
923.333	13765
923.442	13601
923.55	13624
923.659	13609
923.767	13666
923.876	13468
923.984	13647
924.092	13457
924.201	13533
924.309	13460
924.417	13487
924.525	13354
924.633	13430
924.741	14164
924.849	13251
924.956	13350
925.064	13141
925.172	13221
925.279	13118
925.387	13202
925.494	13164
925.602	13289
925.709	13289
925.816	13103
925.924	13114
926.031	13187
926.138	13091
926.245	13133
926.352	13012
926.459	13168
926.566	13293
926.673	12970
926.779	12928
926.886	12894
926.993	12779
927.099	12730
927.206	12673
927.312	12696
927.419	12681
927.525	12677
927.631	12692
927.737	12593
927.843	12612
927.95	12429
928.056	12574
928.162	12544
928.267	12627
928.373	13251
928.479	12517
928.585	12281
928.69	12521
928.796	12502
928.901	12429
929.007	12239
929.112	12414
929.218	12304
929.323	12197
929.428	12323
929.533	12407
929.638	12205
929.743	12197
929.848	12235
929.953	12247
930.058	12049
930.163	11923
930.267	11916
930.372	12053
930.477	11859
930.581	12053
930.685	11965
930.79	11779
930.894	11927
930.998	11745
931.103	11954
931.207	11539
931.311	11452
931.415	11364
931.519	11265
931.623	11181
