Data from test_V78500241_2013.txt Node
Date: Fri Mar 25 15:55:44 CST 2022
User: usil
Spectrometer: V785-0024
Trigger mode: 0
Integration Time (sec): 4.000000E-1
Scans to average: 1
Nonlinearity correction enabled: false
Boxcar width: 0
Storing dark spectrum: false
XAxis mode: Wavelengths
Number of Pixels in Spectrum: 1024
>>>>>Begin Spectral Data<<<<<
801.071	28440
801.214	28394
801.356	28284
801.499	28238
801.641	28093
801.783	28082
801.926	28143
802.068	28158
802.211	27869
802.353	27991
802.496	27724
802.638	27720
802.78	27835
802.923	27652
803.065	27804
803.208	27622
803.35	27937
803.492	27968
803.635	27903
803.777	27728
803.919	27892
804.061	28337
804.204	27998
804.346	27895
804.488	28006
804.63	27941
804.773	27937
804.915	27987
805.057	28116
805.199	27895
805.341	28192
805.483	28116
805.626	28116
805.768	28044
805.91	28150
806.052	28120
806.194	27994
806.336	28272
806.478	28101
806.62	28131
806.762	28211
806.904	28337
807.046	28637
807.188	28561
807.33	28516
807.472	28683
807.614	28512
807.756	28596
807.898	28409
808.04	28447
808.182	28371
808.324	28497
808.465	28436
808.607	28637
808.749	28698
808.891	28763
809.033	28942
809.174	28934
809.316	28641
809.458	28729
809.6	28759
809.741	28877
809.883	28976
810.025	29178
810.166	28991
810.308	29033
810.45	29113
810.591	28919
810.733	28904
810.875	28816
811.016	28561
811.158	28596
811.299	28790
811.441	28972
811.582	28972
811.724	28702
811.865	28820
812.007	28691
812.148	28843
812.29	28843
812.431	28980
812.573	29147
812.714	29197
812.855	29326
812.997	29444
813.138	29452
813.279	29558
813.421	29254
813.562	29189
813.703	29174
813.845	29029
813.986	28854
814.127	28500
814.268	28580
814.41	28527
814.551	28455
814.692	28538
814.833	28409
814.974	28356
815.115	28592
815.256	28398
815.397	28207
815.539	28348
815.68	28306
815.821	28249
815.962	28401
816.103	28303
816.244	28341
816.385	28177
816.526	27972
816.666	28048
816.807	27789
816.948	27892
817.089	27937
817.23	27964
817.371	27751
817.512	27789
817.653	27869
817.793	27827
817.934	27789
818.075	27888
818.216	27800
818.356	27610
818.497	27625
818.638	27576
818.778	27523
818.919	27553
819.06	27618
819.2	27648
819.341	27903
819.481	27789
819.622	27937
819.762	28154
819.903	28051
820.043	27956
820.184	27907
820.324	27861
820.465	28013
820.605	27797
820.746	27850
820.886	27728
821.026	27679
821.167	27789
821.307	28070
821.447	27846
821.588	27797
821.728	27759
821.868	27447
822.008	27195
822.149	27211
822.289	27405
822.429	27024
822.569	26925
822.709	27005
822.849	26830
822.99	26792
823.13	26720
823.27	26792
823.41	26625
823.55	26465
823.69	26469
823.83	26598
823.97	26533
824.11	26389
824.25	26434
824.389	26298
824.529	26393
824.669	26560
824.809	26659
824.949	26438
825.089	26450
825.228	26549
825.368	26240
825.508	26358
825.648	26381
825.787	26282
825.927	26328
826.067	26317
826.206	26366
826.346	26351
826.485	26343
826.625	26305
826.765	26347
826.904	26362
827.044	26016
827.183	26058
827.323	26012
827.462	26142
827.601	26024
827.741	25955
827.88	26039
828.02	26001
828.159	26035
828.298	26081
828.437	25993
828.577	26062
828.716	26161
828.855	25951
828.994	25723
829.134	25681
829.273	25715
829.412	25635
829.551	25700
829.69	25723
829.829	25803
829.968	25788
830.107	25677
830.246	25712
830.385	25616
830.524	25613
830.663	25468
830.802	25430
830.941	25346
831.08	25285
831.219	25308
831.357	25388
831.496	25609
831.635	25346
831.774	25274
831.913	25247
832.051	25023
832.19	25107
832.329	25000
832.467	24958
832.606	24867
832.744	24897
832.883	24954
833.022	24973
833.16	24981
833.299	25008
833.437	25072
833.576	25000
833.714	25084
833.852	25015
833.991	25137
834.129	25217
834.267	25080
834.406	24916
834.544	25187
834.682	25103
834.821	25034
834.959	25179
835.097	24992
835.235	25072
835.373	24932
835.511	25053
835.65	24806
835.788	24901
835.926	24772
836.064	24646
836.202	24730
836.34	24901
836.478	25019
836.615	24795
836.753	24738
836.891	24951
837.029	24920
837.167	24814
837.305	24669
837.443	24719
837.58	24722
837.718	24627
837.856	24795
837.993	24692
838.131	24601
838.269	24677
838.406	24635
838.544	24505
838.681	24308
838.819	24346
838.956	24053
839.094	24197
839.231	24110
839.369	24315
839.506	24445
839.643	24361
839.781	24102
839.918	23988
840.055	24155
840.193	24098
840.33	23904
840.467	24140
840.604	24140
840.742	24369
840.879	23904
841.016	23992
841.153	24049
841.29	24171
841.427	24095
841.564	23996
841.701	24140
841.838	23935
841.975	23786
842.112	23942
842.249	23923
842.385	23771
842.522	24144
842.659	23904
842.796	23817
842.933	23836
843.069	23836
843.206	23699
843.343	23939
843.479	23836
843.616	23794
843.752	23551
843.889	23699
844.025	23687
844.162	23653
844.298	23756
844.435	23611
844.571	23482
844.708	23703
844.844	23901
844.98	23737
845.117	23756
845.253	23668
845.389	23505
845.525	23547
845.661	23452
845.798	23368
845.934	23379
846.07	23372
846.206	23383
846.342	23376
846.478	23204
846.614	23181
846.75	22991
846.886	23075
847.022	23113
847.158	23033
847.294	23121
847.429	23136
847.565	22995
847.701	23220
847.837	22896
847.972	22828
848.108	22877
848.244	22816
848.379	22877
848.515	22759
848.65	22660
848.786	22717
848.921	22683
849.057	22759
849.192	22805
849.328	22607
849.463	22607
849.598	22626
849.734	22557
849.869	22481
850.004	22325
850.14	22375
850.275	22447
850.41	22310
850.545	22352
850.68	22348
850.815	22405
850.95	22466
851.085	22740
851.22	22523
851.355	22500
851.49	22436
851.625	22329
851.76	22344
851.895	22352
852.03	22295
852.165	22436
852.299	22386
852.434	22440
852.569	22554
852.703	22493
852.838	22546
852.973	22626
853.107	22577
853.242	22344
853.376	22207
853.511	22109
853.645	22185
853.78	22284
853.914	22253
854.048	22192
854.183	22272
854.317	22238
854.451	22402
854.585	22253
854.72	22306
854.854	22261
854.988	22185
855.122	22276
855.256	22230
855.39	22215
855.524	22352
855.658	22287
855.792	22375
855.926	22337
856.06	22223
856.194	22306
856.327	22265
856.461	22177
856.595	22063
856.729	22185
856.862	22261
856.996	22348
857.13	22192
857.263	22386
857.397	22405
857.53	22109
857.664	22154
857.797	22299
857.931	22459
858.064	22234
858.197	22272
858.331	22272
858.464	22143
858.597	22158
858.731	22181
858.864	22169
858.997	22154
859.13	22268
859.263	22246
859.396	22276
859.529	22234
859.662	22139
859.795	22230
859.928	22253
860.061	22436
860.194	22287
860.327	22280
860.46	22207
860.592	22360
860.725	22322
860.858	22306
860.99	22207
861.123	22147
861.256	22204
861.388	22188
861.521	22980
861.653	22067
861.786	21945
861.918	22017
862.05	22006
862.183	22006
862.315	22143
862.447	22219
862.58	22131
862.712	21926
862.844	21922
862.976	22109
863.108	21994
863.24	22363
863.372	21934
863.504	21888
863.636	21888
863.768	21911
863.9	21998
864.032	21899
864.164	21895
864.296	21941
864.428	21922
864.559	21960
864.691	22032
864.823	21918
864.954	21937
865.086	21979
865.217	21804
865.349	21682
865.48	21781
865.612	21835
865.743	21797
865.875	21865
866.006	21774
866.137	21720
866.269	21751
866.4	21732
866.531	21728
866.662	21686
866.793	21644
866.924	21717
867.055	21785
867.186	21682
867.317	21694
867.448	21534
867.579	21572
867.71	21648
867.841	21583
867.972	21774
868.103	21804
868.233	21717
868.364	21743
868.495	21869
868.625	21949
868.756	22120
868.886	21884
869.017	21983
869.147	22025
869.278	22112
869.408	21956
869.539	21972
869.669	22055
869.799	21964
869.929	21994
870.06	22150
870.19	22135
870.32	22337
870.45	22329
870.58	22348
870.71	22379
870.84	22542
870.97	22272
871.1	22382
871.23	22577
871.36	22481
871.489	22253
871.619	22637
871.749	22592
871.879	22508
872.008	22656
872.138	22622
872.267	22462
872.397	22573
872.526	22428
872.656	22516
872.785	22398
872.915	22736
873.044	22721
873.173	22569
873.303	22706
873.432	22538
873.561	22687
873.69	22424
873.819	22557
873.948	22702
874.077	22569
874.206	22550
874.335	22626
874.464	22573
874.593	22965
874.722	22850
874.851	22942
874.979	22866
875.108	22953
875.237	22790
875.365	22733
875.494	22843
875.623	22889
875.751	22809
875.88	22809
876.008	23022
876.136	22991
876.265	23280
876.393	23318
876.521	23246
876.65	23220
876.778	23124
876.906	23197
877.034	23235
877.162	23155
877.29	23105
877.418	23064
877.546	23033
877.674	23220
877.802	23132
877.93	23170
878.058	23124
878.185	23071
878.313	23185
878.441	23105
878.568	22999
878.696	23235
878.824	23235
878.951	23223
879.079	23322
879.206	23414
879.333	23296
879.461	23193
879.588	23326
879.715	23398
879.842	23395
879.97	23261
880.097	22980
880.224	23006
880.351	22946
880.478	23010
880.605	22904
880.732	22889
880.859	23261
880.986	22919
881.112	23025
881.239	22835
881.366	22729
881.493	22626
881.619	22634
881.746	22580
881.872	22698
881.999	22573
882.125	22500
882.252	22516
882.378	22451
882.505	22580
882.631	22466
882.757	22341
882.883	22341
883.01	22230
883.136	22234
883.262	22032
883.388	22025
883.514	22280
883.64	22318
883.766	22154
883.892	21888
884.018	22112
884.143	22249
884.269	22295
884.395	21922
884.52	21804
884.646	21808
884.772	21743
884.897	21743
885.023	21873
885.148	21956
885.274	21884
885.399	21956
885.524	22029
885.65	21857
885.775	21888
885.9	21838
886.025	21880
886.15	22006
886.275	21880
886.4	21720
886.525	21785
886.65	21652
886.775	21816
886.9	21934
887.025	22063
887.149	21915
887.274	21599
887.399	21580
887.523	21538
887.648	21614
887.773	21511
887.897	21644
888.021	21603
888.146	21622
888.27	21686
888.395	21747
888.519	21629
888.643	21686
888.767	21762
888.891	21534
889.015	21462
889.139	21507
889.263	21370
889.387	21424
889.511	21504
889.635	21606
889.759	21424
889.883	21386
890.006	21599
890.13	21397
890.254	21351
890.377	21344
890.501	21173
890.624	21131
890.748	21233
890.871	21005
890.995	20956
891.118	20944
891.241	20971
891.364	21051
891.488	21009
891.611	20948
891.734	20929
891.857	21013
891.98	21001
892.103	21028
892.226	20952
892.349	20815
892.471	20834
892.594	20914
892.717	20921
892.839	20895
892.962	20819
893.085	20811
893.207	20849
893.33	20788
893.452	20724
893.575	20857
893.697	20663
893.819	20868
893.941	21024
894.064	21028
894.186	20746
894.308	20686
894.43	20861
894.552	20971
894.674	20998
894.796	20678
894.918	20864
895.04	20838
895.161	21043
895.283	20963
895.405	20826
895.526	20857
895.648	20864
895.769	20845
895.891	20773
896.012	20925
896.134	20895
896.255	20857
896.376	20735
896.498	20792
896.619	20914
896.74	20971
896.861	20937
896.982	21142
897.103	21237
897.224	21287
897.345	21039
897.466	21081
897.587	21013
897.708	21070
897.828	21039
897.949	21096
898.07	20815
898.19	20998
898.311	21138
898.431	20872
898.552	20975
898.672	21142
898.792	21066
898.913	21028
899.033	20925
899.153	20921
899.273	20743
899.393	20765
899.513	20735
899.633	20800
899.753	20834
899.873	20701
899.993	20895
900.113	20914
900.232	20792
900.352	20739
900.472	20663
900.591	20560
900.711	20571
900.83	20511
900.95	20640
901.069	20583
901.189	20393
901.308	20305
901.427	20176
901.546	20172
901.665	20130
901.784	20172
901.904	20027
902.023	19814
902.141	19784
902.26	19609
902.379	19670
902.498	19689
902.617	19670
902.735	19601
902.854	19632
902.973	19601
903.091	19274
903.21	19377
903.328	19362
903.446	19259
903.565	18993
903.683	19057
903.801	19031
903.919	19065
904.038	19072
904.156	18901
904.274	19038
904.392	18909
904.51	18821
904.627	18863
904.745	18844
904.863	18894
904.981	18616
905.098	18604
905.216	18471
905.334	18570
905.451	18623
905.569	18391
905.686	18460
905.803	18532
905.921	18353
906.038	18395
906.155	18365
906.272	18190
906.389	18220
906.506	18148
906.623	18034
906.74	18064
906.857	17908
906.974	18045
907.091	18121
907.208	18159
907.324	17996
907.441	17965
907.557	17809
907.674	17779
907.79	17790
907.907	17672
908.023	17657
908.139	17779
908.256	17695
908.372	17585
908.488	17634
908.604	17539
908.72	17516
908.836	17501
908.952	17433
909.068	17512
909.184	17604
909.3	17474
909.415	17497
909.531	17433
909.647	17246
909.762	17212
909.878	17181
909.993	17109
910.108	17098
910.224	17204
910.339	17109
910.454	17090
910.57	17006
910.685	16843
910.8	17189
910.915	17151
911.03	16900
911.145	16824
911.259	16736
911.374	16805
911.489	16675
911.604	16755
911.718	16519
911.833	16519
911.947	16417
912.062	16413
912.176	16523
912.291	16455
912.405	16485
912.519	16698
912.633	16691
912.748	16493
912.862	16470
912.976	16322
913.09	16147
913.204	16337
913.318	16299
913.431	16386
913.545	16318
913.659	16398
913.772	16246
913.886	16169
914	16131
914.113	16112
914.226	16215
914.34	16150
914.453	16002
914.566	16074
914.68	15998
914.793	16048
914.906	15770
915.019	15717
915.132	15576
915.245	15816
915.358	15641
915.47	15713
915.583	15618
915.696	15633
915.809	15800
915.921	15823
916.034	15705
916.146	15538
916.259	15542
916.371	15606
916.483	15587
916.595	15629
916.708	15587
916.82	15439
916.932	15393
917.044	15302
917.156	15435
917.268	15336
917.38	15351
917.491	15306
917.603	15268
917.715	15378
917.826	15351
917.938	15249
918.049	15165
918.161	15104
918.272	15363
918.384	15401
918.495	15283
918.606	15157
918.717	14990
918.828	15150
918.939	15173
919.05	14872
919.161	15104
919.272	14937
919.383	14796
919.494	15051
919.604	15245
919.715	15028
919.826	14971
919.936	14906
920.047	15142
920.157	15039
920.267	15116
920.378	15013
920.488	14933
920.598	15176
920.708	15336
920.818	15150
920.928	15055
921.038	15336
921.148	15237
921.258	14956
921.368	14918
921.477	14788
921.587	14720
921.697	14697
921.806	14708
921.916	14629
922.025	14469
922.134	14442
922.244	14351
922.353	14339
922.462	14294
922.571	14202
922.68	14126
922.789	14073
922.898	13967
923.007	13963
923.116	14020
923.224	14008
923.333	14031
923.442	13860
923.55	13830
923.659	13894
923.767	13967
923.876	13746
923.984	13845
924.092	13727
924.201	13712
924.309	13723
924.417	13689
924.525	13696
924.633	13594
924.741	14442
924.849	13525
924.956	13613
925.064	13453
925.172	13316
925.279	13362
925.387	13411
925.494	13419
925.602	13529
925.709	13453
925.816	13240
925.924	13308
926.031	13373
926.138	13282
926.245	13358
926.352	13164
926.459	13381
926.566	13373
926.673	13251
926.779	13289
926.886	13095
926.993	13023
927.099	13031
927.206	12916
927.312	12878
927.419	13027
927.525	12878
927.631	13004
927.737	12791
927.843	12783
927.95	12677
928.056	12844
928.162	12821
928.267	12779
928.373	13388
928.479	12901
928.585	12570
928.69	12726
928.796	12787
928.901	12665
929.007	12525
929.112	12650
929.218	12662
929.323	12513
929.428	12437
929.533	12566
929.638	12452
929.743	12448
929.848	12441
929.953	12380
930.058	12315
930.163	12152
930.267	12140
930.372	12376
930.477	12019
930.581	12350
930.685	12178
930.79	12072
930.894	12068
930.998	11992
931.103	12121
931.207	11760
931.311	11649
931.415	11634
931.519	11311
931.623	11341
