Data from test_V78500241_1534.txt Node
Date: Fri Mar 25 15:52:25 CST 2022
User: usil
Spectrometer: V785-0024
Trigger mode: 0
Integration Time (sec): 4.000000E-1
Scans to average: 1
Nonlinearity correction enabled: false
Boxcar width: 0
Storing dark spectrum: false
XAxis mode: Wavelengths
Number of Pixels in Spectrum: 1024
>>>>>Begin Spectral Data<<<<<
801.071	28299
801.214	28249
801.356	28044
801.499	28074
801.641	27972
801.783	27880
801.926	28032
802.068	27755
802.211	27949
802.353	27785
802.496	27625
802.638	27641
802.78	27485
802.923	27603
803.065	27370
803.208	27519
803.35	27595
803.492	27641
803.635	27751
803.777	27648
803.919	27557
804.061	28139
804.204	27892
804.346	27835
804.488	27770
804.63	27770
804.773	27827
804.915	27914
805.057	27892
805.199	27720
805.341	27759
805.483	27975
805.626	27991
805.768	27918
805.91	28044
806.052	28017
806.194	27873
806.336	28124
806.478	27991
806.62	27941
806.762	28143
806.904	28162
807.046	28443
807.188	28299
807.33	28401
807.472	28421
807.614	28394
807.756	28379
807.898	28280
808.04	28356
808.182	28238
808.324	28219
808.465	28390
808.607	28405
808.749	28607
808.891	28615
809.033	28729
809.174	28790
809.316	28664
809.458	28626
809.6	28645
809.741	28869
809.883	28645
810.025	28904
810.166	28877
810.308	28915
810.45	28892
810.591	28828
810.733	28584
810.875	28592
811.016	28592
811.158	28493
811.299	28805
811.441	28744
811.582	28809
811.724	28691
811.865	28542
812.007	28615
812.148	28489
812.29	28755
812.431	28831
812.573	28987
812.714	29056
812.855	29124
812.997	29204
813.138	29349
813.279	29315
813.421	29162
813.562	29102
813.703	28900
813.845	28942
813.986	28489
814.127	28569
814.268	28436
814.41	28436
814.551	28276
814.692	28489
814.833	28272
814.974	28272
815.115	28276
815.256	28150
815.397	28196
815.539	28219
815.68	28101
815.821	28223
815.962	28040
816.103	28036
816.244	28093
816.385	27907
816.526	27793
816.666	27766
816.807	27679
816.948	27686
817.089	27747
817.23	27698
817.371	27694
817.512	27762
817.653	27751
817.793	27694
817.934	27667
818.075	27701
818.216	27709
818.356	27641
818.497	27431
818.638	27439
818.778	27294
818.919	27454
819.06	27443
819.2	27412
819.341	27637
819.481	27629
819.622	27831
819.762	27972
819.903	27884
820.043	27793
820.184	27812
820.324	27713
820.465	27869
820.605	27755
820.746	27682
820.886	27690
821.026	27770
821.167	27759
821.307	27755
821.447	27701
821.588	27477
821.728	27382
821.868	27268
822.008	27100
822.149	27264
822.289	27150
822.429	26891
822.569	26781
822.709	26826
822.849	26674
822.99	26659
823.13	26533
823.27	26701
823.41	26469
823.55	26355
823.69	26511
823.83	26533
823.97	26374
824.11	26267
824.25	26278
824.389	26313
824.529	26396
824.669	26317
824.809	26294
824.949	26431
825.089	26438
825.228	26400
825.368	26149
825.508	26122
825.648	26191
825.787	26191
825.927	26320
826.067	26161
826.206	26084
826.346	26343
826.485	26339
826.625	26092
826.765	26294
826.904	26225
827.044	25963
827.183	25894
827.323	25875
827.462	25966
827.601	25868
827.741	25890
827.88	25875
828.02	25772
828.159	25837
828.298	25822
828.437	26031
828.577	25845
828.716	25993
828.855	25772
828.994	25597
829.134	25655
829.273	25590
829.412	25479
829.551	25434
829.69	25441
829.829	25616
829.968	25712
830.107	25696
830.246	25495
830.385	25597
830.524	25514
830.663	25335
830.802	25236
830.941	25126
831.08	25206
831.219	25190
831.357	25301
831.496	25362
831.635	25072
831.774	25183
831.913	25038
832.051	24897
832.19	25008
832.329	24973
832.467	24875
832.606	24791
832.744	24833
832.883	24897
833.022	24783
833.16	25023
833.299	24920
833.437	25012
833.576	25008
833.714	24943
833.852	25019
833.991	24992
834.129	25000
834.267	24894
834.406	24924
834.544	24932
834.682	24886
834.821	24802
834.959	25107
835.097	24939
835.235	24977
835.373	24867
835.511	24935
835.65	24848
835.788	24764
835.926	24776
836.064	24528
836.202	24646
836.34	24806
836.478	24867
836.615	24711
836.753	24738
836.891	24688
837.029	24745
837.167	24734
837.305	24639
837.443	24627
837.58	24654
837.718	24601
837.856	24608
837.993	24585
838.131	24486
838.269	24532
838.406	24467
838.544	24361
838.681	24171
838.819	24232
838.956	24034
839.094	24018
839.231	24079
839.369	24167
839.506	24623
839.643	24365
839.781	24022
839.918	24034
840.055	24095
840.193	24038
840.33	24018
840.467	24045
840.604	24041
840.742	24285
840.879	23798
841.016	23897
841.153	23775
841.29	23996
841.427	24049
841.564	24022
841.701	23954
841.838	23874
841.975	23965
842.112	23878
842.249	23771
842.385	23581
842.522	23988
842.659	23893
842.796	23794
842.933	23790
843.069	23752
843.206	23653
843.343	23897
843.479	23600
843.616	23863
843.752	23467
843.889	23486
844.025	23668
844.162	23509
844.298	23524
844.435	23490
844.571	23490
844.708	23528
844.844	23691
844.98	23710
845.117	23627
845.253	23395
845.389	23360
845.525	23566
845.661	23334
845.798	23269
845.934	23235
846.07	23128
846.206	23277
846.342	23356
846.478	23208
846.614	22984
846.75	22793
846.886	22987
847.022	22961
847.158	22881
847.294	22877
847.429	22923
847.565	22790
847.701	23326
847.837	22615
847.972	22653
848.108	22748
848.244	22752
848.379	22694
848.515	22615
848.65	22512
848.786	22481
848.921	22462
849.057	22740
849.192	22634
849.328	22538
849.463	22527
849.598	22421
849.734	22504
849.869	22474
850.004	22325
850.14	22398
850.275	22386
850.41	22124
850.545	22226
850.68	22322
850.815	22295
850.95	22207
851.085	22478
851.22	22322
851.355	22386
851.49	22333
851.625	22386
851.76	22211
851.895	22265
852.03	22215
852.165	22147
852.299	22371
852.434	22421
852.569	22379
852.703	22367
852.838	22287
852.973	22440
853.107	22474
853.242	22268
853.376	22158
853.511	22055
853.645	22105
853.78	22249
853.914	22093
854.048	22181
854.183	22211
854.317	22280
854.451	22360
854.585	22109
854.72	22101
854.854	22143
854.988	22097
855.122	22173
855.256	22097
855.39	22166
855.524	22181
855.658	22238
855.792	22253
855.926	22150
856.06	22109
856.194	22215
856.327	22105
856.461	22025
856.595	22131
856.729	22192
856.862	22257
856.996	22188
857.13	22234
857.263	22337
857.397	22169
857.53	22040
857.664	22139
857.797	22185
857.931	22188
858.064	22150
858.197	22181
858.331	21998
858.464	22013
858.597	22036
858.731	22112
858.864	22055
858.997	22070
859.13	22162
859.263	22192
859.396	22105
859.529	22147
859.662	21998
859.795	22181
859.928	22131
860.061	22280
860.194	22207
860.327	22173
860.46	22074
860.592	22249
860.725	22253
860.858	22295
860.99	22101
861.123	22032
861.256	22143
861.388	22173
861.521	22729
861.653	22070
861.786	21907
861.918	22032
862.05	22006
862.183	22078
862.315	22090
862.447	22139
862.58	22029
862.712	21907
862.844	21759
862.976	21941
863.108	21876
863.24	22371
863.372	21789
863.504	21953
863.636	21812
863.768	21774
863.9	21743
864.032	21694
864.164	21755
864.296	21850
864.428	21922
864.559	21823
864.691	21785
864.823	21800
864.954	21869
865.086	21800
865.217	21789
865.349	21751
865.48	21663
865.612	21770
865.743	21850
865.875	21778
866.006	21622
866.137	21827
866.269	21641
866.4	21823
866.531	21667
866.662	21667
866.793	21625
866.924	21595
867.055	21747
867.186	21652
867.317	21648
867.448	21614
867.579	21553
867.71	21428
867.841	21698
867.972	21709
868.103	21637
868.233	21686
868.364	21682
868.495	21789
868.625	21804
868.756	21979
868.886	21793
869.017	21831
869.147	22021
869.278	21937
869.408	21861
869.539	21842
869.669	21846
869.799	21861
869.929	21987
870.06	22097
870.19	22070
870.32	22120
870.45	22360
870.58	22295
870.71	22363
870.84	22432
870.97	22375
871.1	22341
871.23	22519
871.36	22417
871.489	22348
871.619	22371
871.749	22504
871.879	22523
872.008	22584
872.138	22462
872.267	22443
872.397	22344
872.526	22344
872.656	22303
872.785	22306
872.915	22554
873.044	22542
873.173	22481
873.303	22512
873.432	22478
873.561	22717
873.69	22656
873.819	22432
873.948	22478
874.077	22436
874.206	22421
874.335	22611
874.464	22725
874.593	22759
874.722	22679
874.851	22759
874.979	22713
875.108	22725
875.237	22687
875.365	22653
875.494	22637
875.623	22721
875.751	22721
875.88	22717
876.008	22900
876.136	22805
876.265	23071
876.393	23311
876.521	23277
876.65	23170
876.778	23029
876.906	22896
877.034	23060
877.162	22949
877.29	23025
877.418	23006
877.546	23094
877.674	23037
877.802	23086
877.93	23052
878.058	22995
878.185	23014
878.313	23018
878.441	22953
878.568	22790
878.696	22873
878.824	23052
878.951	23132
879.079	23265
879.206	23303
879.333	23303
879.461	22984
879.588	23181
879.715	23235
879.842	23364
879.97	23193
880.097	22885
880.224	22824
880.351	22946
880.478	22991
880.605	22854
880.732	22889
880.859	23193
880.986	22858
881.112	22934
881.239	22702
881.366	22615
881.493	22542
881.619	22538
881.746	22443
881.872	22436
881.999	22295
882.125	22318
882.252	22466
882.378	22417
882.505	22512
882.631	22215
882.757	22116
882.883	22306
883.01	22036
883.136	22101
883.262	22101
883.388	21915
883.514	22192
883.64	22188
883.766	22044
883.892	21880
884.018	21998
884.143	22051
884.269	22154
884.395	21800
884.52	21732
884.646	21728
884.772	21633
884.897	21610
885.023	21770
885.148	21835
885.274	21865
885.399	21827
885.524	21808
885.65	21838
885.775	21694
885.9	21686
886.025	21789
886.15	21857
886.275	21690
886.4	21610
886.525	21717
886.65	21717
886.775	21614
886.9	21842
887.025	21994
887.149	21762
887.274	21622
887.399	21561
887.523	21568
887.648	21473
887.773	21401
887.897	21564
888.021	21637
888.146	21458
888.27	21648
888.395	21724
888.519	21629
888.643	21561
888.767	21561
888.891	21447
889.015	21332
889.139	21492
889.263	21332
889.387	21340
889.511	21500
889.635	21485
889.759	21237
889.883	21195
890.006	21230
890.13	21329
890.254	21264
890.377	21264
890.501	21100
890.624	20998
890.748	20998
890.871	21108
890.995	20693
891.118	20853
891.241	20891
891.364	20765
891.488	21032
891.611	20830
891.734	20944
891.857	20910
891.98	20769
892.103	20982
892.226	20845
892.349	20754
892.471	20617
892.594	20781
892.717	20781
892.839	20693
892.962	20731
893.085	20944
893.207	20716
893.33	20659
893.452	20701
893.575	20811
893.697	20670
893.819	20941
893.941	20971
894.064	20906
894.186	20720
894.308	20712
894.43	20708
894.552	20937
894.674	20830
894.796	20560
894.918	20720
895.04	20819
895.161	20800
895.283	20853
895.405	20750
895.526	20758
895.648	20632
895.769	20663
895.891	20857
896.012	20811
896.134	20876
896.255	20853
896.376	20788
896.498	20838
896.619	20781
896.74	20826
896.861	20800
896.982	21066
897.103	21138
897.224	21001
897.345	21074
897.466	20906
897.587	20872
897.708	21066
897.828	20918
897.949	20845
898.07	20781
898.19	20788
898.311	21104
898.431	20921
898.552	20883
898.672	21024
898.792	20952
898.913	21043
899.033	20933
899.153	20758
899.273	20583
899.393	20769
899.513	20701
899.633	20781
899.753	20876
899.873	20571
899.993	20716
900.113	20613
900.232	20454
900.352	20533
900.472	20594
900.591	20552
900.711	20579
900.83	20347
900.95	20518
901.069	20549
901.189	20294
901.308	20039
901.427	20058
901.546	20187
901.665	19997
901.784	19974
901.904	19925
902.023	19788
902.141	19620
902.26	19582
902.379	19643
902.498	19571
902.617	19540
902.735	19575
902.854	19529
902.973	19476
903.091	19240
903.21	19148
903.328	19187
903.446	19145
903.565	19019
903.683	18981
903.801	18928
903.919	18878
904.038	18924
904.156	18814
904.274	18924
904.392	18707
904.51	18806
904.627	18719
904.745	18810
904.863	18817
904.981	18555
905.098	18471
905.216	18422
905.334	18483
905.451	18448
905.569	18517
905.686	18460
905.803	18426
905.921	18232
906.038	18391
906.155	18330
906.272	18072
906.389	18106
906.506	18106
906.623	18041
906.74	17866
906.857	17908
906.974	17851
907.091	18064
907.208	18117
907.324	17961
907.441	17904
907.557	17828
907.674	17611
907.79	17611
907.907	17710
908.023	17665
908.139	17726
908.256	17547
908.372	17509
908.488	17551
908.604	17406
908.72	17421
908.836	17417
908.952	17376
909.068	17398
909.184	17444
909.3	17376
909.415	17307
909.531	17410
909.647	17132
909.762	17178
909.878	17147
909.993	17022
910.108	17102
910.224	17052
910.339	17029
910.454	16976
910.57	17022
910.685	16835
910.8	17064
910.915	17071
911.03	16873
911.145	16584
911.259	16691
911.374	16706
911.489	16622
911.604	16558
911.718	16390
911.833	16462
911.947	16211
912.062	16223
912.176	16421
912.291	16405
912.405	16386
912.519	16622
912.633	16698
912.748	16447
912.862	16421
912.976	16230
913.09	16124
913.204	16120
913.318	16188
913.431	16291
913.545	16276
913.659	16341
913.772	16150
913.886	16048
914	15953
914.113	16112
914.226	16147
914.34	16040
914.453	15816
914.566	16112
914.68	15835
914.793	15934
914.906	15633
915.019	15580
915.132	15694
915.245	15633
915.358	15538
915.47	15633
915.583	15545
915.696	15587
915.809	15766
915.921	15679
916.034	15526
916.146	15584
916.259	15363
916.371	15637
916.483	15572
916.595	15416
916.708	15496
916.82	15424
916.932	15462
917.044	15325
917.156	15351
917.268	15226
917.38	15260
917.491	15348
917.603	15287
917.715	15382
917.826	15317
917.938	15131
918.049	15142
918.161	15131
918.272	15291
918.384	15321
918.495	15184
918.606	15062
918.717	14872
918.828	14982
918.939	14990
919.05	14845
919.161	15028
919.272	14788
919.383	14788
919.494	14994
919.604	15184
919.715	14944
919.826	14975
919.936	14937
920.047	15013
920.157	14937
920.267	15127
920.378	15024
920.488	14925
920.598	15108
920.708	15317
920.818	15154
920.928	15108
921.038	15165
921.148	15135
921.258	14819
921.368	14773
921.477	14720
921.587	14613
921.697	14442
921.806	14670
921.916	14522
922.025	14427
922.134	14377
922.244	14252
922.353	14400
922.462	14157
922.571	14096
922.68	13970
922.789	13970
922.898	13928
923.007	13917
923.116	13989
923.224	13913
923.333	13928
923.442	13727
923.55	13776
923.659	13788
923.767	13833
923.876	13674
923.984	13803
924.092	13738
924.201	13723
924.309	13704
924.417	13712
924.525	13620
924.633	13620
924.741	14503
924.849	13422
924.956	13537
925.064	13403
925.172	13297
925.279	13274
925.387	13308
925.494	13304
925.602	13491
925.709	13320
925.816	13202
925.924	13293
926.031	13293
926.138	13228
926.245	13358
926.352	13259
926.459	13335
926.566	13419
926.673	13217
926.779	13095
926.886	13072
926.993	12947
927.099	12920
927.206	12951
927.312	12814
927.419	13000
927.525	12848
927.631	12954
927.737	12719
927.843	12711
927.95	12566
928.056	12669
928.162	12768
928.267	12730
928.373	13350
928.479	12806
928.585	12551
928.69	12612
928.796	12833
928.901	12627
929.007	12410
929.112	12593
929.218	12494
929.323	12532
929.428	12426
929.533	12555
929.638	12300
929.743	12342
929.848	12414
929.953	12403
930.058	12262
930.163	12114
930.267	12095
930.372	12228
930.477	12095
930.581	12315
930.685	12159
930.79	12034
930.894	12095
930.998	11942
931.103	12083
931.207	11722
931.311	11668
931.415	11566
931.519	11322
931.623	11387
