Data from test_V78500241_1807.txt Node
Date: Fri Mar 25 15:54:19 CST 2022
User: usil
Spectrometer: V785-0024
Trigger mode: 0
Integration Time (sec): 4.000000E-1
Scans to average: 1
Nonlinearity correction enabled: false
Boxcar width: 0
Storing dark spectrum: false
XAxis mode: Wavelengths
Number of Pixels in Spectrum: 1024
>>>>>Begin Spectral Data<<<<<
801.071	28721
801.214	28554
801.356	28333
801.499	28474
801.641	28188
801.783	28226
801.926	28314
802.068	28192
802.211	28059
802.353	28162
802.496	27934
802.638	27918
802.78	27865
802.923	27895
803.065	27713
803.208	27930
803.35	27876
803.492	28150
803.635	28067
803.777	28093
803.919	28128
804.061	28455
804.204	28200
804.346	28135
804.488	28124
804.63	28219
804.773	28211
804.915	28200
805.057	28265
805.199	28143
805.341	28226
805.483	28253
805.626	28318
805.768	28143
805.91	28398
806.052	28398
806.194	28200
806.336	28481
806.478	28287
806.62	28303
806.762	28481
806.904	28535
807.046	28805
807.188	28733
807.33	28774
807.472	28816
807.614	28672
807.756	28748
807.898	28713
808.04	28615
808.182	28580
808.324	28546
808.465	28630
808.607	28919
808.749	28976
808.891	29075
809.033	29132
809.174	29079
809.316	29041
809.458	28877
809.6	29014
809.741	29132
809.883	29208
810.025	29227
810.166	29083
810.308	29296
810.45	29231
810.591	29189
810.733	29003
810.875	29033
811.016	28930
811.158	28930
811.299	29079
811.441	29086
811.582	29269
811.724	29121
811.865	29060
812.007	29113
812.148	29098
812.29	28976
812.431	29227
812.573	29334
812.714	29368
812.855	29611
812.997	29627
813.138	29638
813.279	29790
813.421	29520
813.562	29524
813.703	29364
813.845	29299
813.986	28900
814.127	28831
814.268	28729
814.41	28717
814.551	28763
814.692	28801
814.833	28668
814.974	28656
815.115	28698
815.256	28618
815.397	28459
815.539	28801
815.68	28550
815.821	28470
815.962	28573
816.103	28504
816.244	28577
816.385	28333
816.526	28424
816.666	28116
816.807	27945
816.948	27994
817.089	28177
817.23	27979
817.371	27972
817.512	28051
817.653	28120
817.793	27930
817.934	27983
818.075	27987
818.216	28010
818.356	28059
818.497	27892
818.638	27751
818.778	27747
818.919	27846
819.06	27842
819.2	27880
819.341	28169
819.481	28055
819.622	28223
819.762	28424
819.903	28375
820.043	28314
820.184	28082
820.324	28070
820.465	28112
820.605	28101
820.746	28166
820.886	28025
821.026	28093
821.167	28154
821.307	28109
821.447	28048
821.588	28082
821.728	27732
821.868	27793
822.008	27526
822.149	27572
822.289	27458
822.429	27214
822.569	27283
822.709	27184
822.849	27005
822.99	27116
823.13	26857
823.27	26845
823.41	26906
823.55	26792
823.69	26826
823.83	26918
823.97	26868
824.11	26621
824.25	26765
824.389	26720
824.529	26727
824.669	26617
824.809	26895
824.949	26625
825.089	26857
825.228	26724
825.368	26522
825.508	26495
825.648	26492
825.787	26537
825.927	26609
826.067	26537
826.206	26579
826.346	26670
826.485	26629
826.625	26526
826.765	26644
826.904	26606
827.044	26438
827.183	26336
827.323	26419
827.462	26313
827.601	26229
827.741	26233
827.88	26271
828.02	26149
828.159	26240
828.298	26107
828.437	26278
828.577	26138
828.716	26393
828.855	26187
828.994	26016
829.134	25966
829.273	25959
829.412	25989
829.551	25852
829.69	25898
829.829	25932
829.968	25894
830.107	26046
830.246	25997
830.385	25993
830.524	25868
830.663	25799
830.802	25677
830.941	25620
831.08	25525
831.219	25651
831.357	25567
831.496	25860
831.635	25616
831.774	25495
831.913	25464
832.051	25343
832.19	25320
832.329	25304
832.467	25236
832.606	25137
832.744	25156
832.883	25236
833.022	25244
833.16	25251
833.299	25263
833.437	25312
833.576	25217
833.714	25365
833.852	25327
833.991	25221
834.129	25297
834.267	25377
834.406	25259
834.544	25324
834.682	25316
834.821	25209
834.959	25510
835.097	25194
835.235	25225
835.373	25400
835.511	25373
835.65	25228
835.788	25023
835.926	25004
836.064	25012
836.202	25008
836.34	25122
836.478	25232
836.615	25057
836.753	25190
836.891	25156
837.029	25103
837.167	25004
837.305	25050
837.443	24897
837.58	24989
837.718	24928
837.856	25019
837.993	24863
838.131	24928
838.269	24897
838.406	24806
838.544	24821
838.681	24601
838.819	24620
838.956	24494
839.094	24521
839.231	24521
839.369	24639
839.506	24688
839.643	24669
839.781	24414
839.918	24334
840.055	24346
840.193	24277
840.33	24418
840.467	24327
840.604	24330
840.742	24642
840.879	24209
841.016	24194
841.153	24102
841.29	24281
841.427	24209
841.564	24190
841.701	24410
841.838	24262
841.975	24129
842.112	24186
842.249	24106
842.385	24015
842.522	24350
842.659	24076
842.796	24095
842.933	24026
843.069	24087
843.206	23996
843.343	24197
843.479	24038
843.616	23992
843.752	23866
843.889	23889
844.025	23931
844.162	23779
844.298	23920
844.435	23885
844.571	23760
844.708	23855
844.844	24083
844.98	24049
845.117	23996
845.253	23687
845.389	23703
845.525	23802
845.661	23589
845.798	23623
845.934	23611
846.07	23570
846.206	23695
846.342	23642
846.478	23573
846.614	23387
846.75	23231
846.886	23406
847.022	23360
847.158	23250
847.294	23322
847.429	23239
847.565	23216
847.701	23433
847.837	23033
847.972	23041
848.108	23044
848.244	23121
848.379	23003
848.515	22900
848.65	22900
848.786	22961
848.921	22858
849.057	22949
849.192	22949
849.328	22904
849.463	22854
849.598	22809
849.734	22835
849.869	22759
850.004	22717
850.14	22622
850.275	22557
850.41	22573
850.545	22656
850.68	22596
850.815	22698
850.95	22588
851.085	22809
851.22	22729
851.355	22557
851.49	22672
851.625	22679
851.76	22557
851.895	22481
852.03	22607
852.165	22702
852.299	22683
852.434	22645
852.569	22611
852.703	22580
852.838	22698
852.973	22748
853.107	22729
853.242	22497
853.376	22538
853.511	22261
853.645	22318
853.78	22596
853.914	22409
854.048	22440
854.183	22394
854.317	22550
854.451	22641
854.585	22436
854.72	22512
854.854	22519
854.988	22360
855.122	22394
855.256	22356
855.39	22363
855.524	22493
855.658	22455
855.792	22440
855.926	22322
856.06	22508
856.194	22500
856.327	22500
856.461	22417
856.595	22348
856.729	22314
856.862	22481
856.996	22497
857.13	22497
857.263	22440
857.397	22436
857.53	22565
857.664	22481
857.797	22569
857.931	22641
858.064	22485
858.197	22523
858.331	22451
858.464	22413
858.597	22367
858.731	22295
858.864	22295
858.997	22333
859.13	22440
859.263	22497
859.396	22523
859.529	22531
859.662	22386
859.795	22382
859.928	22428
860.061	22725
860.194	22637
860.327	22588
860.46	22542
860.592	22500
860.725	22573
860.858	22512
860.99	22512
861.123	22348
861.256	22428
861.388	22497
861.521	23143
861.653	22287
861.786	22363
861.918	22192
862.05	22394
862.183	22478
862.315	22409
862.447	22405
862.58	22238
862.712	22242
862.844	22086
862.976	22154
863.108	22379
863.24	22641
863.372	22139
863.504	22169
863.636	22295
863.768	22101
863.9	22143
864.032	21998
864.164	22105
864.296	22223
864.428	22139
864.559	22211
864.691	22139
864.823	22185
864.954	22112
865.086	22101
865.217	22006
865.349	21991
865.48	21979
865.612	22200
865.743	22169
865.875	22044
866.006	21998
866.137	22017
866.269	21979
866.4	21972
866.531	22070
866.662	21934
866.793	21926
866.924	21972
867.055	21854
867.186	21884
867.317	21983
867.448	21880
867.579	21911
867.71	21842
867.841	22013
867.972	21854
868.103	21949
868.233	21915
868.364	21876
868.495	22048
868.625	22021
868.756	22253
868.886	22040
869.017	22207
869.147	22242
869.278	22333
869.408	22207
869.539	22261
869.669	22219
869.799	22253
869.929	22337
870.06	22329
870.19	22470
870.32	22523
870.45	22531
870.58	22577
870.71	22771
870.84	22763
870.97	22573
871.1	22557
871.23	22740
871.36	22729
871.489	22706
871.619	22698
871.749	22790
871.879	22831
872.008	22858
872.138	22774
872.267	22748
872.397	22782
872.526	22615
872.656	22786
872.785	22717
872.915	22736
873.044	22923
873.173	22881
873.303	22820
873.432	22972
873.561	22946
873.69	22839
873.819	22748
873.948	22721
874.077	22748
874.206	22675
874.335	22744
874.464	22957
874.593	23185
874.722	23025
874.851	23105
874.979	23143
875.108	22987
875.237	22984
875.365	22957
875.494	22965
875.623	23052
875.751	23052
875.88	23060
876.008	23174
876.136	23326
876.265	23345
876.393	23493
876.521	23448
876.65	23482
876.778	23455
876.906	23406
877.034	23345
877.162	23311
877.29	23474
877.418	23459
877.546	23372
877.674	23379
877.802	23372
877.93	23303
878.058	23391
878.185	23273
878.313	23265
878.441	23280
878.568	23083
878.696	23299
878.824	23421
878.951	23452
879.079	23524
879.206	23718
879.333	23551
879.461	23353
879.588	23509
879.715	23467
879.842	23676
879.97	23478
880.097	23242
880.224	23273
880.351	23124
880.478	23284
880.605	23204
880.732	23151
880.859	23436
880.986	23273
881.112	23189
881.239	23121
881.366	22904
881.493	22740
881.619	22721
881.746	22797
881.872	22797
881.999	22778
882.125	22672
882.252	22710
882.378	22805
882.505	22793
882.631	22561
882.757	22440
882.883	22497
883.01	22333
883.136	22390
883.262	22287
883.388	22204
883.514	22451
883.64	22417
883.766	22409
883.892	22166
884.018	22249
884.143	22333
884.269	22428
884.395	22093
884.52	22002
884.646	22116
884.772	21987
884.897	21987
885.023	22044
885.148	22128
885.274	22192
885.399	22131
885.524	22101
885.65	22070
885.775	22032
885.9	21937
886.025	22249
886.15	22063
886.275	21949
886.4	22021
886.525	21960
886.65	21994
886.775	21953
886.9	22086
887.025	22234
887.149	21869
887.274	21956
887.399	21816
887.523	21842
887.648	21808
887.773	21781
887.897	21930
888.021	21854
888.146	21793
888.27	21960
888.395	21819
888.519	21857
888.643	21846
888.767	21800
888.891	21736
889.015	21618
889.139	21663
889.263	21568
889.387	21751
889.511	21835
889.635	21633
889.759	21504
889.883	21629
890.006	21644
890.13	21720
890.254	21564
890.377	21549
890.501	21359
890.624	21332
890.748	21424
890.871	21329
890.995	21127
891.118	21154
891.241	21036
891.364	21165
891.488	21211
891.611	21252
891.734	21188
891.857	21203
891.98	21138
892.103	21119
892.226	21096
892.349	21070
892.471	20899
892.594	20899
892.717	20967
892.839	20975
892.962	21032
893.085	21146
893.207	21161
893.33	20952
893.452	20937
893.575	21001
893.697	20910
893.819	21287
893.941	21249
894.064	21146
894.186	21123
894.308	21127
894.43	21135
894.552	21154
894.674	21127
894.796	20998
894.918	21085
895.04	20982
895.161	21017
895.283	20998
895.405	20979
895.526	21074
895.648	21024
895.769	21039
895.891	21100
896.012	21165
896.134	21123
896.255	21039
896.376	20899
896.498	21017
896.619	21112
896.74	21074
896.861	21203
896.982	21386
897.103	21473
897.224	21272
897.345	21207
897.466	21081
897.587	21306
897.708	21420
897.828	21218
897.949	21214
898.07	21119
898.19	21184
898.311	21279
898.431	21165
898.552	21127
898.672	21336
898.792	21359
898.913	21241
899.033	21062
899.153	21081
899.273	20967
899.393	20887
899.513	20944
899.633	20982
899.753	20902
899.873	20800
899.993	20910
900.113	20823
900.232	20944
900.352	20800
900.472	20804
900.591	20708
900.711	20727
900.83	20735
900.95	20807
901.069	20731
901.189	20575
901.308	20404
901.427	20218
901.546	20259
901.665	20252
901.784	20313
901.904	20252
902.023	20126
902.141	19936
902.26	19868
902.379	19875
902.498	19811
902.617	19807
902.735	19833
902.854	19776
902.973	19719
903.091	19521
903.21	19419
903.328	19449
903.446	19449
903.565	19266
903.683	19209
903.801	19148
903.919	19221
904.038	19240
904.156	19008
904.274	19038
904.392	18947
904.51	19057
904.627	19050
904.745	19103
904.863	19004
904.981	18673
905.098	18696
905.216	18722
905.334	18719
905.451	18802
905.569	18711
905.686	18707
905.803	18555
905.921	18414
906.038	18544
906.155	18498
906.272	18308
906.389	18467
906.506	18228
906.623	18277
906.74	18254
906.857	18106
906.974	18159
907.091	18262
907.208	18296
907.324	18281
907.441	18072
907.557	17916
907.674	17901
907.79	17821
907.907	17866
908.023	17897
908.139	17927
908.256	17958
908.372	17737
908.488	17657
908.604	17714
908.72	17630
908.836	17687
908.952	17623
909.068	17642
909.184	17695
909.3	17596
909.415	17611
909.531	17642
909.647	17383
909.762	17376
909.878	17326
909.993	17303
910.108	17322
910.224	17239
910.339	17303
910.454	17185
910.57	17102
910.685	16942
910.8	17322
910.915	17227
911.03	17037
911.145	16957
911.259	16866
911.374	16911
911.489	16858
911.604	16805
911.718	16527
911.833	16740
911.947	16569
912.062	16592
912.176	16706
912.291	16687
912.405	16717
912.519	16847
912.633	16763
912.748	16622
912.862	16603
912.976	16519
913.09	16382
913.204	16443
913.318	16341
913.431	16558
913.545	16459
913.659	16554
913.772	16306
913.886	16360
914	16207
914.113	16352
914.226	16402
914.34	16284
914.453	16029
914.566	16356
914.68	16139
914.793	16177
914.906	15964
915.019	15838
915.132	15720
915.245	15705
915.358	15728
915.47	15781
915.583	15774
915.696	15789
915.809	15915
915.921	15876
916.034	15724
916.146	15732
916.259	15690
916.371	15751
916.483	15827
916.595	15694
916.708	15694
916.82	15595
916.932	15610
917.044	15648
917.156	15580
917.268	15603
917.38	15488
917.491	15431
917.603	15447
917.715	15408
917.826	15458
917.938	15382
918.049	15214
918.161	15393
918.272	15477
918.384	15523
918.495	15374
918.606	15291
918.717	15161
918.828	15211
918.939	15218
919.05	15070
919.161	15199
919.272	14994
919.383	15085
919.494	15199
919.604	15393
919.715	15131
919.826	15161
919.936	15058
920.047	15157
920.157	15100
920.267	15298
920.378	15195
920.488	15104
920.598	15237
920.708	15408
920.818	15230
920.928	15184
921.038	15458
921.148	15260
921.258	15097
921.368	14899
921.477	15017
921.587	14910
921.697	14785
921.806	14971
921.916	14712
922.025	14602
922.134	14530
922.244	14552
922.353	14590
922.462	14400
922.571	14324
922.68	14248
922.789	14218
922.898	14176
923.007	14199
923.116	14328
923.224	14069
923.333	14077
923.442	13974
923.55	14020
923.659	14024
923.767	14058
923.876	13921
923.984	13967
924.092	13894
924.201	13925
924.309	13845
924.417	13772
924.525	13746
924.633	13833
924.741	14594
924.849	13563
924.956	13807
925.064	13514
925.172	13559
925.279	13533
925.387	13563
925.494	13540
925.602	13689
925.709	13601
925.816	13407
925.924	13491
926.031	13537
926.138	13476
926.245	13510
926.352	13304
926.459	13411
926.566	13434
926.673	13407
926.779	13255
926.886	13354
926.993	13023
927.099	13065
927.206	13038
927.312	13027
927.419	13046
927.525	13084
927.631	13133
927.737	12962
927.843	12966
927.95	12779
928.056	12901
928.162	12848
928.267	12943
928.373	13533
928.479	12939
928.585	12677
928.69	12859
928.796	12867
928.901	12669
929.007	12601
929.112	12802
929.218	12741
929.323	12612
929.428	12532
929.533	12760
929.638	12536
929.743	12578
929.848	12494
929.953	12547
930.058	12369
930.163	12243
930.267	12213
930.372	12399
930.477	12213
930.581	12422
930.685	12296
930.79	12239
930.894	12205
930.998	12148
931.103	12167
931.207	11901
931.311	11813
931.415	11771
931.519	11497
931.623	11535
