Data from test_V78500241_2207.txt Node
Date: Fri Mar 25 15:57:05 CST 2022
User: usil
Spectrometer: V785-0024
Trigger mode: 0
Integration Time (sec): 4.000000E-1
Scans to average: 1
Nonlinearity correction enabled: false
Boxcar width: 0
Storing dark spectrum: false
XAxis mode: Wavelengths
Number of Pixels in Spectrum: 1024
>>>>>Begin Spectral Data<<<<<
801.071	28972
801.214	29037
801.356	28774
801.499	28767
801.641	28626
801.783	28577
801.926	28637
802.068	28561
802.211	28592
802.353	28504
802.496	28329
802.638	28390
802.78	28306
802.923	28147
803.065	28147
803.208	28265
803.35	28356
803.492	28436
803.635	28660
803.777	28382
803.919	28679
804.061	28862
804.204	28561
804.346	28531
804.488	28421
804.63	28596
804.773	28577
804.915	28645
805.057	28831
805.199	28554
805.341	28733
805.483	28786
805.626	28691
805.768	28512
805.91	28850
806.052	28698
806.194	28664
806.336	28919
806.478	28599
806.62	28763
806.762	28801
806.904	29136
807.046	29231
807.188	29265
807.33	29170
807.472	29261
807.614	29242
807.756	29273
807.898	29060
808.04	29048
808.182	29044
808.324	29185
808.465	29098
808.607	29277
808.749	29433
808.891	29558
809.033	29619
809.174	29501
809.316	29433
809.458	29463
809.6	29501
809.741	29482
809.883	29668
810.025	29596
810.166	29786
810.308	29710
810.45	29684
810.591	29554
810.733	29535
810.875	29497
811.016	29452
811.158	29261
811.299	29585
811.441	29733
811.582	29653
811.724	29452
811.865	29573
812.007	29429
812.148	29558
812.29	29585
812.431	29726
812.573	29752
812.714	29946
812.855	30091
812.997	30163
813.138	30258
813.279	30205
813.421	30060
813.562	29996
813.703	29977
813.845	29748
813.986	29425
814.127	29284
814.268	29121
814.41	29296
814.551	29159
814.692	29261
814.833	29075
814.974	29242
815.115	29246
815.256	29197
815.397	29113
815.539	29121
815.68	29067
815.821	29014
815.962	29086
816.103	29014
816.244	29090
816.385	28816
816.526	28866
816.666	28660
816.807	28561
816.948	28641
817.089	28561
817.23	28508
817.371	28538
817.512	28405
817.653	28516
817.793	28424
817.934	28561
818.075	28565
818.216	28455
818.356	28542
818.497	28508
818.638	28295
818.778	28322
818.919	28318
819.06	28325
819.2	28341
819.341	28599
819.481	28527
819.622	28721
819.762	28869
819.903	28927
820.043	28687
820.184	28782
820.324	28717
820.465	28599
820.605	28615
820.746	28626
820.886	28428
821.026	28622
821.167	28660
821.307	28577
821.447	28603
821.588	28615
821.728	28398
821.868	28230
822.008	27987
822.149	28010
822.289	28090
822.429	27717
822.569	27743
822.709	27804
822.849	27614
822.99	27576
823.13	27374
823.27	27534
823.41	27386
823.55	27195
823.69	27401
823.83	27203
823.97	27477
824.11	27176
824.25	27188
824.389	27100
824.529	27268
824.669	27222
824.809	27340
824.949	27123
825.089	27344
825.228	27283
825.368	27013
825.508	27062
825.648	27112
825.787	27154
825.927	27283
826.067	27077
826.206	27135
826.346	27188
826.485	27173
826.625	27085
826.765	27180
826.904	27093
827.044	26861
827.183	26868
827.323	26891
827.462	26902
827.601	26758
827.741	26708
827.88	26746
828.02	26773
828.159	26880
828.298	26823
828.437	26834
828.577	26769
828.716	26929
828.855	26735
828.994	26290
829.134	26408
829.273	26473
829.412	26442
829.551	26419
829.69	26507
829.829	26339
829.968	26625
830.107	26549
830.246	26564
830.385	26370
830.524	26461
830.663	26286
830.802	26271
830.941	26275
831.08	26081
831.219	26210
831.357	26142
831.496	26259
831.635	26145
831.774	26027
831.913	25936
832.051	25856
832.19	25791
832.329	25887
832.467	25780
832.606	25715
832.744	25738
832.883	25811
833.022	25708
833.16	25830
833.299	25833
833.437	25681
833.576	25913
833.714	25818
833.852	25890
833.991	25871
834.129	25849
834.267	25803
834.406	25742
834.544	25788
834.682	25864
834.821	25776
834.959	25936
835.097	25765
835.235	25841
835.373	25769
835.511	25837
835.65	25742
835.788	25685
835.926	25521
836.064	25407
836.202	25403
836.34	25571
836.478	25753
836.615	25700
836.753	25708
836.891	25681
837.029	25674
837.167	25506
837.305	25586
837.443	25441
837.58	25464
837.718	25495
837.856	25377
837.993	25438
838.131	25384
838.269	25327
838.406	25438
838.544	25354
838.681	25091
838.819	25042
838.956	24954
839.094	24932
839.231	24764
839.369	25110
839.506	25301
839.643	25247
839.781	24852
839.918	24894
840.055	24867
840.193	24829
840.33	24806
840.467	24772
840.604	24772
840.742	25046
840.879	24677
841.016	24791
841.153	24738
841.29	25050
841.427	24776
841.564	24859
841.701	24753
841.838	24696
841.975	24616
842.112	24696
842.249	24665
842.385	24563
842.522	24810
842.659	24650
842.796	24559
842.933	24589
843.069	24635
843.206	24528
843.343	24593
843.479	24711
843.616	24380
843.752	24213
843.889	24361
844.025	24498
844.162	24330
844.298	24418
844.435	24376
844.571	24350
844.708	24414
844.844	24521
844.98	24422
845.117	24505
845.253	24228
845.389	24220
845.525	24243
845.661	24178
845.798	24045
845.934	24129
846.07	24034
846.206	24076
846.342	24152
846.478	24136
846.614	23885
846.75	23729
846.886	23707
847.022	23847
847.158	23870
847.294	23813
847.429	23893
847.565	23718
847.701	23946
847.837	23482
847.972	23528
848.108	23558
848.244	23707
848.379	23376
848.515	23322
848.65	23414
848.786	23417
848.921	23459
849.057	23467
849.192	23455
849.328	23360
849.463	23433
849.598	23353
849.734	23246
849.869	23231
850.004	23227
850.14	23147
850.275	23075
850.41	23079
850.545	23098
850.68	23083
850.815	23083
850.95	23151
851.085	23360
851.22	23227
851.355	23086
851.49	23147
851.625	23170
851.76	23193
851.895	23083
852.03	22972
852.165	23041
852.299	23197
852.434	23231
852.569	23197
852.703	23151
852.838	23212
852.973	23151
853.107	23376
853.242	23109
853.376	23105
853.511	22790
853.645	22968
853.78	23029
853.914	22942
854.048	22980
854.183	22889
854.317	23056
854.451	23216
854.585	22942
854.72	22938
854.854	23105
854.988	22927
855.122	23086
855.256	22744
855.39	22968
855.524	23029
855.658	22995
855.792	22949
855.926	23010
856.06	23025
856.194	22991
856.327	22942
856.461	22858
856.595	22854
856.729	22968
856.862	23079
856.996	23025
857.13	23071
857.263	23071
857.397	23105
857.53	23048
857.664	23033
857.797	23041
857.931	23083
858.064	23003
858.197	23037
858.331	23022
858.464	22919
858.597	22873
858.731	22873
858.864	22889
858.997	22949
859.13	22991
859.263	22965
859.396	23025
859.529	22934
859.662	22927
859.795	22820
859.928	22987
860.061	23029
860.194	23094
860.327	22995
860.46	22987
860.592	23064
860.725	23075
860.858	23227
860.99	22938
861.123	22877
861.256	22782
861.388	22965
861.521	23627
861.653	22831
861.786	22767
861.918	22793
862.05	22915
862.183	22786
862.315	22885
862.447	22839
862.58	22881
862.712	22618
862.844	22687
862.976	22733
863.108	22687
863.24	23235
863.372	22645
863.504	22713
863.636	22599
863.768	22740
863.9	22679
864.032	22569
864.164	22668
864.296	22660
864.428	22869
864.559	22637
864.691	22771
864.823	22637
864.954	22504
865.086	22592
865.217	22569
865.349	22443
865.48	22660
865.612	22455
865.743	22573
865.875	22546
866.006	22538
866.137	22497
866.269	22546
866.4	22470
866.531	22485
866.662	22421
866.793	22481
866.924	22504
867.055	22421
867.186	22512
867.317	22489
867.448	22405
867.579	22356
867.71	22356
867.841	22322
867.972	22478
868.103	22310
868.233	22367
868.364	22523
868.495	22516
868.625	22679
868.756	22850
868.886	22713
869.017	22618
869.147	22782
869.278	22820
869.408	22736
869.539	22694
869.669	22839
869.799	22759
869.929	22919
870.06	22812
870.19	22995
870.32	22934
870.45	23029
870.58	23151
870.71	23189
870.84	23197
870.97	23037
871.1	23067
871.23	23318
871.36	23227
871.489	23147
871.619	23330
871.749	23318
871.879	23280
872.008	23334
872.138	23356
872.267	23227
872.397	23277
872.526	23140
872.656	23147
872.785	23014
872.915	23269
873.044	23383
873.173	23349
873.303	23322
873.432	23395
873.561	23429
873.69	23353
873.819	23296
873.948	23395
874.077	23307
874.206	23220
874.335	23311
874.464	23391
874.593	23661
874.722	23486
874.851	23554
874.979	23581
875.108	23680
875.237	23497
875.365	23364
875.494	23417
875.623	23562
875.751	23539
875.88	23539
876.008	23661
876.136	23794
876.265	23939
876.393	23939
876.521	23908
876.65	23931
876.778	23954
876.906	23855
877.034	23973
877.162	23794
877.29	23767
877.418	23798
877.546	23954
877.674	23805
877.802	23859
877.93	23817
878.058	23786
878.185	23714
878.313	23817
878.441	23760
878.568	23657
878.696	23790
878.824	23824
878.951	23950
879.079	24083
879.206	23980
879.333	23977
879.461	23866
879.588	23988
879.715	24087
879.842	24098
879.97	23920
880.097	23615
880.224	23718
880.351	23726
880.478	23589
880.605	23474
880.732	23737
880.859	23718
880.986	23653
881.112	23596
881.239	23600
881.366	23326
881.493	23239
881.619	23242
881.746	23261
881.872	23200
881.999	23166
882.125	23155
882.252	23345
882.378	23166
882.505	23280
882.631	23037
882.757	22930
882.883	23014
883.01	23003
883.136	22869
883.262	22805
883.388	22725
883.514	22946
883.64	22934
883.766	22805
883.892	22630
884.018	22554
884.143	22801
884.269	22923
884.395	22664
884.52	22546
884.646	22557
884.772	22428
884.897	22432
885.023	22508
885.148	22573
885.274	22603
885.399	22607
885.524	22470
885.65	22462
885.775	22523
885.9	22550
886.025	22637
886.15	22592
886.275	22466
886.4	22329
886.525	22459
886.65	22508
886.775	22253
886.9	22546
887.025	22645
887.149	22569
887.274	22394
887.399	22398
887.523	22284
887.648	22329
887.773	22211
887.897	22318
888.021	22367
888.146	22257
888.27	22341
888.395	22432
888.519	22325
888.643	22272
888.767	22280
888.891	22128
889.015	22055
889.139	22116
889.263	22002
889.387	22162
889.511	22139
889.635	22226
889.759	21968
889.883	22029
890.006	22044
890.13	22120
890.254	21960
890.377	21998
890.501	21789
890.624	21819
890.748	21751
890.871	21728
890.995	21542
891.118	21591
891.241	21641
891.364	21633
891.488	21633
891.611	21561
891.734	21534
891.857	21675
891.98	21595
892.103	21690
892.226	21496
892.349	21606
892.471	21416
892.594	21507
892.717	21542
892.839	21526
892.962	21519
893.085	21511
893.207	21576
893.33	21389
893.452	21443
893.575	21545
893.697	21405
893.819	21591
893.941	21595
894.064	21572
894.186	21439
894.308	21382
894.43	21492
894.552	21713
894.674	21568
894.796	21313
894.918	21466
895.04	21370
895.161	21523
895.283	21469
895.405	21416
895.526	21500
895.648	21351
895.769	21519
895.891	21580
896.012	21405
896.134	21542
896.255	21424
896.376	21408
896.498	21439
896.619	21507
896.74	21431
896.861	21549
896.982	21819
897.103	21823
897.224	21876
897.345	21652
897.466	21663
897.587	21739
897.708	21766
897.828	21652
897.949	21587
898.07	21481
898.19	21606
898.311	21713
898.431	21439
898.552	21545
898.672	21656
898.792	21603
898.913	21618
899.033	21576
899.153	21344
899.273	21230
899.393	21317
899.513	21553
899.633	21355
899.753	21382
899.873	21306
899.993	21382
900.113	21283
900.232	21313
900.352	21268
900.472	21211
900.591	21100
900.711	21169
900.83	21108
900.95	21302
901.069	21252
901.189	21020
901.308	20765
901.427	20708
901.546	20705
901.665	20678
901.784	20625
901.904	20499
902.023	20473
902.141	20301
902.26	20122
902.379	20305
902.498	20320
902.617	20130
902.735	20343
902.854	20046
902.973	20062
903.091	19830
903.21	19856
903.328	19871
903.446	19799
903.565	19670
903.683	19575
903.801	19483
903.919	19567
904.038	19563
904.156	19400
904.274	19422
904.392	19388
904.51	19377
904.627	19400
904.745	19400
904.863	19457
904.981	19160
905.098	19023
905.216	19008
905.334	19118
905.451	18981
905.569	19023
905.686	19038
905.803	19061
905.921	18802
906.038	18981
906.155	18935
906.272	18783
906.389	18753
906.506	18616
906.623	18639
906.74	18623
906.857	18509
906.974	18407
907.091	18715
907.208	18715
907.324	18677
907.441	18475
907.557	18342
907.674	18304
907.79	18334
907.907	18296
908.023	18258
908.139	18399
908.256	18235
908.372	18167
908.488	18209
908.604	18022
908.72	17920
908.836	17980
908.952	17996
909.068	18015
909.184	18117
909.3	17916
909.415	18049
909.531	18011
909.647	17737
909.762	17714
909.878	17611
909.993	17737
910.108	17745
910.224	17649
910.339	17695
910.454	17505
910.57	17490
910.685	17353
910.8	17741
910.915	17653
911.03	17467
911.145	17242
911.259	17200
911.374	17250
911.489	17212
911.604	17143
911.718	17025
911.833	17105
911.947	16908
912.062	16733
912.176	16957
912.291	17010
912.405	16961
912.519	17159
912.633	17216
912.748	16923
912.862	16972
912.976	16854
913.09	16767
913.204	16782
913.318	16881
913.431	16896
913.545	16831
913.659	16934
913.772	16816
913.886	16649
914	16462
914.113	16668
914.226	16713
914.34	16656
914.453	16470
914.566	16542
914.68	16508
914.793	16405
914.906	16253
915.019	16173
915.132	16147
915.245	16223
915.358	16246
915.47	16158
915.583	16154
915.696	16173
915.809	16234
915.921	16272
916.034	16158
916.146	15983
916.259	16048
916.371	16173
916.483	16093
916.595	16010
916.708	16013
916.82	16006
916.932	15949
917.044	15884
917.156	15709
917.268	15789
917.38	15808
917.491	15762
917.603	15759
917.715	15804
917.826	15869
917.938	15694
918.049	15587
918.161	15732
918.272	15873
918.384	15728
918.495	15717
918.606	15549
918.717	15485
918.828	15591
918.939	15618
919.05	15370
919.161	15481
919.272	15283
919.383	15374
919.494	15458
919.604	15568
919.715	15424
919.826	15424
919.936	15466
920.047	15576
920.157	15557
920.267	15603
920.378	15435
920.488	15405
920.598	15591
920.708	15713
920.818	15660
920.928	15580
921.038	15857
921.148	15675
921.258	15329
921.368	15344
921.477	15214
921.587	15131
921.697	15017
921.806	15226
921.916	15062
922.025	14823
922.134	14830
922.244	14743
922.353	14891
922.462	14655
922.571	14648
922.68	14427
922.789	14404
922.898	14492
923.007	14461
923.116	14533
923.224	14374
923.333	14393
923.442	14202
923.55	14256
923.659	14240
923.767	14305
923.876	14252
923.984	14351
924.092	14199
924.201	14187
924.309	14157
924.417	14084
924.525	14103
924.633	14161
924.741	14800
924.849	13833
924.956	14016
925.064	13807
925.172	13849
925.279	13803
925.387	13818
925.494	13849
925.602	13963
925.709	13784
925.816	13765
925.924	13662
926.031	13883
926.138	13769
926.245	13772
926.352	13552
926.459	13776
926.566	13769
926.673	13643
926.779	13559
926.886	13540
926.993	13373
927.099	13438
927.206	13278
927.312	13289
927.419	13377
927.525	13213
927.631	13392
927.737	13232
927.843	13152
927.95	13042
928.056	13103
928.162	13118
928.267	13190
928.373	13776
928.479	13217
928.585	12973
928.69	13042
928.796	13050
928.901	12920
929.007	12844
929.112	12928
929.218	12977
929.323	12939
929.428	12935
929.533	13012
929.638	12760
929.743	12753
929.848	12886
929.953	12749
930.058	12707
930.163	12517
930.267	12498
930.372	12623
930.477	12506
930.581	12692
930.685	12563
930.79	12403
930.894	12391
930.998	12376
931.103	12547
931.207	12167
931.311	12045
931.415	12076
931.519	11771
931.623	11771
