Data from test_V78500241_375.txt Node
Date: Fri Mar 25 15:44:23 CST 2022
User: usil
Spectrometer: V785-0024
Trigger mode: 0
Integration Time (sec): 4.000000E-1
Scans to average: 1
Nonlinearity correction enabled: false
Boxcar width: 0
Storing dark spectrum: false
XAxis mode: Wavelengths
Number of Pixels in Spectrum: 1024
>>>>>Begin Spectral Data<<<<<
801.071	29493
801.214	29531
801.356	29368
801.499	29299
801.641	29242
801.783	29273
801.926	29204
802.068	29208
802.211	29197
802.353	28995
802.496	28831
802.638	28809
802.78	28934
802.923	28782
803.065	28763
803.208	28816
803.35	28847
803.492	28919
803.635	28942
803.777	28888
803.919	28900
804.061	29273
804.204	29105
804.346	29003
804.488	28946
804.63	28877
804.773	28980
804.915	29121
805.057	29121
805.199	28828
805.341	29075
805.483	29197
805.626	29143
805.768	29018
805.91	29033
806.052	29140
806.194	29124
806.336	29375
806.478	29311
806.62	29193
806.762	29440
806.904	29539
807.046	29840
807.188	29638
807.33	29608
807.472	29794
807.614	29493
807.756	29463
807.898	29379
808.04	29364
808.182	29383
808.324	29531
808.465	29471
808.607	29516
808.749	29779
808.891	29965
809.033	29969
809.174	29828
809.316	29862
809.458	29901
809.6	29878
809.741	29912
809.883	29878
810.025	30030
810.166	30224
810.308	30072
810.45	29999
810.591	30129
810.733	29942
810.875	29851
811.016	29847
811.158	29851
811.299	30057
811.441	30049
811.582	30015
811.724	29809
811.865	29901
812.007	29802
812.148	29874
812.29	29767
812.431	29965
812.573	30129
812.714	30273
812.855	30346
812.997	30426
813.138	30593
813.279	30578
813.421	30346
813.562	30338
813.703	30167
813.845	30045
813.986	29741
814.127	29634
814.268	29387
814.41	29467
814.551	29505
814.692	29543
814.833	29444
814.974	29493
815.115	29395
815.256	29425
815.397	29440
815.539	29375
815.68	29284
815.821	29197
815.962	29216
816.103	29273
816.244	29143
816.385	29033
816.526	29136
816.666	28858
816.807	28774
816.948	28850
817.089	28949
817.23	28839
817.371	28892
817.512	28782
817.653	28679
817.793	28710
817.934	28698
818.075	28797
818.216	28763
818.356	28607
818.497	28546
818.638	28485
818.778	28478
818.919	28455
819.06	28645
819.2	28550
819.341	28744
819.481	28752
819.622	28820
819.762	29117
819.903	28968
820.043	28824
820.184	28729
820.324	28949
820.465	29083
820.605	28869
820.746	28946
820.886	28596
821.026	28778
821.167	28683
821.307	28888
821.447	28698
821.588	28656
821.728	28360
821.868	28390
822.008	28158
822.149	28051
822.289	28124
822.429	28006
822.569	27937
822.709	27884
822.849	27545
822.99	27713
823.13	27720
823.27	27515
823.41	27427
823.55	27344
823.69	27481
823.83	27374
823.97	27447
824.11	27287
824.25	27302
824.389	27237
824.529	27332
824.669	27195
824.809	27469
824.949	27447
825.089	27317
825.228	27142
825.368	27268
825.508	27085
825.648	27104
825.787	27131
825.927	27146
826.067	27028
826.206	27131
826.346	27096
826.485	27108
826.625	27100
826.765	27093
826.904	27268
827.044	26880
827.183	26804
827.323	26731
827.462	26788
827.601	26811
827.741	26750
827.88	26838
828.02	26636
828.159	26811
828.298	26762
828.437	26872
828.577	26594
828.716	26842
828.855	26640
828.994	26492
829.134	26511
829.273	26507
829.412	26381
829.551	26427
829.69	26438
829.829	26598
829.968	26537
830.107	26556
830.246	26374
830.385	26473
830.524	26271
830.663	26229
830.802	26237
830.941	25921
831.08	26027
831.219	26031
831.357	26069
831.496	26248
831.635	25963
831.774	25974
831.913	26012
832.051	25833
832.19	25791
832.329	25822
832.467	25750
832.606	25693
832.744	25666
832.883	25704
833.022	25609
833.16	25715
833.299	25624
833.437	25651
833.576	25738
833.714	25651
833.852	25780
833.991	25780
834.129	25776
834.267	25734
834.406	25727
834.544	25731
834.682	25708
834.821	25635
834.959	25791
835.097	25605
835.235	25883
835.373	25609
835.511	25639
835.65	25632
835.788	25476
835.926	25487
836.064	25320
836.202	25244
836.34	25521
836.478	25597
836.615	25388
836.753	25525
836.891	25533
837.029	25552
837.167	25434
837.305	25278
837.443	25430
837.58	25362
837.718	25434
837.856	25381
837.993	25346
838.131	25346
838.269	25168
838.406	25274
838.544	25168
838.681	24958
838.819	24852
838.956	24848
839.094	24791
839.231	24821
839.369	24859
839.506	25160
839.643	25015
839.781	24738
839.918	24623
840.055	24696
840.193	24825
840.33	24707
840.467	24753
840.604	24768
840.742	24886
840.879	24456
841.016	24410
841.153	24502
841.29	24802
841.427	24623
841.564	24525
841.701	24646
841.838	24585
841.975	24555
842.112	24604
842.249	24547
842.385	24323
842.522	24696
842.659	24456
842.796	24369
842.933	24296
843.069	24330
843.206	24273
843.343	24388
843.479	24247
843.616	24285
843.752	24015
843.889	24197
844.025	24311
844.162	24144
844.298	24182
844.435	24114
844.571	23996
844.708	24148
844.844	24243
844.98	24076
845.117	24144
845.253	24034
845.389	23935
845.525	23988
845.661	23992
845.798	23863
845.934	23920
846.07	23691
846.206	23885
846.342	24038
846.478	23828
846.614	23516
846.75	23478
846.886	23509
847.022	23585
847.158	23463
847.294	23459
847.429	23581
847.565	23497
847.701	23668
847.837	23204
847.972	23242
848.108	23303
848.244	23334
848.379	23098
848.515	23246
848.65	23105
848.786	23124
848.921	23079
849.057	23113
849.192	23181
849.328	23143
849.463	23037
849.598	23029
849.734	22869
849.869	22968
850.004	22896
850.14	22759
850.275	22820
850.41	22774
850.545	22866
850.68	22774
850.815	22908
850.95	22740
851.085	23140
851.22	22938
851.355	22801
851.49	22877
851.625	22774
851.76	22869
851.895	22672
852.03	22733
852.165	22858
852.299	22809
852.434	22949
852.569	22919
852.703	22725
852.838	22904
852.973	22961
853.107	22889
853.242	22691
853.376	22626
853.511	22497
853.645	22489
853.78	22778
853.914	22668
854.048	22493
854.183	22611
854.317	22656
854.451	22949
854.585	22752
854.72	22550
854.854	22603
854.988	22504
855.122	22565
855.256	22405
855.39	22561
855.524	22782
855.658	22675
855.792	22542
855.926	22565
856.06	22691
856.194	22733
856.327	22569
856.461	22577
856.595	22519
856.729	22497
856.862	22850
856.996	22653
857.13	22816
857.263	22774
857.397	22672
857.53	22561
857.664	22698
857.797	22641
857.931	22664
858.064	22675
858.197	22702
858.331	22504
858.464	22573
858.597	22413
858.731	22656
858.864	22557
858.997	22622
859.13	22455
859.263	22569
859.396	22634
859.529	22531
859.662	22516
859.795	22497
859.928	22596
860.061	22809
860.194	22828
860.327	22565
860.46	22557
860.592	22683
860.725	22660
860.858	22771
860.99	22698
861.123	22466
861.256	22592
861.388	22626
861.521	23041
861.653	22481
861.786	22337
861.918	22363
862.05	22409
862.183	22615
862.315	22459
862.447	22580
862.58	22523
862.712	22265
862.844	22223
862.976	22375
863.108	22344
863.24	22721
863.372	22181
863.504	22181
863.636	22314
863.768	22322
863.9	22303
864.032	22200
864.164	22215
864.296	22333
864.428	22447
864.559	22409
864.691	22371
864.823	22226
864.954	22272
865.086	22223
865.217	22249
865.349	22063
865.48	22036
865.612	22147
865.743	22204
865.875	22185
866.006	21983
866.137	22120
866.269	22196
866.4	22207
866.531	22101
866.662	22147
866.793	22090
866.924	22188
867.055	22040
867.186	22063
867.317	22147
867.448	22051
867.579	22006
867.71	21953
867.841	22120
867.972	22055
868.103	22090
868.233	21972
868.364	22010
868.495	22139
868.625	22303
868.756	22360
868.886	22181
869.017	22337
869.147	22432
869.278	22447
869.408	22356
869.539	22314
869.669	22325
869.799	22394
869.929	22550
870.06	22447
870.19	22584
870.32	22516
870.45	22542
870.58	22584
870.71	22835
870.84	22778
870.97	22645
871.1	22683
871.23	22843
871.36	22965
871.489	22797
871.619	22854
871.749	22839
871.879	22972
872.008	22995
872.138	22911
872.267	22790
872.397	22733
872.526	22793
872.656	22675
872.785	22694
872.915	22915
873.044	23044
873.173	22858
873.303	22942
873.432	22991
873.561	22961
873.69	22911
873.819	22965
873.948	23010
874.077	23022
874.206	22835
874.335	22957
874.464	23018
874.593	23071
874.722	23067
874.851	23086
874.979	23113
875.108	23189
875.237	23105
875.365	22953
875.494	23064
875.623	23178
875.751	23132
875.88	23162
876.008	23185
876.136	23277
876.265	23501
876.393	23611
876.521	23672
876.65	23608
876.778	23448
876.906	23486
877.034	23444
877.162	23528
877.29	23501
877.418	23463
877.546	23486
877.674	23471
877.802	23482
877.93	23505
878.058	23478
878.185	23334
878.313	23410
878.441	23345
878.568	23315
878.696	23391
878.824	23505
878.951	23539
879.079	23623
879.206	23790
879.333	23684
879.461	23368
879.588	23596
879.715	23638
879.842	23722
879.97	23482
880.097	23288
880.224	23273
880.351	23204
880.478	23265
880.605	23284
880.732	23326
880.859	23455
880.986	23318
881.112	23227
881.239	23041
881.366	23029
881.493	22873
881.619	22862
881.746	22877
881.872	22896
881.999	22809
882.125	22778
882.252	22850
882.378	22889
882.505	22881
882.631	22691
882.757	22508
882.883	22660
883.01	22611
883.136	22333
883.262	22451
883.388	22417
883.514	22565
883.64	22626
883.766	22356
883.892	22272
884.018	22303
884.143	22508
884.269	22573
884.395	22238
884.52	22230
884.646	22169
884.772	22109
884.897	22063
885.023	22185
885.148	22120
885.274	22291
885.399	22299
885.524	22143
885.65	22268
885.775	22128
885.9	22082
886.025	22371
886.15	22344
886.275	22063
886.4	22082
886.525	22036
886.65	22010
886.775	22070
886.9	22348
887.025	22356
887.149	22044
887.274	21941
887.399	21888
887.523	21850
887.648	21789
887.773	21827
887.897	21964
888.021	21907
888.146	21869
888.27	21899
888.395	21956
888.519	21846
888.643	21918
888.767	21949
888.891	21785
889.015	21709
889.139	21747
889.263	21808
889.387	21686
889.511	21880
889.635	21800
889.759	21557
889.883	21713
890.006	21739
890.13	21774
890.254	21610
890.377	21553
890.501	21325
890.624	21272
890.748	21492
890.871	21173
890.995	21203
891.118	21077
891.241	21329
891.364	21249
891.488	21348
891.611	21252
891.734	21336
891.857	21382
891.98	21294
892.103	21268
892.226	21146
892.349	21154
892.471	21074
892.594	21165
892.717	21173
892.839	21161
892.962	21112
893.085	21112
893.207	21070
893.33	20986
893.452	20967
893.575	21116
893.697	21085
893.819	21302
893.941	21252
894.064	21173
894.186	21184
894.308	20982
894.43	21096
894.552	21287
894.674	21169
894.796	20944
894.918	20994
895.04	21017
895.161	21173
895.283	21104
895.405	21268
895.526	21203
895.648	21013
895.769	21028
895.891	21085
896.012	21150
896.134	21104
896.255	21161
896.376	21116
896.498	21150
896.619	21138
896.74	21108
896.861	21226
896.982	21519
897.103	21599
897.224	21374
897.345	21310
897.466	21176
897.587	21310
897.708	21530
897.828	21382
897.949	21268
898.07	21100
898.19	21272
898.311	21348
898.431	21173
898.552	21332
898.672	21355
898.792	21416
898.913	21336
899.033	21169
899.153	21055
899.273	20971
899.393	21039
899.513	21127
899.633	21009
899.753	21081
899.873	21020
899.993	20963
900.113	20872
900.232	20937
900.352	20925
900.472	20849
900.591	20693
900.711	20682
900.83	20754
900.95	20857
901.069	20876
901.189	20636
901.308	20495
901.427	20355
901.546	20396
901.665	20434
901.784	20267
901.904	20168
902.023	20050
902.141	19887
902.26	19909
902.379	19940
902.498	19837
902.617	19753
902.735	19875
902.854	19917
902.973	19738
903.091	19495
903.21	19510
903.328	19559
903.446	19457
903.565	19362
903.683	19282
903.801	19152
903.919	19175
904.038	19335
904.156	19069
904.274	19069
904.392	19122
904.51	18981
904.627	19107
904.745	19046
904.863	19046
904.981	18802
905.098	18764
905.216	18730
905.334	18760
905.451	18802
905.569	18711
905.686	18646
905.803	18745
905.921	18365
906.038	18593
906.155	18544
906.272	18342
906.389	18304
906.506	18304
906.623	18270
906.74	18106
906.857	18133
906.974	18087
907.091	18235
907.208	18315
907.324	18258
907.441	18091
907.557	18045
907.674	17958
907.79	17859
907.907	17878
908.023	17958
908.139	17973
908.256	17859
908.372	17783
908.488	17729
908.604	17699
908.72	17630
908.836	17718
908.952	17630
909.068	17684
909.184	17764
909.3	17623
909.415	17646
909.531	17615
909.647	17330
909.762	17303
909.878	17296
909.993	17288
910.108	17254
910.224	17151
910.339	17296
910.454	17178
910.57	17102
910.685	17006
910.8	17326
910.915	17280
911.03	17064
911.145	16881
911.259	16919
911.374	16934
911.489	16847
911.604	16786
911.718	16653
911.833	16664
911.947	16592
912.062	16428
912.176	16569
912.291	16664
912.405	16618
912.519	16805
912.633	16782
912.748	16721
912.862	16478
912.976	16337
913.09	16249
913.204	16405
913.318	16379
913.431	16538
913.545	16542
913.659	16462
913.772	16375
913.886	16261
914	16226
914.113	16299
914.226	16360
914.34	16226
914.453	16090
914.566	16284
914.68	16074
914.793	16063
914.906	15831
915.019	15850
915.132	15705
915.245	15785
915.358	15876
915.47	15739
915.583	15774
915.696	15766
915.809	15842
915.921	15873
916.034	15751
916.146	15774
916.259	15549
916.371	15762
916.483	15778
916.595	15610
916.708	15595
916.82	15629
916.932	15523
917.044	15485
917.156	15584
917.268	15382
917.38	15431
917.491	15389
917.603	15408
917.715	15447
917.826	15496
917.938	15294
918.049	15245
918.161	15272
918.272	15538
918.384	15420
918.495	15378
918.606	15097
918.717	15058
918.828	15214
918.939	15142
919.05	15032
919.161	15138
919.272	14918
919.383	14963
919.494	15169
919.604	15428
919.715	15119
919.826	15070
919.936	15093
920.047	15157
920.157	15089
920.267	15237
920.378	15093
920.488	15001
920.598	15260
920.708	15348
920.818	15150
920.928	15112
921.038	15363
921.148	15336
921.258	14963
921.368	14982
921.477	14895
921.587	14849
921.697	14758
921.806	14773
921.916	14606
922.025	14503
922.134	14442
922.244	14404
922.353	14400
922.462	14423
922.571	14233
922.68	14096
922.789	14100
922.898	14126
923.007	14005
923.116	14130
923.224	13963
923.333	14039
923.442	13883
923.55	13951
923.659	13913
923.767	13868
923.876	13841
923.984	13925
924.092	13784
924.201	13761
924.309	13776
924.417	13826
924.525	13734
924.633	13727
924.741	14469
924.849	13544
924.956	13715
925.064	13499
925.172	13460
925.279	13476
925.387	13419
925.494	13487
925.602	13601
925.709	13491
925.816	13365
925.924	13422
926.031	13403
926.138	13377
926.245	13411
926.352	13270
926.459	13449
926.566	13403
926.673	13358
926.779	13240
926.886	13152
926.993	13061
927.099	12947
927.206	12966
927.312	12951
927.419	13053
927.525	13004
927.631	13015
927.737	12859
927.843	12798
927.95	12604
928.056	12814
928.162	12825
928.267	12909
928.373	13362
928.479	12806
928.585	12677
928.69	12764
928.796	12783
928.901	12597
929.007	12578
929.112	12585
929.218	12604
929.323	12464
929.428	12467
929.533	12669
929.638	12509
929.743	12429
929.848	12486
929.953	12479
930.058	12376
930.163	12243
930.267	12197
930.372	12258
930.477	12182
930.581	12388
930.685	12205
930.79	12095
930.894	12144
930.998	11973
931.103	12148
931.207	11748
931.311	11699
931.415	11623
931.519	11440
931.623	11391
