Data from test_V78500241_2301.txt Node
Date: Fri Mar 25 15:57:44 CST 2022
User: usil
Spectrometer: V785-0024
Trigger mode: 0
Integration Time (sec): 4.000000E-1
Scans to average: 1
Nonlinearity correction enabled: false
Boxcar width: 0
Storing dark spectrum: false
XAxis mode: Wavelengths
Number of Pixels in Spectrum: 1024
>>>>>Begin Spectral Data<<<<<
801.071	29128
801.214	28949
801.356	28828
801.499	28736
801.641	28702
801.783	28809
801.926	28744
802.068	28843
802.211	28622
802.353	28489
802.496	28493
802.638	28371
802.78	28462
802.923	28508
803.065	28265
803.208	28295
803.35	28440
803.492	28466
803.635	28554
803.777	28405
803.919	28599
804.061	28915
804.204	28607
804.346	28649
804.488	28497
804.63	28683
804.773	28535
804.915	28771
805.057	28717
805.199	28618
805.341	28801
805.483	28771
805.626	28767
805.768	28645
805.91	28869
806.052	28858
806.194	28805
806.336	28965
806.478	28847
806.62	28831
806.762	28984
806.904	29044
807.046	29402
807.188	29235
807.33	29239
807.472	29497
807.614	29113
807.756	29235
807.898	29064
808.04	29121
808.182	29117
808.324	29166
808.465	29220
808.607	29292
808.749	29539
808.891	29627
809.033	29630
809.174	29687
809.316	29509
809.458	29467
809.6	29634
809.741	29627
809.883	29539
810.025	29882
810.166	29779
810.308	29862
810.45	29691
810.591	29760
810.733	29649
810.875	29573
811.016	29490
811.158	29288
811.299	29528
811.441	29687
811.582	29672
811.724	29398
811.865	29600
812.007	29554
812.148	29558
812.29	29551
812.431	29847
812.573	29741
812.714	29882
812.855	30095
812.997	30083
813.138	30365
813.279	30243
813.421	30049
813.562	29893
813.703	29977
813.845	29866
813.986	29520
814.127	29322
814.268	29273
814.41	29429
814.551	29235
814.692	29318
814.833	29128
814.974	29212
815.115	29284
815.256	29113
815.397	29136
815.539	29208
815.68	29124
815.821	29094
815.962	29086
816.103	29006
816.244	28934
816.385	28847
816.526	28850
816.666	28565
816.807	28573
816.948	28698
817.089	28820
817.23	28516
817.371	28531
817.512	28538
817.653	28584
817.793	28561
817.934	28611
818.075	28596
818.216	28679
818.356	28531
818.497	28432
818.638	28360
818.778	28230
818.919	28417
819.06	28508
819.2	28428
819.341	28573
819.481	28557
819.622	28641
819.762	29018
819.903	28972
820.043	28748
820.184	28637
820.324	28755
820.465	28710
820.605	28683
820.746	28850
820.886	28694
821.026	28607
821.167	28744
821.307	28668
821.447	28577
821.588	28455
821.728	28436
821.868	28219
822.008	28147
822.149	28090
822.289	28025
822.429	27880
822.569	27850
822.709	27701
822.849	27667
822.99	27549
823.13	27633
823.27	27545
823.41	27241
823.55	27397
823.69	27401
823.83	27374
823.97	27351
824.11	27226
824.25	27211
824.389	27131
824.529	27298
824.669	27348
824.809	27230
824.949	27233
825.089	27420
825.228	27230
825.368	27104
825.508	27039
825.648	27032
825.787	27096
825.927	27218
826.067	27039
826.206	27066
826.346	27009
826.485	27165
826.625	27047
826.765	27214
826.904	27039
827.044	26868
827.183	26830
827.323	26918
827.462	26990
827.601	26952
827.741	26792
827.88	26910
828.02	26716
828.159	26838
828.298	26750
828.437	27024
828.577	26826
828.716	26906
828.855	26686
828.994	26488
829.134	26514
829.273	26594
829.412	26549
829.551	26465
829.69	26522
829.829	26533
829.968	26514
830.107	26568
830.246	26453
830.385	26366
830.524	26560
830.663	26278
830.802	26191
830.941	26065
831.08	26001
831.219	26153
831.357	26115
831.496	26278
831.635	26176
831.774	25932
831.913	26005
832.051	25970
832.19	25921
832.329	25925
832.467	25917
832.606	25784
832.744	25685
832.883	25833
833.022	25738
833.16	25860
833.299	25807
833.437	25852
833.576	25925
833.714	25712
833.852	25902
833.991	25814
834.129	26073
834.267	25932
834.406	25887
834.544	25852
834.682	25894
834.821	25769
834.959	26096
835.097	25696
835.235	25833
835.373	25799
835.511	25776
835.65	25753
835.788	25693
835.926	25556
836.064	25499
836.202	25578
836.34	25620
836.478	25909
836.615	25571
836.753	25723
836.891	25719
837.029	25655
837.167	25537
837.305	25434
837.443	25605
837.58	25502
837.718	25635
837.856	25479
837.993	25384
838.131	25491
838.269	25343
838.406	25381
838.544	25331
838.681	25122
838.819	25084
838.956	24962
839.094	24973
839.231	25057
839.369	25012
839.506	25373
839.643	25213
839.781	25023
839.918	24935
840.055	24935
840.193	24935
840.33	24863
840.467	24791
840.604	24905
840.742	25183
840.879	24681
841.016	24848
841.153	24783
841.29	24977
841.427	24791
841.564	24878
841.701	24840
841.838	24829
841.975	24627
842.112	24772
842.249	24700
842.385	24597
842.522	24935
842.659	24844
842.796	24650
842.933	24608
843.069	24585
843.206	24391
843.343	24661
843.479	24681
843.616	24623
843.752	24429
843.889	24376
844.025	24521
844.162	24251
844.298	24460
844.435	24296
844.571	24285
844.708	24452
844.844	24635
844.98	24369
845.117	24429
845.253	24296
845.389	24251
845.525	24292
845.661	24262
845.798	24125
845.934	24209
846.07	24060
846.206	24155
846.342	24205
846.478	24106
846.614	23996
846.75	23729
846.886	23859
847.022	23901
847.158	23726
847.294	23863
847.429	23813
847.565	23893
847.701	24076
847.837	23482
847.972	23547
848.108	23623
848.244	23661
848.379	23444
848.515	23349
848.65	23425
848.786	23349
848.921	23474
849.057	23452
849.192	23433
849.328	23608
849.463	23372
849.598	23288
849.734	23353
849.869	23334
850.004	23330
850.14	23269
850.275	23254
850.41	22995
850.545	23113
850.68	23128
850.815	23223
850.95	23155
851.085	23273
851.22	23193
851.355	23147
851.49	23151
851.625	23166
851.76	23166
851.895	23140
852.03	23060
852.165	23239
852.299	23322
852.434	23288
852.569	23341
852.703	23052
852.838	23269
852.973	23269
853.107	23235
853.242	23083
853.376	23018
853.511	22729
853.645	22965
853.78	23121
853.914	23025
854.048	22934
854.183	22805
854.317	23022
854.451	23117
854.585	22961
854.72	23018
854.854	23018
854.988	22927
855.122	22942
855.256	22892
855.39	22839
855.524	23006
855.658	23033
855.792	22961
855.926	23056
856.06	23083
856.194	23094
856.327	22976
856.461	22919
856.595	22889
856.729	22908
856.862	23113
856.996	23033
857.13	23140
857.263	23117
857.397	23037
857.53	22965
857.664	23006
857.797	23079
857.931	23090
858.064	23060
858.197	23048
858.331	22953
858.464	22816
858.597	22854
858.731	22885
858.864	22904
858.997	22900
859.13	22987
859.263	23056
859.396	23060
859.529	23025
859.662	23006
859.795	22900
859.928	23006
860.061	23102
860.194	23200
860.327	23010
860.46	23121
860.592	23143
860.725	23178
860.858	23098
860.99	23033
861.123	22908
861.256	22869
861.388	23006
861.521	23573
861.653	22816
861.786	22793
861.918	22729
862.05	22991
862.183	22900
862.315	22881
862.447	22972
862.58	22949
862.712	22637
862.844	22660
862.976	22744
863.108	22710
863.24	23159
863.372	22675
863.504	22698
863.636	22653
863.768	22812
863.9	22717
864.032	22637
864.164	22675
864.296	22653
864.428	22733
864.559	22733
864.691	22786
864.823	22691
864.954	22622
865.086	22672
865.217	22596
865.349	22580
865.48	22622
865.612	22546
865.743	22622
865.875	22481
866.006	22519
866.137	22493
866.269	22546
866.4	22607
866.531	22413
866.662	22394
866.793	22577
866.924	22493
867.055	22577
867.186	22527
867.317	22390
867.448	22478
867.579	22447
867.71	22405
867.841	22421
867.972	22459
868.103	22421
868.233	22459
868.364	22478
868.495	22656
868.625	22691
868.756	22847
868.886	22637
869.017	22683
869.147	22869
869.278	22896
869.408	22641
869.539	22698
869.669	22790
869.799	22755
869.929	22771
870.06	22873
870.19	23041
870.32	23014
870.45	23067
870.58	23102
870.71	23250
870.84	23136
870.97	23064
871.1	23022
871.23	23341
871.36	23250
871.489	23216
871.619	23421
871.749	23341
871.879	23497
872.008	23436
872.138	23288
872.267	23402
872.397	23174
872.526	23200
872.656	23162
872.785	23121
872.915	23497
873.044	23364
873.173	23341
873.303	23459
873.432	23311
873.561	23417
873.69	23322
873.819	23220
873.948	23509
874.077	23383
874.206	23353
874.335	23330
874.464	23406
874.593	23619
874.722	23406
874.851	23573
874.979	23627
875.108	23501
875.237	23376
875.365	23512
875.494	23433
875.623	23680
875.751	23452
875.88	23687
876.008	23668
876.136	23684
876.265	24041
876.393	24022
876.521	23988
876.65	24018
876.778	23920
876.906	23805
877.034	23786
877.162	23965
877.29	23908
877.418	23828
877.546	23836
877.674	23855
877.802	23950
877.93	23916
878.058	23832
878.185	23699
878.313	23779
878.441	23794
878.568	23668
878.696	23859
878.824	23912
878.951	24049
879.079	24022
879.206	24167
879.333	24064
879.461	23908
879.588	23999
879.715	23840
879.842	24167
879.97	23897
880.097	23748
880.224	23729
880.351	23699
880.478	23783
880.605	23680
880.732	23634
880.859	23935
880.986	23733
881.112	23726
881.239	23600
881.366	23372
881.493	23356
881.619	23208
881.746	23410
881.872	23212
881.999	23239
882.125	23109
882.252	23315
882.378	23178
882.505	23448
882.631	23064
882.757	22866
882.883	22953
883.01	22885
883.136	22923
883.262	22835
883.388	22736
883.514	22995
883.64	22869
883.766	22892
883.892	22729
884.018	22672
884.143	22793
884.269	22927
884.395	22626
884.52	22607
884.646	22660
884.772	22500
884.897	22405
885.023	22577
885.148	22687
885.274	22653
885.399	22668
885.524	22436
885.65	22550
885.775	22607
885.9	22363
886.025	22542
886.15	22748
886.275	22527
886.4	22516
886.525	22527
886.65	22432
886.775	22409
886.9	22512
887.025	22725
887.149	22516
887.274	22379
887.399	22257
887.523	22363
887.648	22147
887.773	22261
887.897	22333
888.021	22363
888.146	22173
888.27	22417
888.395	22413
888.519	22223
888.643	22360
888.767	22329
888.891	22230
889.015	22044
889.139	22131
889.263	22078
889.387	22131
889.511	22284
889.635	22207
889.759	22063
889.883	21991
890.006	21975
890.13	22074
890.254	21968
890.377	21899
890.501	21949
890.624	21899
890.748	21884
890.871	21663
890.995	21709
891.118	21595
891.241	21637
891.364	21701
891.488	21747
891.611	21709
891.734	21644
891.857	21694
891.98	21679
892.103	21606
892.226	21644
892.349	21686
892.471	21462
892.594	21568
892.717	21606
892.839	21549
892.962	21583
893.085	21542
893.207	21523
893.33	21534
893.452	21511
893.575	21542
893.697	21466
893.819	21667
893.941	21717
894.064	21690
894.186	21420
894.308	21412
894.43	21439
894.552	21675
894.674	21572
894.796	21363
894.918	21458
895.04	21428
895.161	21469
895.283	21431
895.405	21393
895.526	21450
895.648	21572
895.769	21485
895.891	21450
896.012	21542
896.134	21431
896.255	21466
896.376	21317
896.498	21458
896.619	21492
896.74	21462
896.861	21507
896.982	21751
897.103	21899
897.224	21781
897.345	21724
897.466	21625
897.587	21698
897.708	21675
897.828	21766
897.949	21545
898.07	21622
898.19	21496
898.311	21686
898.431	21568
898.552	21610
898.672	21690
898.792	21800
898.913	21618
899.033	21561
899.153	21526
899.273	21317
899.393	21595
899.513	21370
899.633	21374
899.753	21466
899.873	21351
899.993	21401
900.113	21317
900.232	21275
900.352	21249
900.472	21241
900.591	21062
900.711	21119
900.83	21089
900.95	21230
901.069	21233
901.189	20937
901.308	20781
901.427	20693
901.546	20693
901.665	20739
901.784	20758
901.904	20465
902.023	20514
902.141	20244
902.26	20305
902.379	20183
902.498	20221
902.617	20172
902.735	20275
902.854	20195
902.973	20065
903.091	19856
903.21	19951
903.328	19833
903.446	19845
903.565	19738
903.683	19609
903.801	19491
903.919	19616
904.038	19609
904.156	19506
904.274	19460
904.392	19365
904.51	19297
904.627	19430
904.745	19430
904.863	19510
904.981	19263
905.098	19088
905.216	19152
905.334	19046
905.451	18951
905.569	19091
905.686	19053
905.803	19015
905.921	18916
906.038	18886
906.155	18863
906.272	18642
906.389	18745
906.506	18642
906.623	18460
906.74	18578
906.857	18585
906.974	18582
907.091	18627
907.208	18612
907.324	18673
907.441	18509
907.557	18384
907.674	18311
907.79	18323
907.907	18201
908.023	18281
908.139	18232
908.256	18266
908.372	18308
908.488	18281
908.604	18129
908.72	18114
908.836	17984
908.952	18049
909.068	17977
909.184	18072
909.3	17927
909.415	18011
909.531	17977
909.647	17722
909.762	17775
909.878	17722
909.993	17729
910.108	17699
910.224	17604
910.339	17649
910.454	17611
910.57	17486
910.685	17474
910.8	17611
910.915	17585
911.03	17478
911.145	17383
911.259	17174
911.374	17223
911.489	17242
911.604	17269
911.718	17045
911.833	17071
911.947	16999
912.062	16892
912.176	17037
912.291	17136
912.405	17094
912.519	17296
912.633	17143
912.748	17143
912.862	17029
912.976	16828
913.09	16736
913.204	16847
913.318	16763
913.431	16968
913.545	16892
913.659	16972
913.772	16717
913.886	16634
914	16577
914.113	16725
914.226	16660
914.34	16656
914.453	16577
914.566	16687
914.68	16466
914.793	16382
914.906	16287
915.019	16158
915.132	16128
915.245	16143
915.358	16173
915.47	16265
915.583	16169
915.696	16207
915.809	16154
915.921	16367
916.034	16162
916.146	16109
916.259	16010
916.371	16139
916.483	16101
916.595	16032
916.708	16040
916.82	16071
916.932	15972
917.044	15876
917.156	15884
917.268	15831
917.38	15895
917.491	15732
917.603	15743
917.715	15941
917.826	15797
917.938	15732
918.049	15660
918.161	15793
918.272	15816
918.384	15816
918.495	15656
918.606	15561
918.717	15481
918.828	15682
918.939	15667
919.05	15428
919.161	15473
919.272	15256
919.383	15420
919.494	15561
919.604	15682
919.715	15447
919.826	15359
919.936	15397
920.047	15549
920.157	15466
920.267	15587
920.378	15572
920.488	15382
920.598	15660
920.708	15838
920.818	15545
920.928	15637
921.038	15747
921.148	15724
921.258	15405
921.368	15294
921.477	15275
921.587	15222
921.697	14998
921.806	15108
921.916	15093
922.025	14845
922.134	14804
922.244	14762
922.353	14861
922.462	14610
922.571	14571
922.68	14473
922.789	14423
922.898	14465
923.007	14317
923.116	14442
923.224	14415
923.333	14469
923.442	14377
923.55	14225
923.659	14328
923.767	14377
923.876	14195
923.984	14172
924.092	14183
924.201	14263
924.309	14221
924.417	14202
924.525	14103
924.633	14126
924.741	15028
924.849	13917
924.956	13982
925.064	13795
925.172	13826
925.279	13841
925.387	13849
925.494	13833
925.602	13894
925.709	13864
925.816	13750
925.924	13814
926.031	13841
926.138	13723
926.245	13791
926.352	13689
926.459	13693
926.566	13765
926.673	13727
926.779	13464
926.886	13544
926.993	13415
927.099	13320
927.206	13362
927.312	13240
927.419	13400
927.525	13343
927.631	13384
927.737	13171
927.843	13221
927.95	13061
928.056	13091
928.162	13122
928.267	13122
928.373	13864
928.479	13206
928.585	13012
928.69	13053
928.796	13091
928.901	12905
929.007	12901
929.112	12993
929.218	12954
929.323	12848
929.428	12852
929.533	13008
929.638	12772
929.743	12821
929.848	12806
929.953	12741
930.058	12677
930.163	12479
930.267	12612
930.372	12703
930.477	12448
930.581	12726
930.685	12551
930.79	12486
930.894	12330
930.998	12346
931.103	12566
931.207	12243
931.311	12095
931.415	11931
931.519	11779
931.623	11703
