Data from test_V78500241_2007.txt Node
Date: Fri Mar 25 15:55:42 CST 2022
User: usil
Spectrometer: V785-0024
Trigger mode: 0
Integration Time (sec): 4.000000E-1
Scans to average: 1
Nonlinearity correction enabled: false
Boxcar width: 0
Storing dark spectrum: false
XAxis mode: Wavelengths
Number of Pixels in Spectrum: 1024
>>>>>Begin Spectral Data<<<<<
801.071	28596
801.214	28538
801.356	28078
801.499	28147
801.641	28101
801.783	28002
801.926	28048
802.068	28032
802.211	27994
802.353	28032
802.496	27835
802.638	27682
802.78	27759
802.923	27720
803.065	27656
803.208	27755
803.35	27743
803.492	28029
803.635	27991
803.777	27899
803.919	28051
804.061	28306
804.204	28055
804.346	27972
804.488	27781
804.63	27998
804.773	27804
804.915	28017
805.057	28177
805.199	27846
805.341	27918
805.483	28226
805.626	28112
805.768	28032
805.91	28181
806.052	28169
806.194	28040
806.336	28257
806.478	28090
806.62	28246
806.762	28382
806.904	28474
807.046	28577
807.188	28478
807.33	28645
807.472	28668
807.614	28478
807.756	28645
807.898	28440
808.04	28561
808.182	28287
808.324	28512
808.465	28557
808.607	28573
808.749	28778
808.891	28820
809.033	28957
809.174	28934
809.316	28820
809.458	28763
809.6	28828
809.741	28809
809.883	28908
810.025	28991
810.166	28904
810.308	29075
810.45	29033
810.591	28961
810.733	28847
810.875	28831
811.016	28607
811.158	28653
811.299	28873
811.441	29033
811.582	29071
811.724	28866
811.865	28782
812.007	28835
812.148	28592
812.29	28721
812.431	29098
812.573	29067
812.714	29216
812.855	29391
812.997	29334
813.138	29634
813.279	29627
813.421	29254
813.562	29326
813.703	29102
813.845	29090
813.986	28740
814.127	28660
814.268	28679
814.41	28500
814.551	28455
814.692	28493
814.833	28409
814.974	28432
815.115	28569
815.256	28409
815.397	28478
815.539	28337
815.68	28287
815.821	28070
815.962	28352
816.103	28322
816.244	28112
816.385	28105
816.526	28067
816.666	27892
816.807	27903
816.948	27880
817.089	27888
817.23	27907
817.371	27793
817.512	27778
817.653	27797
817.793	27789
817.934	27819
818.075	27816
818.216	27732
818.356	27854
818.497	27553
818.638	27599
818.778	27629
818.919	27648
819.06	27549
819.2	27755
819.341	27679
819.481	27713
819.622	28017
819.762	28040
819.903	28135
820.043	28002
820.184	28002
820.324	28017
820.465	27945
820.605	27953
820.746	27899
820.886	27778
821.026	27945
821.167	27899
821.307	27956
821.447	27770
821.588	27789
821.728	27603
821.868	27454
822.008	27355
822.149	27279
822.289	27214
822.429	26986
822.569	26849
822.709	26975
822.849	26807
822.99	26819
823.13	26743
823.27	26849
823.41	26575
823.55	26556
823.69	26556
823.83	26625
823.97	26568
824.11	26511
824.25	26385
824.389	26499
824.529	26560
824.669	26381
824.809	26560
824.949	26598
825.089	26537
825.228	26495
825.368	26351
825.508	26301
825.648	26400
825.787	26450
825.927	26370
826.067	26210
826.206	26187
826.346	26313
826.485	26336
826.625	26339
826.765	26522
826.904	26282
827.044	26153
827.183	26088
827.323	26039
827.462	26084
827.601	26122
827.741	26058
827.88	26073
828.02	25894
828.159	25959
828.298	25989
828.437	25917
828.577	26012
828.716	26176
828.855	26027
828.994	25841
829.134	25708
829.273	25887
829.412	25635
829.551	25658
829.69	25696
829.829	25814
829.968	25715
830.107	25799
830.246	25723
830.385	25757
830.524	25597
830.663	25521
830.802	25377
830.941	25457
831.08	25350
831.219	25506
831.357	25415
831.496	25506
831.635	25282
831.774	25190
831.913	25202
832.051	25114
832.19	25129
832.329	25133
832.467	25050
832.606	25034
832.744	25012
832.883	25053
833.022	25038
833.16	25080
833.299	24958
833.437	24966
833.576	25122
833.714	25099
833.852	25141
833.991	25114
834.129	25126
834.267	25187
834.406	24989
834.544	25110
834.682	25046
834.821	25038
834.959	25168
835.097	24920
835.235	25187
835.373	25095
835.511	25072
835.65	24920
835.788	24928
835.926	24753
836.064	24677
836.202	24719
836.34	24894
836.478	25019
836.615	25012
836.753	24867
836.891	24886
837.029	25000
837.167	24859
837.305	24867
837.443	24711
837.58	24627
837.718	24909
837.856	24684
837.993	24631
838.131	24700
838.269	24521
838.406	24566
838.544	24631
838.681	24323
838.819	24448
838.956	24174
839.094	24216
839.231	24270
839.369	24296
839.506	24639
839.643	24479
839.781	24133
839.918	24106
840.055	24182
840.193	24026
840.33	24251
840.467	24216
840.604	24258
840.742	24346
840.879	24022
841.016	24003
841.153	23920
841.29	24106
841.427	24003
841.564	24110
841.701	24110
841.838	23996
841.975	23954
842.112	24076
842.249	23992
842.385	23885
842.522	24155
842.659	24011
842.796	23885
842.933	23847
843.069	23866
843.206	23832
843.343	23916
843.479	23855
843.616	23817
843.752	23665
843.889	23687
844.025	23805
844.162	23581
844.298	23649
844.435	23600
844.571	23566
844.708	23547
844.844	23958
844.98	23714
845.117	23748
845.253	23665
845.389	23535
845.525	23520
845.661	23524
845.798	23467
845.934	23402
846.07	23387
846.206	23337
846.342	23452
846.478	23326
846.614	23162
846.75	23033
846.886	23071
847.022	23155
847.158	23117
847.294	23136
847.429	23098
847.565	22972
847.701	23292
847.837	22683
847.972	22797
848.108	22892
848.244	22850
848.379	22797
848.515	22668
848.65	22588
848.786	22618
848.921	22717
849.057	22881
849.192	22721
849.328	22683
849.463	22596
849.598	22626
849.734	22516
849.869	22527
850.004	22413
850.14	22485
850.275	22432
850.41	22394
850.545	22386
850.68	22466
850.815	22489
850.95	22379
851.085	22409
851.22	22470
851.355	22455
851.49	22390
851.625	22356
851.76	22478
851.895	22405
852.03	22428
852.165	22535
852.299	22440
852.434	22466
852.569	22508
852.703	22356
852.838	22451
852.973	22500
853.107	22497
853.242	22386
853.376	22306
853.511	22036
853.645	22261
853.78	22337
853.914	22211
854.048	22272
854.183	22249
854.317	22226
854.451	22497
854.585	22261
854.72	22287
854.854	22306
854.988	22188
855.122	22158
855.256	22204
855.39	22219
855.524	22261
855.658	22192
855.792	22360
855.926	22223
856.06	22344
856.194	22356
856.327	22169
856.461	22185
856.595	22192
856.729	22169
856.862	22325
856.996	22287
857.13	22234
857.263	22303
857.397	22306
857.53	22158
857.664	22253
857.797	22382
857.931	22291
858.064	22249
858.197	22478
858.331	22242
858.464	22341
858.597	22143
858.731	22371
858.864	22188
858.997	22253
859.13	22268
859.263	22192
859.396	22341
859.529	22169
859.662	22093
859.795	22097
859.928	22223
860.061	22371
860.194	22421
860.327	22188
860.46	22394
860.592	22443
860.725	22386
860.858	22386
860.99	22303
861.123	22200
861.256	22192
861.388	22204
861.521	22957
861.653	22070
861.786	22002
861.918	22048
862.05	22128
862.183	22158
862.315	22192
862.447	22200
862.58	22219
862.712	21949
862.844	21941
862.976	22090
863.108	22070
863.24	22428
863.372	21846
863.504	21937
863.636	21899
863.768	21915
863.9	21915
864.032	21945
864.164	21884
864.296	21926
864.428	21964
864.559	22025
864.691	21922
864.823	21945
864.954	22002
865.086	21857
865.217	21865
865.349	21781
865.48	21835
865.612	21789
865.743	22025
865.875	21732
866.006	21907
866.137	21770
866.269	21804
866.4	21854
866.531	21819
866.662	21755
866.793	21713
866.924	21781
867.055	21800
867.186	21797
867.317	21797
867.448	21694
867.579	21762
867.71	21739
867.841	21724
867.972	21667
868.103	21854
868.233	21770
868.364	21755
868.495	21869
868.625	21960
868.756	22082
868.886	21968
869.017	22021
869.147	22059
869.278	22078
869.408	22051
869.539	22059
869.669	22082
869.799	22090
869.929	22112
870.06	21968
870.19	22322
870.32	22325
870.45	22367
870.58	22485
870.71	22455
870.84	22451
870.97	22440
871.1	22512
871.23	22462
871.36	22577
871.489	22390
871.619	22588
871.749	22660
871.879	22592
872.008	22679
872.138	22497
872.267	22508
872.397	22409
872.526	22478
872.656	22493
872.785	22398
872.915	22664
873.044	22885
873.173	22519
873.303	22641
873.432	22679
873.561	22752
873.69	22698
873.819	22561
873.948	22740
874.077	22713
874.206	22611
874.335	22550
874.464	22713
874.593	22835
874.722	22820
874.851	22828
874.979	22801
875.108	22869
875.237	22858
875.365	22763
875.494	22908
875.623	22938
875.751	22858
875.88	22850
876.008	22957
876.136	23029
876.265	23231
876.393	23303
876.521	23318
876.65	23303
876.778	23239
876.906	23178
877.034	23235
877.162	23113
877.29	23105
877.418	23185
877.546	23220
877.674	23200
877.802	23200
877.93	23083
878.058	23231
878.185	23086
878.313	23162
878.441	23121
878.568	23025
878.696	23044
878.824	23242
878.951	23284
879.079	23482
879.206	23433
879.333	23349
879.461	23269
879.588	23345
879.715	23258
879.842	23531
879.97	23239
880.097	23067
880.224	23014
880.351	23121
880.478	22980
880.605	22892
880.732	22896
880.859	23170
880.986	23037
881.112	23025
881.239	22896
881.366	22801
881.493	22607
881.619	22618
881.746	22512
881.872	22588
881.999	22603
882.125	22538
882.252	22744
882.378	22550
882.505	22584
882.631	22379
882.757	22325
882.883	22375
883.01	22310
883.136	22249
883.262	22253
883.388	22112
883.514	22287
883.64	22219
883.766	22181
883.892	21968
884.018	22109
884.143	22093
884.269	22265
884.395	21934
884.52	21903
884.646	21850
884.772	21846
884.897	21785
885.023	21930
885.148	22139
885.274	22021
885.399	21953
885.524	21774
885.65	21918
885.775	21964
885.9	21838
886.025	21945
886.15	21907
886.275	21831
886.4	21831
886.525	21865
886.65	21808
886.775	21667
886.9	21884
887.025	22051
887.149	21895
887.274	21709
887.399	21614
887.523	21583
887.648	21454
887.773	21561
887.897	21610
888.021	21625
888.146	21523
888.27	21667
888.395	21690
888.519	21743
888.643	21713
888.767	21675
888.891	21652
889.015	21454
889.139	21519
889.263	21450
889.387	21443
889.511	21519
889.635	21610
889.759	21355
889.883	21367
890.006	21405
890.13	21538
890.254	21351
890.377	21355
890.501	21085
890.624	21169
890.748	21184
890.871	21036
890.995	20887
891.118	20925
891.241	20899
891.364	20929
891.488	21089
891.611	21066
891.734	20990
891.857	21047
891.98	21100
892.103	21112
892.226	21047
892.349	20880
892.471	20872
892.594	20895
892.717	20952
892.839	20857
892.962	20872
893.085	20914
893.207	20823
893.33	20743
893.452	20807
893.575	20994
893.697	20872
893.819	21089
893.941	20975
894.064	20971
894.186	20842
894.308	20746
894.43	20967
894.552	20982
894.674	20986
894.796	20765
894.918	20883
895.04	20796
895.161	20956
895.283	20876
895.405	20891
895.526	20941
895.648	20830
895.769	20963
895.891	20834
896.012	20960
896.134	20849
896.255	20788
896.376	20796
896.498	20880
896.619	20853
896.74	20750
896.861	20895
896.982	21142
897.103	21329
897.224	21165
897.345	21169
897.466	21108
897.587	21093
897.708	21173
897.828	21070
897.949	20891
898.07	20830
898.19	21081
898.311	21184
898.431	21024
898.552	21146
898.672	21104
898.792	21142
898.913	21024
899.033	20929
899.153	20788
899.273	20788
899.393	20762
899.513	20857
899.633	20815
899.753	20929
899.873	20697
899.993	20750
900.113	20708
900.232	20762
900.352	20720
900.472	20651
900.591	20564
900.711	20716
900.83	20492
900.95	20762
901.069	20632
901.189	20503
901.308	20301
901.427	20103
901.546	20142
901.665	20183
901.784	20214
901.904	20111
902.023	19932
902.141	19578
902.26	19734
902.379	19780
902.498	19734
902.617	19594
902.735	19670
902.854	19635
902.973	19438
903.091	19331
903.21	19343
903.328	19285
903.446	19221
903.565	19126
903.683	19141
903.801	18981
903.919	19099
904.038	18985
904.156	18867
904.274	18954
904.392	18821
904.51	18878
904.627	18882
904.745	18897
904.863	18829
904.981	18749
905.098	18498
905.216	18551
905.334	18646
905.451	18532
905.569	18612
905.686	18608
905.803	18414
905.921	18330
906.038	18395
906.155	18266
906.272	18209
906.389	18266
906.506	18186
906.623	18041
906.74	18053
906.857	18072
906.974	17874
907.091	18174
907.208	18098
907.324	18076
907.441	17942
907.557	17775
907.674	17691
907.79	17752
907.907	17726
908.023	17836
908.139	17756
908.256	17737
908.372	17623
908.488	17646
908.604	17455
908.72	17455
908.836	17505
908.952	17520
909.068	17520
909.184	17543
909.3	17486
909.415	17547
909.531	17520
909.647	17250
909.762	17193
909.878	17109
909.993	17239
910.108	17094
910.224	17174
910.339	17147
910.454	17128
910.57	16984
910.685	16949
910.8	17090
910.915	17208
911.03	17025
911.145	16812
911.259	16771
911.374	16774
911.489	16736
911.604	16550
911.718	16554
911.833	16603
911.947	16409
912.062	16329
912.176	16592
912.291	16527
912.405	16573
912.519	16801
912.633	16752
912.748	16630
912.862	16459
912.976	16303
913.09	16280
913.204	16284
913.318	16375
913.431	16333
913.545	16344
913.659	16333
913.772	16322
913.886	16131
914	16166
914.113	16192
914.226	16253
914.34	16101
914.453	15991
914.566	16169
914.68	15991
914.793	16006
914.906	15812
915.019	15785
915.132	15641
915.245	15625
915.358	15698
915.47	15736
915.583	15675
915.696	15766
915.809	15774
915.921	15922
916.034	15625
916.146	15656
916.259	15553
916.371	15629
916.483	15690
916.595	15515
916.708	15526
916.82	15511
916.932	15553
917.044	15523
917.156	15488
917.268	15256
917.38	15393
917.491	15249
917.603	15405
917.715	15439
917.826	15511
917.938	15249
918.049	15100
918.161	15188
918.272	15397
918.384	15386
918.495	15211
918.606	15100
918.717	15032
918.828	15192
918.939	15173
919.05	14906
919.161	15055
919.272	14861
919.383	14979
919.494	15070
919.604	15211
919.715	15036
919.826	14864
919.936	15036
920.047	15032
920.157	15039
920.267	15283
920.378	15226
920.488	14971
920.598	15325
920.708	15348
920.818	15176
920.928	15150
921.038	15359
921.148	15287
921.258	14975
921.368	14804
921.477	14853
921.587	14743
921.697	14636
921.806	14758
921.916	14610
922.025	14427
922.134	14396
922.244	14419
922.353	14507
922.462	14370
922.571	14191
922.68	14088
922.789	14073
922.898	14130
923.007	13993
923.116	14069
923.224	14043
923.333	13982
923.442	13894
923.55	13936
923.659	13906
923.767	13989
923.876	13852
923.984	13906
924.092	13712
924.201	13772
924.309	13742
924.417	13757
924.525	13696
924.633	13628
924.741	14419
924.849	13460
924.956	13605
925.064	13514
925.172	13358
925.279	13468
925.387	13453
925.494	13480
925.602	13548
925.709	13460
925.816	13331
925.924	13373
926.031	13392
926.138	13270
926.245	13293
926.352	13312
926.459	13430
926.566	13381
926.673	13282
926.779	13206
926.886	13152
926.993	13004
927.099	12966
927.206	12985
927.312	12947
927.419	12954
927.525	12996
927.631	12985
927.737	12840
927.843	12871
927.95	12681
928.056	12760
928.162	12852
928.267	12856
928.373	13502
928.479	12901
928.585	12703
928.69	12738
928.796	12757
928.901	12608
929.007	12490
929.112	12601
929.218	12597
929.323	12555
929.428	12509
929.533	12578
929.638	12372
929.743	12414
929.848	12498
929.953	12452
930.058	12327
930.163	12125
930.267	12190
930.372	12342
930.477	12087
930.581	12319
930.685	12194
930.79	12098
930.894	12068
930.998	12083
931.103	12239
931.207	11695
931.311	11790
931.415	11596
931.519	11414
931.623	11345
