Data from test_V78500241_1760.txt Node
Date: Fri Mar 25 15:53:59 CST 2022
User: usil
Spectrometer: V785-0024
Trigger mode: 0
Integration Time (sec): 4.000000E-1
Scans to average: 1
Nonlinearity correction enabled: false
Boxcar width: 0
Storing dark spectrum: false
XAxis mode: Wavelengths
Number of Pixels in Spectrum: 1024
>>>>>Begin Spectral Data<<<<<
801.071	28740
801.214	28721
801.356	28413
801.499	28398
801.641	28447
801.783	28363
801.926	28485
802.068	28398
802.211	28329
802.353	28303
802.496	27991
802.638	28131
802.78	27941
802.923	27827
803.065	27842
803.208	27941
803.35	28006
803.492	28166
803.635	28291
803.777	28112
803.919	28310
804.061	28603
804.204	28401
804.346	28158
804.488	27987
804.63	28375
804.773	28234
804.915	28284
805.057	28367
805.199	28204
805.341	28325
805.483	28295
805.626	28466
805.768	28421
805.91	28390
806.052	28352
806.194	28299
806.336	28717
806.478	28409
806.62	28367
806.762	28580
806.904	28694
807.046	28839
807.188	28831
807.33	28923
807.472	28934
807.614	28805
807.756	28755
807.898	28790
808.04	28725
808.182	28740
808.324	28809
808.465	28812
808.607	29003
808.749	29121
808.891	29178
809.033	29242
809.174	29185
809.316	29044
809.458	29052
809.6	29090
809.741	29132
809.883	29166
810.025	29216
810.166	29455
810.308	29467
810.45	29155
810.591	29307
810.733	29193
810.875	29193
811.016	28984
811.158	29090
811.299	29296
811.441	29250
811.582	29250
811.724	29189
811.865	29193
812.007	29094
812.148	29003
812.29	29113
812.431	29288
812.573	29493
812.714	29608
812.855	29718
812.997	29805
813.138	29973
813.279	29916
813.421	29600
813.562	29638
813.703	29596
813.845	29383
813.986	29075
814.127	29033
814.268	28953
814.41	28980
814.551	28824
814.692	28877
814.833	28850
814.974	28911
815.115	28934
815.256	28774
815.397	28786
815.539	28687
815.68	28683
815.821	28603
815.962	28733
816.103	28706
816.244	28459
816.385	28519
816.526	28405
816.666	28295
816.807	28029
816.948	28238
817.089	28295
817.23	28295
817.371	28219
817.512	28082
817.653	28097
817.793	28116
817.934	28211
818.075	28173
818.216	28101
818.356	28097
818.497	28051
818.638	27812
818.778	27895
818.919	27987
819.06	27956
819.2	28059
819.341	28120
819.481	28162
819.622	28310
819.762	28341
819.903	28573
820.043	28421
820.184	28322
820.324	28276
820.465	28310
820.605	28322
820.746	28257
820.886	28078
821.026	28394
821.167	28284
821.307	28265
821.447	28154
821.588	28006
821.728	27835
821.868	27770
822.008	27778
822.149	27743
822.289	27652
822.429	27420
822.569	27382
822.709	27439
822.849	27173
822.99	27169
823.13	27112
823.27	27222
823.41	26876
823.55	26804
823.69	26937
823.83	26998
823.97	26944
824.11	26800
824.25	26781
824.389	26743
824.529	26899
824.669	26868
824.809	27066
824.949	26883
825.089	26979
825.228	26819
825.368	26621
825.508	26708
825.648	26746
825.787	26811
825.927	26800
826.067	26640
826.206	26792
826.346	26781
826.485	26651
826.625	26659
826.765	26743
826.904	26731
827.044	26427
827.183	26514
827.323	26366
827.462	26492
827.601	26537
827.741	26336
827.88	26484
828.02	26271
828.159	26355
828.298	26492
828.437	26450
828.577	26267
828.716	26469
828.855	26362
828.994	26161
829.134	26054
829.273	26191
829.412	26058
829.551	26065
829.69	26126
829.829	26054
829.968	26157
830.107	26214
830.246	26210
830.385	26058
830.524	25982
830.663	25845
830.802	25864
830.941	25753
831.08	25578
831.219	25738
831.357	25753
831.496	25997
831.635	25708
831.774	25533
831.913	25601
832.051	25582
832.19	25715
832.329	25537
832.467	25479
832.606	25304
832.744	25472
832.883	25441
833.022	25263
833.16	25373
833.299	25529
833.437	25400
833.576	25491
833.714	25510
833.852	25365
833.991	25537
834.129	25575
834.267	25457
834.406	25434
834.544	25533
834.682	25453
834.821	25384
834.959	25647
835.097	25453
835.235	25460
835.373	25320
835.511	25407
835.65	25202
835.788	25251
835.926	25133
836.064	25023
836.202	25148
836.34	25285
836.478	25457
836.615	25263
836.753	25350
836.891	25304
837.029	25274
837.167	25118
837.305	25099
837.443	25065
837.58	25019
837.718	25320
837.856	25122
837.993	24909
838.131	25160
838.269	24951
838.406	25015
838.544	24760
838.681	24627
838.819	24802
838.956	24650
839.094	24639
839.231	24601
839.369	24760
839.506	25012
839.643	24791
839.781	24589
839.918	24555
840.055	24498
840.193	24559
840.33	24555
840.467	24369
840.604	24589
840.742	24753
840.879	24285
841.016	24452
841.153	24311
841.29	24715
841.427	24559
841.564	24372
841.701	24330
841.838	24475
841.975	24384
842.112	24365
842.249	24266
842.385	24194
842.522	24498
842.659	24410
842.796	24186
842.933	24270
843.069	24167
843.206	24262
843.343	24140
843.479	24159
843.616	24232
843.752	24095
843.889	24026
844.025	24106
844.162	24003
844.298	24003
844.435	23999
844.571	24049
844.708	24026
844.844	24110
844.98	24159
845.117	24148
845.253	24171
845.389	23824
845.525	23813
845.661	23813
845.798	23836
845.934	23726
846.07	23672
846.206	23722
846.342	23832
846.478	23539
846.614	23543
846.75	23197
846.886	23455
847.022	23604
847.158	23570
847.294	23414
847.429	23585
847.565	23345
847.701	23840
847.837	23113
847.972	23014
848.108	23337
848.244	23326
848.379	23003
848.515	23102
848.65	23018
848.786	23048
848.921	23064
849.057	23128
849.192	23075
849.328	23094
849.463	22953
849.598	23048
849.734	22873
849.869	22915
850.004	22831
850.14	22900
850.275	22759
850.41	22664
850.545	22683
850.68	22740
850.815	22812
850.95	22641
851.085	22942
851.22	22805
851.355	22801
851.49	22729
851.625	22744
851.76	22755
851.895	22755
852.03	22584
852.165	22862
852.299	22847
852.434	22790
852.569	22717
852.703	22744
852.838	22778
852.973	22999
853.107	22930
853.242	22774
853.376	22615
853.511	22493
853.645	22557
853.78	22713
853.914	22622
854.048	22584
854.183	22557
854.317	22603
854.451	22900
854.585	22637
854.72	22470
854.854	22725
854.988	22542
855.122	22637
855.256	22516
855.39	22683
855.524	22584
855.658	22641
855.792	22573
855.926	22641
856.06	22637
856.194	22809
856.327	22626
856.461	22641
856.595	22535
856.729	22538
856.862	22759
856.996	22656
857.13	22759
857.263	22721
857.397	22717
857.53	22649
857.664	22675
857.797	22691
857.931	22725
858.064	22641
858.197	22660
858.331	22557
858.464	22344
858.597	22424
858.731	22440
858.864	22478
858.997	22485
859.13	22466
859.263	22550
859.396	22630
859.529	22557
859.662	22573
859.795	22664
859.928	22573
860.061	22733
860.194	22782
860.327	22725
860.46	22649
860.592	22653
860.725	22698
860.858	22660
860.99	22622
861.123	22687
861.256	22504
861.388	22588
861.521	23303
861.653	22421
861.786	22481
861.918	22436
862.05	22531
862.183	22535
862.315	22618
862.447	22557
862.58	22584
862.712	22314
862.844	22268
862.976	22405
863.108	22295
863.24	22687
863.372	22284
863.504	22284
863.636	22375
863.768	22394
863.9	22405
864.032	22242
864.164	22272
864.296	22417
864.428	22413
864.559	22310
864.691	22329
864.823	22363
864.954	22211
865.086	22238
865.217	22207
865.349	22230
865.48	22051
865.612	22234
865.743	22284
865.875	22196
866.006	22044
866.137	22109
866.269	22166
866.4	22139
866.531	22154
866.662	22010
866.793	22090
866.924	22128
867.055	22196
867.186	22063
867.317	22021
867.448	21956
867.579	22116
867.71	22070
867.841	22067
867.972	22029
868.103	21979
868.233	22112
868.364	22162
868.495	22124
868.625	22306
868.756	22386
868.886	22287
869.017	22428
869.147	22398
869.278	22493
869.408	22325
869.539	22379
869.669	22466
869.799	22318
869.929	22363
870.06	22440
870.19	22736
870.32	22630
870.45	22679
870.58	22702
870.71	22900
870.84	22782
870.97	22824
871.1	22752
871.23	22790
871.36	22904
871.489	22862
871.619	22900
871.749	22881
871.879	23056
872.008	22991
872.138	22995
872.267	23014
872.397	22828
872.526	22873
872.656	22721
872.785	22706
872.915	22915
873.044	23033
873.173	22869
873.303	22984
873.432	23041
873.561	23014
873.69	22930
873.819	22949
873.948	23048
874.077	22991
874.206	22938
874.335	22915
874.464	23083
874.593	23162
874.722	23200
874.851	23174
874.979	23090
875.108	23170
875.237	23181
875.365	22957
875.494	23083
875.623	23200
875.751	23132
875.88	23162
876.008	23261
876.136	23398
876.265	23653
876.393	23672
876.521	23604
876.65	23707
876.778	23516
876.906	23452
877.034	23524
877.162	23528
877.29	23395
877.418	23486
877.546	23581
877.674	23452
877.802	23600
877.93	23512
878.058	23509
878.185	23414
878.313	23493
878.441	23524
878.568	23387
878.696	23459
878.824	23680
878.951	23547
879.079	23668
879.206	23794
879.333	23638
879.461	23414
879.588	23623
879.715	23718
879.842	23718
879.97	23619
880.097	23444
880.224	23398
880.351	23349
880.478	23421
880.605	23269
880.732	23322
880.859	23406
880.986	23368
881.112	23493
881.239	23174
881.366	23025
881.493	23056
881.619	22976
881.746	23018
881.872	22919
881.999	22774
882.125	22869
882.252	22869
882.378	22930
882.505	22965
882.631	22790
882.757	22618
882.883	22645
883.01	22599
883.136	22424
883.262	22413
883.388	22413
883.514	22615
883.64	22550
883.766	22455
883.892	22375
884.018	22432
884.143	22599
884.269	22481
884.395	22284
884.52	22093
884.646	22291
884.772	22090
884.897	22131
885.023	22124
885.148	22287
885.274	22291
885.399	22348
885.524	22207
885.65	22219
885.775	22188
885.9	22200
886.025	22268
886.15	22299
886.275	22234
886.4	22093
886.525	22112
886.65	22070
886.775	22147
886.9	22215
887.025	22371
887.149	22169
887.274	22010
887.399	21895
887.523	22040
887.648	21800
887.773	21842
887.897	21964
888.021	21861
888.146	21838
888.27	22002
888.395	22074
888.519	22048
888.643	21964
888.767	22021
888.891	21937
889.015	21759
889.139	21690
889.263	21789
889.387	21861
889.511	21861
889.635	21876
889.759	21641
889.883	21728
890.006	21614
890.13	21854
890.254	21675
890.377	21789
890.501	21386
890.624	21386
890.748	21523
890.871	21355
890.995	21249
891.118	21336
891.241	21218
891.364	21294
891.488	21283
891.611	21237
891.734	21199
891.857	21325
891.98	21260
892.103	21287
892.226	21173
892.349	21116
892.471	21047
892.594	21157
892.717	21176
892.839	21195
892.962	21237
893.085	21211
893.207	21226
893.33	21032
893.452	21051
893.575	21184
893.697	21184
893.819	21260
893.941	21382
894.064	21264
894.186	21123
894.308	21077
894.43	21264
894.552	21317
894.674	21195
894.796	21047
894.918	21207
895.04	21138
895.161	21165
895.283	21249
895.405	21127
895.526	21127
895.648	21047
895.769	21108
895.891	21176
896.012	21184
896.134	21135
896.255	21199
896.376	21154
896.498	21199
896.619	21249
896.74	21192
896.861	21051
896.982	21447
897.103	21485
897.224	21389
897.345	21359
897.466	21237
897.587	21203
897.708	21507
897.828	21397
897.949	21218
898.07	21325
898.19	21237
898.311	21374
898.431	21245
898.552	21397
898.672	21420
898.792	21325
898.913	21332
899.033	21214
899.153	21154
899.273	20982
899.393	21017
899.513	21104
899.633	21096
899.753	20990
899.873	20933
899.993	21119
900.113	20979
900.232	21032
900.352	21074
900.472	21017
900.591	20887
900.711	20937
900.83	20739
900.95	20906
901.069	20891
901.189	20693
901.308	20564
901.427	20454
901.546	20514
901.665	20313
901.784	20358
901.904	20336
902.023	20206
902.141	19963
902.26	19963
902.379	19970
902.498	20020
902.617	19894
902.735	19951
902.854	19970
902.973	19791
903.091	19590
903.21	19544
903.328	19582
903.446	19453
903.565	19373
903.683	19331
903.801	19362
903.919	19274
904.038	19343
904.156	19031
904.274	19160
904.392	19152
904.51	19171
904.627	19050
904.745	19065
904.863	19118
904.981	18951
905.098	18825
905.216	18722
905.334	18844
905.451	18745
905.569	18753
905.686	18886
905.803	18734
905.921	18559
906.038	18753
906.155	18570
906.272	18479
906.389	18536
906.506	18281
906.623	18380
906.74	18422
906.857	18163
906.974	18110
907.091	18281
907.208	18429
907.324	18247
907.441	18262
907.557	18022
907.674	18041
907.79	17965
907.907	18045
908.023	18072
908.139	18053
908.256	18007
908.372	17969
908.488	17832
908.604	17840
908.72	17676
908.836	17817
908.952	17802
909.068	17756
909.184	17741
909.3	17760
909.415	17726
909.531	17703
909.647	17482
909.762	17425
909.878	17391
909.993	17364
910.108	17372
910.224	17345
910.339	17387
910.454	17239
910.57	17181
910.685	17090
910.8	17364
910.915	17345
911.03	17261
911.145	16957
911.259	16892
911.374	16987
911.489	16991
911.604	16911
911.718	16710
911.833	16653
911.947	16649
912.062	16622
912.176	16809
912.291	16736
912.405	16729
912.519	16968
912.633	16942
912.748	16660
912.862	16733
912.976	16645
913.09	16428
913.204	16554
913.318	16611
913.431	16740
913.545	16653
913.659	16660
913.772	16558
913.886	16341
914	16379
914.113	16447
914.226	16398
914.34	16390
914.453	16230
914.566	16348
914.68	16196
914.793	16238
914.906	15968
915.019	15949
915.132	15926
915.245	15895
915.358	15956
915.47	16013
915.583	15968
915.696	15911
915.809	16051
915.921	16097
916.034	15926
916.146	15781
916.259	15876
916.371	15842
916.483	15778
916.595	15671
916.708	15743
916.82	15736
916.932	15568
917.044	15663
917.156	15671
917.268	15587
917.38	15603
917.491	15580
917.603	15545
917.715	15675
917.826	15572
917.938	15519
918.049	15439
918.161	15618
918.272	15580
918.384	15545
918.495	15477
918.606	15329
918.717	15306
918.828	15310
918.939	15302
919.05	15272
919.161	15272
919.272	15127
919.383	15146
919.494	15340
919.604	15359
919.715	15256
919.826	15226
919.936	15294
920.047	15302
920.157	15203
920.267	15389
920.378	15245
920.488	15180
920.598	15325
920.708	15511
920.818	15348
920.928	15412
921.038	15481
921.148	15557
921.258	15150
921.368	14971
921.477	14960
921.587	14899
921.697	14830
921.806	14994
921.916	14705
922.025	14556
922.134	14549
922.244	14526
922.353	14659
922.462	14518
922.571	14370
922.68	14176
922.789	14183
922.898	14202
923.007	14123
923.116	14172
923.224	14130
923.333	14267
923.442	14012
923.55	13913
923.659	14069
923.767	14123
923.876	14005
923.984	14103
924.092	13940
924.201	14065
924.309	13890
924.417	13928
924.525	13906
924.633	13864
924.741	14636
924.849	13689
924.956	13803
925.064	13708
925.172	13575
925.279	13540
925.387	13586
925.494	13609
925.602	13738
925.709	13605
925.816	13472
925.924	13575
926.031	13567
926.138	13502
926.245	13537
926.352	13468
926.459	13537
926.566	13651
926.673	13434
926.779	13369
926.886	13480
926.993	13251
927.099	13190
927.206	13084
927.312	12973
927.419	13206
927.525	13168
927.631	13141
927.737	13050
927.843	12962
927.95	12916
928.056	12909
928.162	12947
928.267	12970
928.373	13636
928.479	13042
928.585	12764
928.69	12886
928.796	12909
928.901	12730
929.007	12715
929.112	12787
929.218	12772
929.323	12749
929.428	12585
929.533	12738
929.638	12547
929.743	12612
929.848	12719
929.953	12544
930.058	12422
930.163	12330
930.267	12403
930.372	12452
930.477	12228
930.581	12448
930.685	12372
930.79	12247
930.894	12114
930.998	12258
931.103	12399
931.207	11965
931.311	11802
931.415	11760
931.519	11554
931.623	11596
