Data from test_V78500241_1691.txt Node
Date: Fri Mar 25 15:53:30 CST 2022
User: usil
Spectrometer: V785-0024
Trigger mode: 0
Integration Time (sec): 4.000000E-1
Scans to average: 1
Nonlinearity correction enabled: false
Boxcar width: 0
Storing dark spectrum: false
XAxis mode: Wavelengths
Number of Pixels in Spectrum: 1024
>>>>>Begin Spectral Data<<<<<
801.071	28333
801.214	28055
801.356	28067
801.499	27857
801.641	27747
801.783	27736
801.926	27747
802.068	27663
802.211	27842
802.353	27682
802.496	27386
802.638	27534
802.78	27473
802.923	27260
803.065	27272
803.208	27374
803.35	27435
803.492	27488
803.635	27511
803.777	27450
803.919	27709
804.061	27983
804.204	27751
804.346	27610
804.488	27454
804.63	27637
804.773	27648
804.915	27797
805.057	27774
805.199	27667
805.341	27762
805.483	27774
805.626	27842
805.768	27576
805.91	27876
806.052	27774
806.194	27675
806.336	27922
806.478	27804
806.62	27838
806.762	27793
806.904	28029
807.046	28337
807.188	28181
807.33	28219
807.472	28291
807.614	28112
807.756	28363
807.898	28070
808.04	28128
808.182	28109
808.324	27987
808.465	28082
808.607	28242
808.749	28474
808.891	28516
809.033	28729
809.174	28451
809.316	28306
809.458	28451
809.6	28337
809.741	28577
809.883	28645
810.025	28767
810.166	28752
810.308	28630
810.45	28759
810.591	28615
810.733	28478
810.875	28299
811.016	28268
811.158	28379
811.299	28455
811.441	28584
811.582	28504
811.724	28421
811.865	28557
812.007	28462
812.148	28508
812.29	28497
812.431	28546
812.573	28767
812.714	28900
812.855	28930
812.997	29048
813.138	29284
813.279	29056
813.421	28896
813.562	28873
813.703	28637
813.845	28672
813.986	28356
814.127	28143
814.268	28147
814.41	28215
814.551	28116
814.692	28200
814.833	28051
814.974	28090
815.115	28181
815.256	28074
815.397	28093
815.539	28150
815.68	28051
815.821	27926
815.962	28093
816.103	28013
816.244	27789
816.385	27713
816.526	27652
816.666	27450
816.807	27389
816.948	27485
817.089	27576
817.23	27595
817.371	27473
817.512	27348
817.653	27386
817.793	27424
817.934	27439
818.075	27538
818.216	27355
818.356	27473
818.497	27268
818.638	26998
818.778	27169
818.919	27146
819.06	27291
819.2	27382
819.341	27382
819.481	27416
819.622	27622
819.762	27759
819.903	27622
820.043	27515
820.184	27610
820.324	27576
820.465	27587
820.605	27519
820.746	27622
820.886	27412
821.026	27553
821.167	27488
821.307	27690
821.447	27355
821.588	27329
821.728	27165
821.868	27081
822.008	27013
822.149	26998
822.289	26807
822.429	26644
822.569	26594
822.709	26617
822.849	26427
822.99	26446
823.13	26328
823.27	26339
823.41	26176
823.55	26092
823.69	26317
823.83	26290
823.97	26138
824.11	26145
824.25	26088
824.389	26046
824.529	25978
824.669	26001
824.809	26225
824.949	26092
825.089	26142
825.228	26168
825.368	26035
825.508	25986
825.648	26062
825.787	25966
825.927	26195
826.067	25959
826.206	25982
826.346	26020
826.485	25921
826.625	25845
826.765	26103
826.904	26039
827.044	25746
827.183	25677
827.323	25643
827.462	25715
827.601	25674
827.741	25594
827.88	25712
828.02	25552
828.159	25499
828.298	25681
828.437	25677
828.577	25529
828.716	25708
828.855	25548
828.994	25400
829.134	25327
829.273	25464
829.412	25297
829.551	25297
829.69	25430
829.829	25346
829.968	25483
830.107	25419
830.246	25335
830.385	25289
830.524	25228
830.663	25103
830.802	25126
830.941	25000
831.08	24966
831.219	24985
831.357	25000
831.496	25114
831.635	24871
831.774	24909
831.913	24814
832.051	24833
832.19	24814
832.329	24764
832.467	24528
832.606	24551
832.744	24684
832.883	24829
833.022	24677
833.16	24608
833.299	24753
833.437	24696
833.576	24749
833.714	24665
833.852	24779
833.991	24642
834.129	24745
834.267	24757
834.406	24635
834.544	24673
834.682	24787
834.821	24582
834.959	24833
835.097	24612
835.235	24646
835.373	24612
835.511	24608
835.65	24479
835.788	24521
835.926	24410
836.064	24277
836.202	24380
836.34	24505
836.478	24726
836.615	24555
836.753	24517
836.891	24532
837.029	24547
837.167	24380
837.305	24479
837.443	24334
837.58	24296
837.718	24391
837.856	24357
837.993	24232
838.131	24277
838.269	24087
838.406	24361
838.544	24201
838.681	23931
838.819	24011
838.956	23771
839.094	23752
839.231	23737
839.369	24003
839.506	24201
839.643	24015
839.781	23703
839.918	23718
840.055	23786
840.193	23687
840.33	23764
840.467	23805
840.604	23703
840.742	23999
840.879	23600
841.016	23554
841.153	23577
841.29	23790
841.427	23714
841.564	23794
841.701	23710
841.838	23642
841.975	23505
842.112	23592
842.249	23501
842.385	23528
842.522	23649
842.659	23429
842.796	23440
842.933	23448
843.069	23455
843.206	23376
843.343	23414
843.479	23493
843.616	23505
843.752	23315
843.889	23124
844.025	23356
844.162	23220
844.298	23356
844.435	23220
844.571	23124
844.708	23284
844.844	23379
844.98	23402
845.117	23364
845.253	23258
845.389	23086
845.525	23242
845.661	23128
845.798	22900
845.934	22949
846.07	22923
846.206	23025
846.342	23071
846.478	22927
846.614	22847
846.75	22618
846.886	22630
847.022	22790
847.158	22809
847.294	22672
847.429	22763
847.565	22607
847.701	22919
847.837	22367
847.972	22306
848.108	22550
848.244	22512
848.379	22371
848.515	22211
848.65	22109
848.786	22249
848.921	22325
849.057	22379
849.192	22402
849.328	22291
849.463	22284
849.598	22242
849.734	22154
849.869	22143
850.004	22082
850.14	22166
850.275	22154
850.41	22036
850.545	21987
850.68	21930
850.815	22086
850.95	22128
851.085	22207
851.22	22074
851.355	22070
851.49	21987
851.625	21956
851.76	21903
851.895	21892
852.03	21972
852.165	22074
852.299	22086
852.434	22185
852.569	22223
852.703	22036
852.838	22188
852.973	22200
853.107	22101
853.242	22029
853.376	21979
853.511	21781
853.645	21774
853.78	21953
853.914	21865
854.048	21816
854.183	21797
854.317	21937
854.451	21915
854.585	21838
854.72	21835
854.854	21934
854.988	21911
855.122	21960
855.256	21751
855.39	21865
855.524	22029
855.658	21926
855.792	21835
855.926	21918
856.06	21895
856.194	21888
856.327	21778
856.461	21789
856.595	21808
856.729	21789
856.862	22013
856.996	21972
857.13	22006
857.263	22017
857.397	21907
857.53	21884
857.664	21949
857.797	21994
857.931	21945
858.064	21865
858.197	21964
858.331	21865
858.464	21686
858.597	21694
858.731	21941
858.864	21785
858.997	21778
859.13	21797
859.263	21903
859.396	21884
859.529	21880
859.662	21949
859.795	21808
859.928	21941
860.061	21987
860.194	22044
860.327	21918
860.46	21755
860.592	21949
860.725	22078
860.858	22017
860.99	21732
861.123	21770
861.256	21808
861.388	21926
861.521	22771
861.653	21705
861.786	21656
861.918	21762
862.05	21739
862.183	21778
862.315	21736
862.447	21899
862.58	21751
862.712	21587
862.844	21549
862.976	21679
863.108	21622
863.24	22082
863.372	21523
863.504	21553
863.636	21652
863.768	21488
863.9	21629
864.032	21561
864.164	21549
864.296	21583
864.428	21629
864.559	21603
864.691	21576
864.823	21587
864.954	21599
865.086	21614
865.217	21549
865.349	21435
865.48	21382
865.612	21435
865.743	21610
865.875	21481
866.006	21466
866.137	21466
866.269	21523
866.4	21367
866.531	21454
866.662	21393
866.793	21332
866.924	21431
867.055	21363
867.186	21397
867.317	21477
867.448	21374
867.579	21363
867.71	21344
867.841	21249
867.972	21412
868.103	21389
868.233	21351
868.364	21363
868.495	21538
868.625	21576
868.756	21762
868.886	21633
869.017	21481
869.147	21762
869.278	21709
869.408	21622
869.539	21679
869.669	21637
869.799	21736
869.929	21816
870.06	21728
870.19	22006
870.32	21895
870.45	21972
870.58	22036
870.71	22093
870.84	22287
870.97	21953
871.1	22059
871.23	22074
871.36	22299
871.489	22162
871.619	22185
871.749	22287
871.879	22276
872.008	22386
872.138	22249
872.267	22306
872.397	22101
872.526	21945
872.656	22181
872.785	22055
872.915	22200
873.044	22424
873.173	22276
873.303	22303
873.432	22344
873.561	22268
873.69	22360
873.819	22185
873.948	22352
874.077	22295
874.206	22185
874.335	22242
874.464	22333
874.593	22466
874.722	22314
874.851	22523
874.979	22550
875.108	22554
875.237	22325
875.365	22173
875.494	22398
875.623	22504
875.751	22455
875.88	22447
876.008	22580
876.136	22637
876.265	22896
876.393	22968
876.521	22889
876.65	22885
876.778	22938
876.906	22824
877.034	22854
877.162	22767
877.29	22854
877.418	22778
877.546	22797
877.674	22748
877.802	22736
877.93	22866
878.058	22691
878.185	22668
878.313	22721
878.441	22824
878.568	22584
878.696	22672
878.824	22805
878.951	22809
879.079	22934
879.206	23105
879.333	22949
879.461	22816
879.588	23010
879.715	22938
879.842	23056
879.97	22759
880.097	22656
880.224	22721
880.351	22828
880.478	22618
880.605	22508
880.732	22675
880.859	22653
880.986	22599
881.112	22748
881.239	22459
881.366	22329
881.493	22219
881.619	22287
881.746	22223
881.872	22265
881.999	22177
882.125	22116
882.252	22166
882.378	22078
882.505	22196
882.631	22044
882.757	21968
882.883	22059
883.01	21949
883.136	21831
883.262	21709
883.388	21766
883.514	21892
883.64	22040
883.766	21751
883.892	21644
884.018	21618
884.143	21861
884.269	21861
884.395	21572
884.52	21450
884.646	21538
884.772	21507
884.897	21469
885.023	21545
885.148	21545
885.274	21774
885.399	21637
885.524	21469
885.65	21580
885.775	21599
885.9	21504
886.025	21656
886.15	21519
886.275	21485
886.4	21412
886.525	21428
886.65	21435
886.775	21424
886.9	21576
887.025	21682
887.149	21466
887.274	21370
887.399	21317
887.523	21275
887.648	21294
887.773	21230
887.897	21275
888.021	21367
888.146	21306
888.27	21268
888.395	21431
888.519	21275
888.643	21424
888.767	21374
888.891	21211
889.015	21146
889.139	21028
889.263	21020
889.387	21165
889.511	21310
889.635	21241
889.759	21051
889.883	21081
890.006	21017
890.13	21138
890.254	21100
890.377	21135
890.501	20918
890.624	20823
890.748	20910
890.871	20777
890.995	20655
891.118	20606
891.241	20716
891.364	20701
891.488	20785
891.611	20617
891.734	20686
891.857	20689
891.98	20606
892.103	20754
892.226	20621
892.349	20541
892.471	20381
892.594	20556
892.717	20674
892.839	20552
892.962	20629
893.085	20705
893.207	20583
893.33	20423
893.452	20488
893.575	20514
893.697	20492
893.819	20693
893.941	20769
894.064	20667
894.186	20533
894.308	20488
894.43	20678
894.552	20632
894.674	20636
894.796	20507
894.918	20511
895.04	20526
895.161	20625
895.283	20590
895.405	20575
895.526	20556
895.648	20617
895.769	20511
895.891	20636
896.012	20731
896.134	20583
896.255	20571
896.376	20465
896.498	20575
896.619	20594
896.74	20499
896.861	20583
896.982	20910
897.103	21077
897.224	20769
897.345	20830
897.466	20712
897.587	20815
897.708	20948
897.828	20762
897.949	20674
898.07	20484
898.19	20651
898.311	20880
898.431	20804
898.552	20743
898.672	20773
898.792	20895
898.913	20853
899.033	20644
899.153	20484
899.273	20488
899.393	20526
899.513	20518
899.633	20522
899.753	20564
899.873	20507
899.993	20545
900.113	20514
900.232	20438
900.352	20377
900.472	20248
900.591	20267
900.711	20320
900.83	20244
900.95	20332
901.069	20320
901.189	20210
901.308	19986
901.427	19875
901.546	19776
901.665	19875
901.784	19875
901.904	19780
902.023	19590
902.141	19480
902.26	19411
902.379	19506
902.498	19278
902.617	19320
902.735	19415
902.854	19373
902.973	19316
903.091	19057
903.21	18977
903.328	19069
903.446	18875
903.565	18856
903.683	18779
903.801	18681
903.919	18848
904.038	18764
904.156	18593
904.274	18703
904.392	18681
904.51	18631
904.627	18521
904.745	18650
904.863	18604
904.981	18388
905.098	18209
905.216	18308
905.334	18251
905.451	18395
905.569	18201
905.686	18342
905.803	18289
905.921	18110
906.038	18098
906.155	18133
906.272	17923
906.389	17916
906.506	17767
906.623	17809
906.74	17771
906.857	17611
906.974	17714
907.091	17775
907.208	17961
907.324	17866
907.441	17634
907.557	17551
907.674	17604
907.79	17440
907.907	17425
908.023	17490
908.139	17554
908.256	17478
908.372	17356
908.488	17387
908.604	17307
908.72	17212
908.836	17200
908.952	17121
909.068	17292
909.184	17231
909.3	17258
909.415	17147
909.531	17136
909.647	16991
909.762	16938
909.878	16900
909.993	16866
910.108	16812
910.224	16915
910.339	16904
910.454	16805
910.57	16809
910.685	16592
910.8	16904
910.915	16843
911.03	16641
911.145	16599
911.259	16474
911.374	16493
911.489	16413
911.604	16348
911.718	16249
911.833	16242
911.947	16196
912.062	16192
912.176	16234
912.291	16192
912.405	16215
912.519	16428
912.633	16462
912.748	16295
912.862	16234
912.976	16051
913.09	15918
913.204	16036
913.318	15998
913.431	16139
913.545	16135
913.659	16128
913.772	15907
913.886	15941
914	15987
914.113	16010
914.226	15945
914.34	15831
914.453	15759
914.566	15861
914.68	15869
914.793	15709
914.906	15507
915.019	15507
915.132	15408
915.245	15435
915.358	15557
915.47	15485
915.583	15405
915.696	15428
915.809	15564
915.921	15492
916.034	15382
916.146	15317
916.259	15344
916.371	15428
916.483	15340
916.595	15298
916.708	15249
916.82	15302
916.932	15317
917.044	15237
917.156	15214
917.268	15127
917.38	15165
917.491	15062
917.603	15093
917.715	15093
917.826	15188
917.938	14979
918.049	14971
918.161	15013
918.272	15218
918.384	15138
918.495	15024
918.606	14906
918.717	14769
918.828	14849
918.939	14975
919.05	14727
919.161	14849
919.272	14621
919.383	14716
919.494	14826
919.604	15005
919.715	14880
919.826	14731
919.936	14826
920.047	14830
920.157	14842
920.267	15017
920.378	14785
920.488	14750
920.598	15028
920.708	15066
920.818	14788
920.928	14868
921.038	15108
921.148	15036
921.258	14678
921.368	14674
921.477	14640
921.587	14514
921.697	14423
921.806	14632
921.916	14317
922.025	14187
922.134	14229
922.244	14107
922.353	14225
922.462	14012
922.571	14001
922.68	13826
922.789	13757
922.898	13818
923.007	13708
923.116	13818
923.224	13788
923.333	13723
923.442	13655
923.55	13567
923.659	13651
923.767	13795
923.876	13529
923.984	13559
924.092	13487
924.201	13563
924.309	13552
924.417	13445
924.525	13453
924.633	13453
924.741	14237
924.849	13164
924.956	13441
925.064	13289
925.172	13168
925.279	13122
925.387	13282
925.494	13175
925.602	13411
925.709	13335
925.816	13091
925.924	13126
926.031	13213
926.138	13145
926.245	13183
926.352	13061
926.459	13206
926.566	13168
926.673	13114
926.779	12985
926.886	13019
926.993	12802
927.099	12821
927.206	12673
927.312	12662
927.419	12760
927.525	12776
927.631	12795
927.737	12669
927.843	12544
927.95	12551
928.056	12582
928.162	12570
928.267	12574
928.373	13225
928.479	12574
928.585	12460
928.69	12555
928.796	12525
928.901	12410
929.007	12350
929.112	12426
929.218	12407
929.323	12388
929.428	12292
929.533	12464
929.638	12209
929.743	12194
929.848	12350
929.953	12262
930.058	12190
930.163	12015
930.267	11954
930.372	12114
930.477	11954
930.581	12171
930.685	12026
930.79	11885
930.894	11920
930.998	11870
931.103	11901
931.207	11623
931.311	11463
931.415	11452
931.519	11288
931.623	11284
