Data from test_V78500241_1593.txt Node
Date: Fri Mar 25 15:52:50 CST 2022
User: usil
Spectrometer: V785-0024
Trigger mode: 0
Integration Time (sec): 4.000000E-1
Scans to average: 1
Nonlinearity correction enabled: false
Boxcar width: 0
Storing dark spectrum: false
XAxis mode: Wavelengths
Number of Pixels in Spectrum: 1024
>>>>>Begin Spectral Data<<<<<
801.071	28249
801.214	28329
801.356	28006
801.499	27953
801.641	27914
801.783	27956
801.926	27781
802.068	27873
802.211	27861
802.353	27785
802.496	27538
802.638	27526
802.78	27580
802.923	27561
803.065	27496
803.208	27534
803.35	27504
803.492	27728
803.635	27599
803.777	27671
803.919	27618
804.061	28101
804.204	27842
804.346	27713
804.488	27652
804.63	27739
804.773	27656
804.915	27770
805.057	27884
805.199	27679
805.341	27842
805.483	27793
805.626	27876
805.768	27808
805.91	27671
806.052	27930
806.194	27766
806.336	28112
806.478	27816
806.62	27861
806.762	28002
806.904	28154
807.046	28375
807.188	28459
807.33	28352
807.472	28417
807.614	28276
807.756	28287
807.898	28044
808.04	28131
808.182	28230
808.324	28185
808.465	28280
808.607	28466
808.749	28459
808.891	28649
809.033	28596
809.174	28584
809.316	28405
809.458	28599
809.6	28523
809.741	28622
809.883	28668
810.025	28839
810.166	28771
810.308	28885
810.45	28953
810.591	28782
810.733	28611
810.875	28577
811.016	28523
811.158	28516
811.299	28736
811.441	28744
811.582	28736
811.724	28436
811.865	28550
812.007	28649
812.148	28409
812.29	28557
812.431	28733
812.573	28786
812.714	28888
812.855	29109
812.997	29121
813.138	29349
813.279	29208
813.421	29109
813.562	29022
813.703	28831
813.845	28850
813.986	28504
814.127	28440
814.268	28215
814.41	28284
814.551	28272
814.692	28303
814.833	28188
814.974	28253
815.115	28257
815.256	27968
815.397	28177
815.539	28093
815.68	28131
815.821	27968
815.962	28013
816.103	28093
816.244	27987
816.385	27895
816.526	27694
816.666	27523
816.807	27545
816.948	27568
817.089	27625
817.23	27523
817.371	27587
817.512	27618
817.653	27564
817.793	27488
817.934	27568
818.075	27633
818.216	27564
818.356	27538
818.497	27389
818.638	27203
818.778	27370
818.919	27378
819.06	27473
819.2	27496
819.341	27557
819.481	27576
819.622	27679
819.762	27918
819.903	27911
820.043	27865
820.184	27789
820.324	27610
820.465	27694
820.605	27701
820.746	27614
820.886	27564
821.026	27618
821.167	27652
821.307	27667
821.447	27576
821.588	27454
821.728	27329
821.868	27233
822.008	26994
822.149	27104
822.289	27020
822.429	26735
822.569	26887
822.709	26689
822.849	26488
822.99	26655
823.13	26442
823.27	26362
823.41	26400
823.55	26305
823.69	26324
823.83	26412
823.97	26267
824.11	26183
824.25	26278
824.389	26195
824.529	26343
824.669	26237
824.809	26233
824.949	26408
825.089	26275
825.228	26161
825.368	26065
825.508	26096
825.648	25978
825.787	26012
825.927	26191
826.067	26065
826.206	26168
826.346	26130
826.485	26058
826.625	25989
826.765	26111
826.904	26294
827.044	25826
827.183	25757
827.323	25780
827.462	25738
827.601	25731
827.741	25868
827.88	25849
828.02	25761
828.159	25818
828.298	25769
828.437	25864
828.577	25586
828.716	25849
828.855	25685
828.994	25479
829.134	25510
829.273	25594
829.412	25403
829.551	25396
829.69	25518
829.829	25674
829.968	25597
830.107	25559
830.246	25453
830.385	25479
830.524	25358
830.663	25388
830.802	25137
830.941	25206
831.08	25000
831.219	25190
831.357	25232
831.496	25331
831.635	25122
831.774	25236
831.913	24916
832.051	24848
832.19	24810
832.329	24901
832.467	24745
832.606	24760
832.744	24700
832.883	24783
833.022	24844
833.16	24700
833.299	24776
833.437	24825
833.576	24867
833.714	24848
833.852	24825
833.991	24787
834.129	24928
834.267	24840
834.406	24703
834.544	24817
834.682	24745
834.821	24806
834.959	24863
835.097	24791
835.235	24760
835.373	24719
835.511	24776
835.65	24620
835.788	24658
835.926	24627
836.064	24395
836.202	24403
836.34	24574
836.478	24692
836.615	24582
836.753	24707
836.891	24673
837.029	24589
837.167	24608
837.305	24555
837.443	24448
837.58	24369
837.718	24536
837.856	24528
837.993	24479
838.131	24464
838.269	24475
838.406	24308
838.544	24243
838.681	24171
838.819	24022
838.956	23996
839.094	23851
839.231	24034
839.369	24205
839.506	24315
839.643	24224
839.781	23977
839.918	23771
840.055	23840
840.193	24030
840.33	23893
840.467	23908
840.604	23984
840.742	24270
840.879	23653
841.016	23813
841.153	23672
841.29	24053
841.427	23851
841.564	23832
841.701	23870
841.838	23764
841.975	23798
842.112	23665
842.249	23642
842.385	23649
842.522	23863
842.659	23729
842.796	23619
842.933	23596
843.069	23619
843.206	23535
843.343	23737
843.479	23638
843.616	23608
843.752	23395
843.889	23421
844.025	23558
844.162	23330
844.298	23425
844.435	23353
844.571	23296
844.708	23421
844.844	23608
844.98	23672
845.117	23349
845.253	23322
845.389	23185
845.525	23296
845.661	23242
845.798	23086
845.934	23166
846.07	23083
846.206	23067
846.342	23178
846.478	22991
846.614	22911
846.75	22820
846.886	22908
847.022	22946
847.158	22892
847.294	22949
847.429	22763
847.565	22881
847.701	23022
847.837	22618
847.972	22531
848.108	22725
848.244	22603
848.379	22455
848.515	22413
848.65	22428
848.786	22436
848.921	22440
849.057	22489
849.192	22565
849.328	22504
849.463	22402
849.598	22470
849.734	22284
849.869	22261
850.004	22162
850.14	22177
850.275	22158
850.41	22051
850.545	22013
850.68	22067
850.815	22150
850.95	22185
851.085	22394
851.22	22230
851.355	22200
851.49	22261
851.625	22192
851.76	22162
851.895	22097
852.03	22147
852.165	22158
852.299	22371
852.434	22284
852.569	22287
852.703	22154
852.838	22238
852.973	22230
853.107	22333
853.242	22078
853.376	21949
853.511	21895
853.645	21869
853.78	22196
853.914	22090
854.048	21983
854.183	21922
854.317	21941
854.451	22181
854.585	21983
854.72	21968
854.854	22067
854.988	21876
855.122	22082
855.256	21739
855.39	21979
855.524	22158
855.658	22086
855.792	21998
855.926	21983
856.06	22093
856.194	22051
856.327	21983
856.461	22040
856.595	21960
856.729	21968
856.862	22086
856.996	21983
857.13	21991
857.263	22093
857.397	22090
857.53	22032
857.664	22029
857.797	22010
857.931	22147
858.064	22093
858.197	22021
858.331	22006
858.464	21854
858.597	21854
858.731	22010
858.864	22032
858.997	21972
859.13	22044
859.263	21987
859.396	22021
859.529	21926
859.662	21892
859.795	21987
859.928	22086
860.061	22109
860.194	22348
860.327	22086
860.46	22029
860.592	22131
860.725	22109
860.858	22105
860.99	22067
861.123	21915
861.256	21987
861.388	22029
861.521	22713
861.653	21846
861.786	21831
861.918	21831
862.05	21926
862.183	21953
862.315	21975
862.447	22010
862.58	21842
862.712	21637
862.844	21629
862.976	21739
863.108	21759
863.24	22257
863.372	21625
863.504	21660
863.636	21679
863.768	21762
863.9	21732
864.032	21701
864.164	21743
864.296	21667
864.428	21770
864.559	21797
864.691	21857
864.823	21739
864.954	21679
865.086	21663
865.217	21701
865.349	21500
865.48	21660
865.612	21660
865.743	21587
865.875	21641
866.006	21572
866.137	21633
866.269	21564
866.4	21591
866.531	21576
866.662	21595
866.793	21401
866.924	21454
867.055	21466
867.186	21447
867.317	21511
867.448	21405
867.579	21595
867.71	21496
867.841	21469
867.972	21656
868.103	21496
868.233	21530
868.364	21496
868.495	21523
868.625	21739
868.756	21793
868.886	21656
869.017	21583
869.147	21835
869.278	21762
869.408	21800
869.539	21739
869.669	21835
869.799	21724
869.929	21743
870.06	21861
870.19	22116
870.32	22036
870.45	22150
870.58	22090
870.71	22268
870.84	22310
870.97	22093
871.1	22070
871.23	22322
871.36	22375
871.489	22147
871.619	22291
871.749	22303
871.879	22356
872.008	22489
872.138	22417
872.267	22409
872.397	22246
872.526	22234
872.656	22181
872.785	22226
872.915	22375
873.044	22424
873.173	22382
873.303	22348
873.432	22451
873.561	22413
873.69	22569
873.819	22341
873.948	22440
874.077	22363
874.206	22352
874.335	22470
874.464	22519
874.593	22596
874.722	22519
874.851	22679
874.979	22664
875.108	22557
875.237	22424
875.365	22565
875.494	22565
875.623	22668
875.751	22550
875.88	22565
876.008	22892
876.136	22850
876.265	22938
876.393	23029
876.521	23162
876.65	22972
876.778	23018
876.906	22938
877.034	22889
877.162	23037
877.29	22904
877.418	22915
877.546	22854
877.674	22987
877.802	22835
877.93	23006
878.058	22885
878.185	22793
878.313	22896
878.441	22835
878.568	22809
878.696	22896
878.824	23048
878.951	23029
879.079	23041
879.206	23288
879.333	22987
879.461	22957
879.588	23029
879.715	23227
879.842	23189
879.97	22786
880.097	22679
880.224	22828
880.351	22786
880.478	22885
880.605	22687
880.732	22915
880.859	23052
880.986	22816
881.112	22755
881.239	22573
881.366	22500
881.493	22421
881.619	22207
881.746	22386
881.872	22394
881.999	22314
882.125	22246
882.252	22261
882.378	22295
882.505	22382
882.631	22131
882.757	22006
882.883	22109
883.01	21979
883.136	21994
883.262	21903
883.388	21793
883.514	22055
883.64	22029
883.766	21899
883.892	21907
884.018	21846
884.143	21892
884.269	21968
884.395	21694
884.52	21576
884.646	21637
884.772	21538
884.897	21523
885.023	21732
885.148	21728
885.274	21800
885.399	21743
885.524	21583
885.65	21622
885.775	21793
885.9	21614
886.025	21713
886.15	21717
886.275	21542
886.4	21538
886.525	21694
886.65	21439
886.775	21705
886.9	21747
887.025	21892
887.149	21682
887.274	21568
887.399	21405
887.523	21412
887.648	21355
887.773	21207
887.897	21526
888.021	21374
888.146	21359
888.27	21500
888.395	21492
888.519	21428
888.643	21439
888.767	21424
888.891	21302
889.015	21207
889.139	21336
889.263	21207
889.387	21252
889.511	21481
889.635	21374
889.759	21237
889.883	21218
890.006	21188
890.13	21283
890.254	21169
890.377	21169
890.501	20883
890.624	20994
890.748	21062
890.871	20914
890.995	20769
891.118	20739
891.241	20724
891.364	20804
891.488	20895
891.611	20830
891.734	20697
891.857	20804
891.98	20777
892.103	20781
892.226	20807
892.349	20659
892.471	20556
892.594	20636
892.717	20609
892.839	20587
892.962	20765
893.085	20670
893.207	20716
893.33	20537
893.452	20587
893.575	20701
893.697	20629
893.819	20701
893.941	20762
894.064	20826
894.186	20598
894.308	20686
894.43	20804
894.552	20849
894.674	20754
894.796	20545
894.918	20670
895.04	20613
895.161	20674
895.283	20678
895.405	20564
895.526	20568
895.648	20568
895.769	20689
895.891	20655
896.012	20750
896.134	20735
896.255	20781
896.376	20499
896.498	20667
896.619	20636
896.74	20674
896.861	20743
896.982	20918
897.103	21207
897.224	21020
897.345	20971
897.466	20815
897.587	20880
897.708	21089
897.828	20781
897.949	20876
898.07	20636
898.19	20868
898.311	20781
898.431	20838
898.552	20944
898.672	20906
898.792	20906
898.913	20838
899.033	20750
899.153	20590
899.273	20556
899.393	20503
899.513	20629
899.633	20530
899.753	20560
899.873	20533
899.993	20465
900.113	20423
900.232	20609
900.352	20446
900.472	20533
900.591	20336
900.711	20495
900.83	20324
900.95	20389
901.069	20484
901.189	20214
901.308	20130
901.427	19932
901.546	19974
901.665	20005
901.784	19925
901.904	19769
902.023	19700
902.141	19586
902.26	19540
902.379	19552
902.498	19449
902.617	19460
902.735	19559
902.854	19396
902.973	19289
903.091	19008
903.21	19050
903.328	19236
903.446	19023
903.565	18958
903.683	18833
903.801	18730
903.919	18817
904.038	18939
904.156	18749
904.274	18703
904.392	18585
904.51	18601
904.627	18627
904.745	18574
904.863	18806
904.981	18441
905.098	18342
905.216	18433
905.334	18334
905.451	18365
905.569	18350
905.686	18380
905.803	18270
905.921	18148
906.038	18159
906.155	18095
906.272	18079
906.389	18102
906.506	17893
906.623	17889
906.74	17882
906.857	17783
906.974	17840
907.091	17969
907.208	17965
907.324	17866
907.441	17691
907.557	17615
907.674	17573
907.79	17486
907.907	17482
908.023	17661
908.139	17627
908.256	17425
908.372	17459
908.488	17543
908.604	17273
908.72	17258
908.836	17330
908.952	17208
909.068	17368
909.184	17467
909.3	17311
909.415	17269
909.531	17258
909.647	17014
909.762	16968
909.878	16987
909.993	16968
910.108	16866
910.224	16961
910.339	16946
910.454	16752
910.57	16862
910.685	16736
910.8	16961
910.915	16991
911.03	16934
911.145	16683
911.259	16584
911.374	16546
911.489	16497
911.604	16542
911.718	16360
911.833	16413
911.947	16257
912.062	16188
912.176	16344
912.291	16352
912.405	16325
912.519	16531
912.633	16527
912.748	16394
912.862	16402
912.976	16192
913.09	16105
913.204	16131
913.318	16200
913.431	16162
913.545	16185
913.659	16246
913.772	16124
913.886	15979
914	15903
914.113	16029
914.226	16120
914.34	16051
914.453	15941
914.566	16013
914.68	15751
914.793	15736
914.906	15595
915.019	15530
915.132	15469
915.245	15572
915.358	15561
915.47	15469
915.583	15530
915.696	15580
915.809	15637
915.921	15629
916.034	15332
916.146	15412
916.259	15405
916.371	15462
916.483	15458
916.595	15393
916.708	15382
916.82	15325
916.932	15370
917.044	15264
917.156	15272
917.268	15074
917.38	15214
917.491	15070
917.603	15222
917.715	15245
917.826	15287
917.938	15112
918.049	14952
918.161	15131
918.272	15249
918.384	15264
918.495	15138
918.606	14960
918.717	14918
918.828	14963
918.939	14914
919.05	14758
919.161	14906
919.272	14689
919.383	14682
919.494	14979
919.604	15085
919.715	14819
919.826	14811
919.936	14864
920.047	14948
920.157	14861
920.267	15127
920.378	14864
920.488	14861
920.598	15062
920.708	15142
920.818	14960
920.928	14910
921.038	15157
921.148	15142
921.258	14716
921.368	14724
921.477	14659
921.587	14625
921.697	14549
921.806	14602
921.916	14431
922.025	14317
922.134	14240
922.244	14202
922.353	14256
922.462	14107
922.571	14012
922.68	13887
922.789	13833
922.898	13894
923.007	13841
923.116	13925
923.224	13803
923.333	13864
923.442	13769
923.55	13590
923.659	13807
923.767	13799
923.876	13681
923.984	13826
924.092	13552
924.201	13681
924.309	13594
924.417	13552
924.525	13567
924.633	13548
924.741	14511
924.849	13358
924.956	13510
925.064	13312
925.172	13247
925.279	13221
925.387	13297
925.494	13247
925.602	13327
925.709	13343
925.816	13160
925.924	13221
926.031	13285
926.138	13255
926.245	13247
926.352	13145
926.459	13354
926.566	13255
926.673	13187
926.779	12993
926.886	13099
926.993	12886
927.099	12833
927.206	12711
927.312	12791
927.419	12867
927.525	12776
927.631	12890
927.737	12696
927.843	12700
927.95	12547
928.056	12665
928.162	12642
928.267	12772
928.373	13255
928.479	12749
928.585	12509
928.69	12513
928.796	12525
928.901	12525
929.007	12353
929.112	12536
929.218	12479
929.323	12414
929.428	12372
929.533	12498
929.638	12334
929.743	12323
929.848	12384
929.953	12311
930.058	12258
930.163	11984
930.267	12026
930.372	12163
930.477	11973
930.581	12258
930.685	12121
930.79	11942
930.894	11931
930.998	11950
931.103	12064
931.207	11672
931.311	11570
931.415	11512
931.519	11307
931.623	11220
