Data from test_V78500241_1257.txt Node
Date: Fri Mar 25 15:50:30 CST 2022
User: usil
Spectrometer: V785-0024
Trigger mode: 0
Integration Time (sec): 4.000000E-1
Scans to average: 1
Nonlinearity correction enabled: false
Boxcar width: 0
Storing dark spectrum: false
XAxis mode: Wavelengths
Number of Pixels in Spectrum: 1024
>>>>>Begin Spectral Data<<<<<
801.071	28946
801.214	28782
801.356	28618
801.499	28649
801.641	28394
801.783	28341
801.926	28504
802.068	28443
802.211	28493
802.353	28276
802.496	28158
802.638	28070
802.78	28143
802.923	28185
803.065	28067
803.208	28097
803.35	28131
803.492	28253
803.635	28421
803.777	28105
803.919	28272
804.061	28672
804.204	28504
804.346	28204
804.488	28185
804.63	28390
804.773	28192
804.915	28356
805.057	28489
805.199	28291
805.341	28459
805.483	28474
805.626	28401
805.768	28538
805.91	28622
806.052	28637
806.194	28447
806.336	28763
806.478	28733
806.62	28504
806.762	28523
806.904	28725
807.046	29003
807.188	29048
807.33	28923
807.472	28984
807.614	28972
807.756	29033
807.898	28854
808.04	28900
808.182	28778
808.324	28824
808.465	28896
808.607	28987
808.749	29250
808.891	29280
809.033	29486
809.174	29208
809.316	29288
809.458	29200
809.6	29147
809.741	29273
809.883	29509
810.025	29493
810.166	29589
810.308	29528
810.45	29505
810.591	29577
810.733	29185
810.875	29322
811.016	29166
811.158	29075
811.299	29349
811.441	29277
811.582	29463
811.724	29242
811.865	29303
812.007	29204
812.148	29140
812.29	29341
812.431	29330
812.573	29665
812.714	29695
812.855	29821
812.997	29832
813.138	30003
813.279	29824
813.421	29916
813.562	29798
813.703	29570
813.845	29581
813.986	29090
814.127	29041
814.268	28911
814.41	29064
814.551	28961
814.692	28995
814.833	28946
814.974	28923
815.115	28930
815.256	28835
815.397	28778
815.539	28801
815.68	28672
815.821	28862
815.962	28801
816.103	28759
816.244	28679
816.385	28626
816.526	28550
816.666	28497
816.807	28280
816.948	28314
817.089	28413
817.23	28306
817.371	28394
817.512	28360
817.653	28177
817.793	28135
817.934	28337
818.075	28204
818.216	28398
818.356	28261
818.497	28162
818.638	28093
818.778	28055
818.919	28135
819.06	28215
819.2	28166
819.341	28261
819.481	28261
819.622	28440
819.762	28611
819.903	28634
820.043	28588
820.184	28580
820.324	28519
820.465	28565
820.605	28474
820.746	28417
820.886	28257
821.026	28493
821.167	28485
821.307	28409
821.447	28432
821.588	28356
821.728	28215
821.868	27831
822.008	27789
822.149	27751
822.289	27827
822.429	27564
822.569	27469
822.709	27447
822.849	27382
822.99	27401
823.13	27245
823.27	27169
823.41	27112
823.55	27062
823.69	27089
823.83	27165
823.97	26899
824.11	26940
824.25	26864
824.389	26815
824.529	27055
824.669	26979
824.809	27089
824.949	27001
825.089	27161
825.228	26956
825.368	26910
825.508	26807
825.648	26800
825.787	26921
825.927	26895
826.067	26705
826.206	26743
826.346	26929
826.485	26781
826.625	26853
826.765	26982
826.904	26887
827.044	26541
827.183	26590
827.323	26408
827.462	26686
827.601	26495
827.741	26579
827.88	26514
828.02	26305
828.159	26488
828.298	26556
828.437	26450
828.577	26484
828.716	26511
828.855	26476
828.994	26153
829.134	26195
829.273	26206
829.412	26183
829.551	26202
829.69	26187
829.829	26164
829.968	26374
830.107	26328
830.246	26256
830.385	26046
830.524	26107
830.663	25993
830.802	26031
830.941	25833
831.08	25814
831.219	25921
831.357	25966
831.496	26005
831.635	25826
831.774	25830
831.913	25769
832.051	25567
832.19	25510
832.329	25487
832.467	25548
832.606	25662
832.744	25487
832.883	25552
833.022	25396
833.16	25472
833.299	25491
833.437	25426
833.576	25506
833.714	25582
833.852	25601
833.991	25662
834.129	25708
834.267	25590
834.406	25563
834.544	25647
834.682	25605
834.821	25514
834.959	25670
835.097	25495
835.235	25552
835.373	25632
835.511	25548
835.65	25415
835.788	25544
835.926	25407
836.064	25202
836.202	25255
836.34	25320
836.478	25552
836.615	25506
836.753	25331
836.891	25487
837.029	25434
837.167	25320
837.305	25297
837.443	25282
837.58	25251
837.718	25110
837.856	25228
837.993	25129
838.131	25137
838.269	25129
838.406	25152
838.544	25061
838.681	24787
838.819	24703
838.956	24669
839.094	24570
839.231	24844
839.369	24833
839.506	25050
839.643	24871
839.781	24719
839.918	24665
840.055	24631
840.193	24616
840.33	24521
840.467	24734
840.604	24566
840.742	24871
840.879	24513
841.016	24536
841.153	24532
841.29	24795
841.427	24521
841.564	24688
841.701	24555
841.838	24429
841.975	24407
842.112	24513
842.249	24433
842.385	24289
842.522	24585
842.659	24330
842.796	24292
842.933	24357
843.069	24376
843.206	24289
843.343	24372
843.479	24239
843.616	24353
843.752	23984
843.889	24041
844.025	24201
844.162	24064
844.298	24201
844.435	24053
844.571	24136
844.708	24174
844.844	24353
844.98	24182
845.117	24228
845.253	24057
845.389	24045
845.525	23946
845.661	23984
845.798	23855
845.934	23904
846.07	23745
846.206	23828
846.342	24026
846.478	23745
846.614	23627
846.75	23490
846.886	23535
847.022	23630
847.158	23630
847.294	23672
847.429	23436
847.565	23486
847.701	23707
847.837	23151
847.972	23307
848.108	23318
848.244	23341
848.379	23143
848.515	23162
848.65	23132
848.786	23094
848.921	23204
849.057	23181
849.192	23250
849.328	23143
849.463	23121
849.598	23109
849.734	23075
849.869	22957
850.004	22835
850.14	22942
850.275	22911
850.41	22797
850.545	22843
850.68	22927
850.815	22900
850.95	22904
851.085	23121
851.22	23094
851.355	22866
851.49	22885
851.625	22820
851.76	22938
851.895	22759
852.03	22824
852.165	22759
852.299	22904
852.434	22953
852.569	23033
852.703	22889
852.838	22942
852.973	22961
853.107	22923
853.242	22820
853.376	22797
853.511	22618
853.645	22721
853.78	22812
853.914	22664
854.048	22801
854.183	22721
854.317	22748
854.451	22946
854.585	22683
854.72	22683
854.854	22900
854.988	22630
855.122	22763
855.256	22516
855.39	22641
855.524	22736
855.658	22786
855.792	22755
855.926	22687
856.06	22710
856.194	22660
856.327	22828
856.461	22649
856.595	22786
856.729	22687
856.862	22869
856.996	22740
857.13	22854
857.263	22721
857.397	22778
857.53	22713
857.664	22847
857.797	22831
857.931	22908
858.064	22816
858.197	22889
858.331	22683
858.464	22721
858.597	22542
858.731	22691
858.864	22675
858.997	22615
859.13	22801
859.263	22713
859.396	22721
859.529	22653
859.662	22580
859.795	22675
859.928	22752
860.061	22831
860.194	22873
860.327	22942
860.46	22660
860.592	22896
860.725	22965
860.858	22839
860.99	22725
861.123	22618
861.256	22588
861.388	22755
861.521	23105
861.653	22584
861.786	22565
861.918	22538
862.05	22531
862.183	22607
862.315	22599
862.447	22660
862.58	22481
862.712	22318
862.844	22299
862.976	22485
863.108	22440
863.24	22847
863.372	22390
863.504	22394
863.636	22341
863.768	22436
863.9	22318
864.032	22249
864.164	22577
864.296	22489
864.428	22516
864.559	22546
864.691	22451
864.823	22398
864.954	22310
865.086	22382
865.217	22242
865.349	22257
865.48	22337
865.612	22287
865.743	22394
865.875	22295
866.006	22211
866.137	22341
866.269	22287
866.4	22257
866.531	22306
866.662	22128
866.793	22276
866.924	22196
867.055	22246
867.186	22185
867.317	22242
867.448	22261
867.579	22101
867.71	22051
867.841	22063
867.972	22253
868.103	22265
868.233	22314
868.364	22238
868.495	22478
868.625	22478
868.756	22379
868.886	22443
869.017	22508
869.147	22538
869.278	22474
869.408	22497
869.539	22421
869.669	22466
869.799	22329
869.929	22485
870.06	22615
870.19	22763
870.32	22683
870.45	22733
870.58	22820
870.71	22946
870.84	22805
870.97	22911
871.1	22801
871.23	22995
871.36	22995
871.489	22949
871.619	23037
871.749	23079
871.879	23044
872.008	23181
872.138	23132
872.267	22980
872.397	22877
872.526	22805
872.656	22866
872.785	22934
872.915	23071
873.044	23170
873.173	23094
873.303	23254
873.432	23189
873.561	23155
873.69	23181
873.819	23060
873.948	23162
874.077	22976
874.206	22866
874.335	23128
874.464	23258
874.593	23258
874.722	23208
874.851	23379
874.979	23326
875.108	23376
875.237	23223
875.365	23250
875.494	23250
875.623	23444
875.751	23185
875.88	23197
876.008	23402
876.136	23417
876.265	23608
876.393	23726
876.521	23786
876.65	23680
876.778	23729
876.906	23630
877.034	23497
877.162	23585
877.29	23699
877.418	23653
877.546	23600
877.674	23627
877.802	23729
877.93	23581
878.058	23455
878.185	23467
878.313	23573
878.441	23653
878.568	23379
878.696	23509
878.824	23649
878.951	23714
879.079	23817
879.206	23786
879.333	23783
879.461	23577
879.588	23695
879.715	23760
879.842	23870
879.97	23551
880.097	23398
880.224	23402
880.351	23524
880.478	23520
880.605	23364
880.732	23311
880.859	23680
880.986	23341
881.112	23265
881.239	23330
881.366	23151
881.493	23060
881.619	22896
881.746	22961
881.872	22946
881.999	22915
882.125	22824
882.252	23094
882.378	22934
882.505	22995
882.631	22797
882.757	22596
882.883	22740
883.01	22672
883.136	22698
883.262	22386
883.388	22584
883.514	22649
883.64	22721
883.766	22611
883.892	22432
884.018	22379
884.143	22611
884.269	22603
884.395	22428
884.52	22291
884.646	22257
884.772	22177
884.897	22158
885.023	22306
885.148	22333
885.274	22447
885.399	22371
885.524	22314
885.65	22375
885.775	22223
885.9	22280
886.025	22470
886.15	22413
886.275	22261
886.4	22185
886.525	22261
886.65	22196
886.775	22128
886.9	22242
887.025	22413
887.149	22261
887.274	22166
887.399	22025
887.523	22051
887.648	22006
887.773	21846
887.897	22067
888.021	22188
888.146	21812
888.27	22139
888.395	22143
888.519	21994
888.643	22032
888.767	22112
888.891	21991
889.015	21884
889.139	22002
889.263	21838
889.387	21903
889.511	22128
889.635	21934
889.759	21857
889.883	21759
890.006	21797
890.13	21892
890.254	21911
890.377	21804
890.501	21732
890.624	21500
890.748	21644
890.871	21462
890.995	21313
891.118	21317
891.241	21386
891.364	21397
891.488	21561
891.611	21428
891.734	21397
891.857	21477
891.98	21367
892.103	21454
892.226	21249
892.349	21272
892.471	21180
892.594	21188
892.717	21287
892.839	21302
892.962	21340
893.085	21412
893.207	21233
893.33	21195
893.452	21184
893.575	21260
893.697	21241
893.819	21466
893.941	21443
894.064	21272
894.186	21241
894.308	21169
894.43	21340
894.552	21450
894.674	21298
894.796	21169
894.918	21108
895.04	21252
895.161	21374
895.283	21264
895.405	21036
895.526	21245
895.648	21275
895.769	21306
895.891	21355
896.012	21222
896.134	21355
896.255	21165
896.376	21119
896.498	21184
896.619	21294
896.74	21245
896.861	21211
896.982	21587
897.103	21660
897.224	21500
897.345	21496
897.466	21287
897.587	21488
897.708	21591
897.828	21412
897.949	21317
898.07	21359
898.19	21340
898.311	21534
898.431	21431
898.552	21424
898.672	21359
898.792	21530
898.913	21294
899.033	21306
899.153	21203
899.273	21043
899.393	21252
899.513	21203
899.633	21074
899.753	21138
899.873	21100
899.993	21150
900.113	21005
900.232	21123
900.352	21032
900.472	20933
900.591	20967
900.711	20933
900.83	20895
900.95	21070
901.069	20990
901.189	20868
901.308	20621
901.427	20476
901.546	20442
901.665	20503
901.784	20473
901.904	20408
902.023	20278
902.141	20107
902.26	19944
902.379	20100
902.498	19932
902.617	19917
902.735	20096
902.854	20005
902.973	19715
903.091	19670
903.21	19635
903.328	19567
903.446	19480
903.565	19472
903.683	19381
903.801	19419
903.919	19460
904.038	19331
904.156	19160
904.274	19156
904.392	19194
904.51	19099
904.627	19255
904.745	19198
904.863	19282
904.981	18939
905.098	18856
905.216	18833
905.334	18844
905.451	18886
905.569	18867
905.686	18833
905.803	18802
905.921	18700
906.038	18608
906.155	18730
906.272	18578
906.389	18585
906.506	18376
906.623	18391
906.74	18353
906.857	18277
906.974	18342
907.091	18391
907.208	18551
907.324	18365
907.441	18289
907.557	18007
907.674	18083
907.79	18019
907.907	18121
908.023	17999
908.139	18072
908.256	17999
908.372	17977
908.488	18049
908.604	17813
908.72	17764
908.836	17790
908.952	17874
909.068	17847
909.184	17904
909.3	17771
909.415	17874
909.531	17809
909.647	17600
909.762	17539
909.878	17440
909.993	17524
910.108	17516
910.224	17436
910.339	17402
910.454	17322
910.57	17254
910.685	17220
910.8	17421
910.915	17509
911.03	17212
911.145	17159
911.259	16999
911.374	17132
911.489	17041
911.604	17098
911.718	16790
911.833	16782
911.947	16713
912.062	16733
912.176	16809
912.291	16869
912.405	16809
912.519	16949
912.633	16919
912.748	16904
912.862	16763
912.976	16698
913.09	16504
913.204	16584
913.318	16573
913.431	16710
913.545	16710
913.659	16660
913.772	16565
913.886	16485
914	16367
914.113	16565
914.226	16516
914.34	16428
914.453	16295
914.566	16466
914.68	16280
914.793	16303
914.906	16017
915.019	16025
915.132	15873
915.245	15953
915.358	16032
915.47	15975
915.583	15907
915.696	15994
915.809	16200
915.921	16124
916.034	15972
916.146	15808
916.259	15922
916.371	16029
916.483	15911
916.595	15823
916.708	15850
916.82	15838
916.932	15865
917.044	15808
917.156	15698
917.268	15618
917.38	15629
917.491	15599
917.603	15553
917.715	15751
917.826	15797
917.938	15526
918.049	15530
918.161	15622
918.272	15667
918.384	15751
918.495	15644
918.606	15340
918.717	15291
918.828	15306
918.939	15519
919.05	15245
919.161	15313
919.272	15241
919.383	15252
919.494	15428
919.604	15656
919.715	15408
919.826	15287
919.936	15317
920.047	15469
920.157	15397
920.267	15523
920.378	15287
920.488	15264
920.598	15519
920.708	15538
920.818	15564
920.928	15412
921.038	15675
921.148	15526
921.258	15256
921.368	15097
921.477	15066
921.587	15013
921.697	14883
921.806	15116
921.916	14857
922.025	14743
922.134	14750
922.244	14594
922.353	14727
922.462	14610
922.571	14499
922.68	14412
922.789	14336
922.898	14317
923.007	14298
923.116	14252
923.224	14259
923.333	14317
923.442	14145
923.55	14275
923.659	14187
923.767	14157
923.876	13967
923.984	14123
924.092	14008
924.201	14111
924.309	14111
924.417	13986
924.525	13978
924.633	13986
924.741	14853
924.849	13693
924.956	13902
925.064	13666
925.172	13662
925.279	13681
925.387	13658
925.494	13677
925.602	13837
925.709	13628
925.816	13533
925.924	13616
926.031	13757
926.138	13582
926.245	13719
926.352	13430
926.459	13636
926.566	13643
926.673	13525
926.779	13400
926.886	13449
926.993	13255
927.099	13263
927.206	13114
927.312	13179
927.419	13247
927.525	13217
927.631	13327
927.737	13129
927.843	13053
927.95	12954
928.056	12989
928.162	13069
928.267	13019
928.373	13655
928.479	13091
928.585	12875
928.69	12985
928.796	12993
928.901	12844
929.007	12741
929.112	12886
929.218	12798
929.323	12757
929.428	12730
929.533	12882
929.638	12662
929.743	12597
929.848	12677
929.953	12719
930.058	12570
930.163	12361
930.267	12372
930.372	12646
930.477	12357
930.581	12627
930.685	12498
930.79	12258
930.894	12361
930.998	12228
931.103	12429
931.207	12041
931.311	11893
931.415	11908
931.519	11676
931.623	11573
