Data from test_V78500241_2251.txt Node
Date: Fri Mar 25 15:57:23 CST 2022
User: usil
Spectrometer: V785-0024
Trigger mode: 0
Integration Time (sec): 4.000000E-1
Scans to average: 1
Nonlinearity correction enabled: false
Boxcar width: 0
Storing dark spectrum: false
XAxis mode: Wavelengths
Number of Pixels in Spectrum: 1024
>>>>>Begin Spectral Data<<<<<
801.071	29064
801.214	28885
801.356	28771
801.499	28698
801.641	28596
801.783	28538
801.926	28599
802.068	28596
802.211	28535
802.353	28333
802.496	28561
802.638	28329
802.78	28360
802.923	28226
803.065	28238
803.208	28249
803.35	28367
803.492	28493
803.635	28470
803.777	28535
803.919	28523
804.061	28888
804.204	28626
804.346	28401
804.488	28417
804.63	28550
804.773	28497
804.915	28592
805.057	28687
805.199	28596
805.341	28660
805.483	28797
805.626	28679
805.768	28607
805.91	28645
806.052	28675
806.194	28672
806.336	28797
806.478	28763
806.62	28660
806.762	28984
806.904	28980
807.046	29273
807.188	29220
807.33	29242
807.472	29124
807.614	29147
807.756	29124
807.898	29109
808.04	28965
808.182	29029
808.324	29003
808.465	28953
808.607	29322
808.749	29387
808.891	29444
809.033	29531
809.174	29482
809.316	29296
809.458	29448
809.6	29391
809.741	29570
809.883	29627
810.025	29729
810.166	29729
810.308	29699
810.45	29649
810.591	29562
810.733	29596
810.875	29414
811.016	29383
811.158	29433
811.299	29509
811.441	29577
811.582	29573
811.724	29463
811.865	29463
812.007	29657
812.148	29356
812.29	29642
812.431	29722
812.573	29786
812.714	29802
812.855	30038
812.997	30262
813.138	30372
813.279	30129
813.421	29965
813.562	29961
813.703	29893
813.845	29752
813.986	29516
814.127	29436
814.268	29197
814.41	29254
814.551	29071
814.692	29162
814.833	29193
814.974	29197
815.115	29307
815.256	28927
815.397	29140
815.539	28999
815.68	29094
815.821	28881
815.962	29052
816.103	28976
816.244	28858
816.385	28847
816.526	28736
816.666	28630
816.807	28451
816.948	28630
817.089	28668
817.23	28504
817.371	28592
817.512	28497
817.653	28512
817.793	28443
817.934	28554
818.075	28599
818.216	28497
818.356	28459
818.497	28409
818.638	28226
818.778	28226
818.919	28405
819.06	28299
819.2	28478
819.341	28459
819.481	28382
819.622	28790
819.762	28877
819.903	28736
820.043	28675
820.184	28778
820.324	28752
820.465	28611
820.605	28679
820.746	28573
820.886	28451
821.026	28588
821.167	28508
821.307	28664
821.447	28611
821.588	28497
821.728	28352
821.868	28128
822.008	28055
822.149	27994
822.289	28051
822.429	27690
822.569	27732
822.709	27660
822.849	27572
822.99	27515
823.13	27572
823.27	27466
823.41	27245
823.55	27203
823.69	27401
823.83	27306
823.97	27302
824.11	26971
824.25	27066
824.389	27207
824.529	27344
824.669	27093
824.809	27424
824.949	27154
825.089	27237
825.228	27043
825.368	26956
825.508	27089
825.648	27066
825.787	26944
825.927	27165
826.067	26979
826.206	27123
826.346	27081
826.485	27237
826.625	27036
826.765	27074
826.904	27005
827.044	26906
827.183	26785
827.323	26682
827.462	26861
827.601	26804
827.741	26826
827.88	26712
828.02	26651
828.159	26693
828.298	26765
828.437	26804
828.577	26663
828.716	26811
828.855	26727
828.994	26457
829.134	26594
829.273	26549
829.412	26431
829.551	26511
829.69	26499
829.829	26511
829.968	26511
830.107	26545
830.246	26332
830.385	26358
830.524	26389
830.663	26218
830.802	26191
830.941	25970
831.08	26016
831.219	26103
831.357	26138
831.496	26237
831.635	26008
831.774	25966
831.913	25849
832.051	25921
832.19	25868
832.329	25932
832.467	25932
832.606	25753
832.744	25723
832.883	25738
833.022	25704
833.16	25727
833.299	25833
833.437	25658
833.576	25814
833.714	25757
833.852	25925
833.991	25788
834.129	25833
834.267	25936
834.406	25871
834.544	25947
834.682	25719
834.821	25765
834.959	25997
835.097	25704
835.235	25791
835.373	25860
835.511	25932
835.65	25700
835.788	25609
835.926	25514
836.064	25445
836.202	25510
836.34	25620
836.478	25700
836.615	25628
836.753	25647
836.891	25689
837.029	25685
837.167	25537
837.305	25632
837.443	25529
837.58	25514
837.718	25510
837.856	25434
837.993	25449
838.131	25403
838.269	25228
838.406	25377
838.544	25171
838.681	25004
838.819	24943
838.956	24829
839.094	24798
839.231	24947
839.369	25050
839.506	25304
839.643	25145
839.781	24837
839.918	24943
840.055	24916
840.193	24833
840.33	24817
840.467	24863
840.604	24878
840.742	25004
840.879	24719
841.016	24677
841.153	24661
841.29	24817
841.427	24772
841.564	24875
841.701	24901
841.838	24661
841.975	24532
842.112	24715
842.249	24669
842.385	24525
842.522	24871
842.659	24627
842.796	24544
842.933	24604
843.069	24589
843.206	24369
843.343	24578
843.479	24570
843.616	24559
843.752	24369
843.889	24369
844.025	24505
844.162	24213
844.298	24563
844.435	24353
844.571	24270
844.708	24334
844.844	24426
844.98	24464
845.117	24395
845.253	24155
845.389	24079
845.525	24289
845.661	24140
845.798	24068
845.934	24053
846.07	24022
846.206	24117
846.342	24152
846.478	23973
846.614	23954
846.75	23672
846.886	23851
847.022	23775
847.158	23809
847.294	23642
847.429	23897
847.565	23680
847.701	24038
847.837	23398
847.972	23539
848.108	23608
848.244	23512
848.379	23417
848.515	23273
848.65	23391
848.786	23299
848.921	23265
849.057	23471
849.192	23414
849.328	23395
849.463	23391
849.598	23200
849.734	23197
849.869	23208
850.004	23181
850.14	23174
850.275	23254
850.41	23006
850.545	23006
850.68	23216
850.815	23071
850.95	23155
851.085	23280
851.22	23193
851.355	23155
851.49	23113
851.625	23094
851.76	23098
851.895	23025
852.03	23117
852.165	23121
852.299	23189
852.434	23258
852.569	23079
852.703	23044
852.838	23216
852.973	23208
853.107	23189
853.242	23079
853.376	23060
853.511	22919
853.645	22927
853.78	23018
853.914	22972
854.048	22889
854.183	22930
854.317	22919
854.451	23083
854.585	23010
854.72	23010
854.854	22968
854.988	22892
855.122	22961
855.256	22820
855.39	22923
855.524	22980
855.658	22961
855.792	23037
855.926	23018
856.06	23132
856.194	23117
856.327	23037
856.461	22816
856.595	22835
856.729	23033
856.862	22930
856.996	23003
857.13	23067
857.263	23079
857.397	23033
857.53	22927
857.664	22965
857.797	22984
857.931	22976
858.064	22942
858.197	22942
858.331	23037
858.464	22896
858.597	22759
858.731	22976
858.864	23010
858.997	22885
859.13	22961
859.263	22915
859.396	23090
859.529	22904
859.662	22782
859.795	22774
859.928	22965
860.061	23079
860.194	23136
860.327	22953
860.46	22980
860.592	23102
860.725	23090
860.858	23029
860.99	22873
861.123	22809
861.256	22790
861.388	22797
861.521	23642
861.653	22869
861.786	22683
861.918	22736
862.05	22812
862.183	22873
862.315	22824
862.447	22949
862.58	22904
862.712	22637
862.844	22561
862.976	22748
863.108	22710
863.24	23166
863.372	22603
863.504	22588
863.636	22672
863.768	22615
863.9	22733
864.032	22672
864.164	22649
864.296	22588
864.428	22702
864.559	22656
864.691	22630
864.823	22542
864.954	22713
865.086	22542
865.217	22382
865.349	22611
865.48	22554
865.612	22523
865.743	22744
865.875	22527
866.006	22478
866.137	22481
866.269	22531
866.4	22485
866.531	22402
866.662	22428
866.793	22402
866.924	22379
867.055	22474
867.186	22447
867.317	22344
867.448	22325
867.579	22360
867.71	22303
867.841	22348
867.972	22603
868.103	22497
868.233	22325
868.364	22523
868.495	22481
868.625	22577
868.756	22759
868.886	22645
869.017	22550
869.147	22729
869.278	22877
869.408	22516
869.539	22733
869.669	22774
869.799	22683
869.929	22698
870.06	22790
870.19	23159
870.32	22957
870.45	22968
870.58	23178
870.71	23067
870.84	23056
870.97	23060
871.1	23025
871.23	23284
871.36	23269
871.489	23258
871.619	23155
871.749	23280
871.879	23151
872.008	23467
872.138	23181
872.267	23467
872.397	23136
872.526	23048
872.656	23098
872.785	23178
872.915	23326
873.044	23368
873.173	23265
873.303	23334
873.432	23395
873.561	23299
873.69	23193
873.819	23376
873.948	23254
874.077	23223
874.206	23269
874.335	23284
874.464	23410
874.593	23570
874.722	23429
874.851	23486
874.979	23592
875.108	23482
875.237	23452
875.365	23299
875.494	23452
875.623	23509
875.751	23379
875.88	23478
876.008	23665
876.136	23646
876.265	23912
876.393	24022
876.521	23802
876.65	24038
876.778	23847
876.906	23901
877.034	23882
877.162	23767
877.29	23722
877.418	23832
877.546	23866
877.674	23710
877.802	23855
877.93	23855
878.058	23611
878.185	23604
878.313	23813
878.441	23767
878.568	23638
878.696	23726
878.824	23798
878.951	23958
879.079	24060
879.206	24152
879.333	23897
879.461	23882
879.588	23920
879.715	24022
879.842	23923
879.97	24026
880.097	23634
880.224	23657
880.351	23718
880.478	23661
880.605	23665
880.732	23551
880.859	23790
880.986	23596
881.112	23703
881.239	23318
881.366	23467
881.493	23280
881.619	23185
881.746	23231
881.872	23102
881.999	23151
882.125	23159
882.252	23162
882.378	23235
882.505	23189
882.631	23071
882.757	22778
882.883	23014
883.01	22885
883.136	22965
883.262	22725
883.388	22713
883.514	22854
883.64	22771
883.766	22816
883.892	22729
884.018	22618
884.143	22786
884.269	22752
884.395	22554
884.52	22356
884.646	22569
884.772	22382
884.897	22337
885.023	22390
885.148	22485
885.274	22691
885.399	22626
885.524	22485
885.65	22542
885.775	22546
885.9	22341
886.025	22630
886.15	22451
886.275	22421
886.4	22333
886.525	22341
886.65	22253
886.775	22310
886.9	22634
887.025	22698
887.149	22565
887.274	22371
887.399	22295
887.523	22200
887.648	22242
887.773	22169
887.897	22394
888.021	22257
888.146	22143
888.27	22287
888.395	22337
888.519	22295
888.643	22303
888.767	22242
888.891	22128
889.015	21994
889.139	22051
889.263	22074
889.387	22074
889.511	22226
889.635	22154
889.759	22101
889.883	22101
890.006	22086
890.13	22074
890.254	22010
890.377	21888
890.501	21911
890.624	21827
890.748	21770
890.871	21549
890.995	21595
891.118	21481
891.241	21564
891.364	21595
891.488	21789
891.611	21648
891.734	21606
891.857	21580
891.98	21534
892.103	21591
892.226	21538
892.349	21496
892.471	21306
892.594	21492
892.717	21526
892.839	21523
892.962	21583
893.085	21599
893.207	21401
893.33	21317
893.452	21291
893.575	21424
893.697	21424
893.819	21610
893.941	21713
894.064	21622
894.186	21332
894.308	21306
894.43	21583
894.552	21530
894.674	21534
894.796	21382
894.918	21405
895.04	21355
895.161	21591
895.283	21405
895.405	21351
895.526	21507
895.648	21447
895.769	21389
895.891	21424
896.012	21564
896.134	21504
896.255	21458
896.376	21412
896.498	21389
896.619	21488
896.74	21412
896.861	21424
896.982	21709
897.103	21774
897.224	21800
897.345	21599
897.466	21523
897.587	21667
897.708	21747
897.828	21720
897.949	21568
898.07	21481
898.19	21633
898.311	21629
898.431	21583
898.552	21625
898.672	21686
898.792	21743
898.913	21709
899.033	21466
899.153	21393
899.273	21252
899.393	21416
899.513	21272
899.633	21317
899.753	21279
899.873	21382
899.993	21431
900.113	21294
900.232	21298
900.352	21146
900.472	21218
900.591	21074
900.711	21051
900.83	21096
900.95	21123
901.069	21142
901.189	21127
901.308	20735
901.427	20564
901.546	20731
901.665	20811
901.784	20598
901.904	20625
902.023	20446
902.141	20271
902.26	20202
902.379	20298
902.498	20069
902.617	20062
902.735	20286
902.854	20119
902.973	20088
903.091	19894
903.21	19890
903.328	19791
903.446	19738
903.565	19635
903.683	19616
903.801	19529
903.919	19578
904.038	19613
904.156	19384
904.274	19411
904.392	19453
904.51	19365
904.627	19365
904.745	19369
904.863	19362
904.981	19285
905.098	18966
905.216	19072
905.334	19012
905.451	19141
905.569	19027
905.686	19141
905.803	18970
905.921	18814
906.038	18916
906.155	18837
906.272	18582
906.389	18738
906.506	18601
906.623	18665
906.74	18566
906.857	18410
906.974	18460
907.091	18673
907.208	18604
907.324	18582
907.441	18456
907.557	18403
907.674	18273
907.79	18251
907.907	18155
908.023	18311
908.139	18300
908.256	18254
908.372	18133
908.488	18262
908.604	18038
908.72	18030
908.836	17980
908.952	17912
909.068	17980
909.184	18106
909.3	18007
909.415	17950
909.531	17965
909.647	17699
909.762	17657
909.878	17634
909.993	17665
910.108	17707
910.224	17657
910.339	17611
910.454	17551
910.57	17490
910.685	17516
910.8	17653
910.915	17680
911.03	17391
911.145	17296
911.259	17246
911.374	17258
911.489	17212
911.604	17098
911.718	17022
911.833	16984
911.947	16961
912.062	16820
912.176	16934
912.291	17006
912.405	17086
912.519	17200
912.633	17220
912.748	16987
912.862	16972
912.976	16755
913.09	16637
913.204	16736
913.318	16809
913.431	16869
913.545	16809
913.659	16930
913.772	16812
913.886	16683
914	16565
914.113	16645
914.226	16706
914.34	16611
914.453	16421
914.566	16607
914.68	16371
914.793	16447
914.906	16238
915.019	16185
915.132	16025
915.245	15975
915.358	16192
915.47	16116
915.583	16150
915.696	16192
915.809	16246
915.921	16303
916.034	16032
916.146	16067
916.259	16040
916.371	16166
916.483	16036
916.595	15937
916.708	15907
916.82	15968
916.932	15911
917.044	15838
917.156	15793
917.268	15774
917.38	15854
917.491	15698
917.603	15701
917.715	15728
917.826	15926
917.938	15667
918.049	15584
918.161	15625
918.272	15884
918.384	15823
918.495	15732
918.606	15519
918.717	15515
918.828	15492
918.939	15519
919.05	15424
919.161	15481
919.272	15199
919.383	15329
919.494	15496
919.604	15610
919.715	15458
919.826	15370
919.936	15462
920.047	15564
920.157	15370
920.267	15663
920.378	15538
920.488	15431
920.598	15549
920.708	15766
920.818	15488
920.928	15504
921.038	15759
921.148	15679
921.258	15416
921.368	15287
921.477	15131
921.587	15161
921.697	15001
921.806	15112
921.916	15036
922.025	14872
922.134	14864
922.244	14629
922.353	14895
922.462	14697
922.571	14617
922.68	14492
922.789	14427
922.898	14446
923.007	14408
923.116	14511
923.224	14434
923.333	14408
923.442	14294
923.55	14263
923.659	14294
923.767	14290
923.876	14157
923.984	14305
924.092	14195
924.201	14172
924.309	14084
924.417	14248
924.525	13997
924.633	14046
924.741	14872
924.849	13830
924.956	14005
925.064	13875
925.172	13738
925.279	13826
925.387	13890
925.494	13822
925.602	13868
925.709	13864
925.816	13712
925.924	13693
926.031	13803
926.138	13708
926.245	13662
926.352	13670
926.459	13715
926.566	13772
926.673	13636
926.779	13578
926.886	13495
926.993	13457
927.099	13297
927.206	13251
927.312	13327
927.419	13434
927.525	13301
927.631	13331
927.737	13228
927.843	13053
927.95	13038
928.056	13141
928.162	13202
928.267	13175
928.373	13890
928.479	13247
928.585	12970
928.69	13046
928.796	13099
928.901	12939
929.007	12791
929.112	12981
929.218	13034
929.323	12833
929.428	12833
929.533	12932
929.638	12852
929.743	12772
929.848	12844
929.953	12711
930.058	12646
930.163	12574
930.267	12525
930.372	12639
930.477	12486
930.581	12650
930.685	12563
930.79	12369
930.894	12471
930.998	12437
931.103	12410
931.207	12041
931.311	12030
931.415	11988
931.519	11722
931.623	11748
