Data from test_V78500241_1418.txt Node
Date: Fri Mar 25 15:51:37 CST 2022
User: usil
Spectrometer: V785-0024
Trigger mode: 0
Integration Time (sec): 4.000000E-1
Scans to average: 1
Nonlinearity correction enabled: false
Boxcar width: 0
Storing dark spectrum: false
XAxis mode: Wavelengths
Number of Pixels in Spectrum: 1024
>>>>>Begin Spectral Data<<<<<
801.071	28645
801.214	28436
801.356	28261
801.499	28082
801.641	27975
801.783	27983
801.926	27972
802.068	28082
802.211	28032
802.353	28040
802.496	27747
802.638	27793
802.78	27755
802.923	27633
803.065	27561
803.208	27709
803.35	27736
803.492	27865
803.635	27892
803.777	27816
803.919	27895
804.061	28185
804.204	28131
804.346	28010
804.488	27975
804.63	27911
804.773	27880
804.915	27937
805.057	28200
805.199	27873
805.341	28139
805.483	28265
805.626	28116
805.768	28120
805.91	28246
806.052	28268
806.194	28090
806.336	28226
806.478	28314
806.62	28166
806.762	28421
806.904	28363
807.046	28721
807.188	28478
807.33	28596
807.472	28588
807.614	28523
807.756	28649
807.898	28485
808.04	28287
808.182	28424
808.324	28394
808.465	28573
808.607	28782
808.749	28763
808.891	28816
809.033	28976
809.174	28984
809.316	28733
809.458	28782
809.6	28752
809.741	28816
809.883	29124
810.025	29003
810.166	29102
810.308	29128
810.45	29105
810.591	28957
810.733	28892
810.875	28752
811.016	28691
811.158	28816
811.299	28862
811.441	28797
811.582	29052
811.724	28862
811.865	28653
812.007	28759
812.148	28694
812.29	28942
812.431	29041
812.573	29083
812.714	29273
812.855	29204
812.997	29429
813.138	29566
813.279	29501
813.421	29318
813.562	29337
813.703	29185
813.845	29083
813.986	28793
814.127	28645
814.268	28664
814.41	28634
814.551	28440
814.692	28733
814.833	28622
814.974	28573
815.115	28569
815.256	28417
815.397	28394
815.539	28379
815.68	28295
815.821	28375
815.962	28367
816.103	28363
816.244	28200
816.385	28059
816.526	28086
816.666	27930
816.807	27785
816.948	28021
817.089	27888
817.23	27861
817.371	27876
817.512	27823
817.653	27888
817.793	27766
817.934	27835
818.075	27861
818.216	27835
818.356	27831
818.497	27736
818.638	27679
818.778	27629
818.919	27549
819.06	27671
819.2	27686
819.341	27895
819.481	27846
819.622	27983
819.762	28185
819.903	27987
820.043	28051
820.184	27854
820.324	27884
820.465	28078
820.605	28093
820.746	28010
820.886	27793
821.026	27930
821.167	27914
821.307	28067
821.447	27869
821.588	27838
821.728	27766
821.868	27526
822.008	27393
822.149	27291
822.289	27310
822.429	26937
822.569	26937
822.709	26975
822.849	26986
822.99	26773
823.13	26754
823.27	26743
823.41	26750
823.55	26568
823.69	26720
823.83	26724
823.97	26705
824.11	26419
824.25	26389
824.389	26408
824.529	26541
824.669	26450
824.809	26503
824.949	26549
825.089	26552
825.228	26507
825.368	26122
825.508	26374
825.648	26442
825.787	26461
825.927	26442
826.067	26450
826.206	26259
826.346	26423
826.485	26294
826.625	26275
826.765	26423
826.904	26393
827.044	26183
827.183	26077
827.323	25909
827.462	26210
827.601	26084
827.741	26122
827.88	26172
828.02	26008
828.159	26065
828.298	26126
828.437	26168
828.577	25940
828.716	26153
828.855	26050
828.994	25826
829.134	25761
829.273	25837
829.412	25601
829.551	25757
829.69	25700
829.829	25795
829.968	25833
830.107	25860
830.246	25811
830.385	25719
830.524	25693
830.663	25544
830.802	25567
830.941	25400
831.08	25308
831.219	25362
831.357	25411
831.496	25681
831.635	25308
831.774	25403
831.913	25308
832.051	25095
832.19	25129
832.329	25187
832.467	25148
832.606	24935
832.744	24989
832.883	24973
833.022	25012
833.16	25126
833.299	24992
833.437	25129
833.576	25088
833.714	25236
833.852	25080
833.991	25065
834.129	25114
834.267	25118
834.406	25019
834.544	25152
834.682	25198
834.821	25057
834.959	25164
835.097	24951
835.235	25164
835.373	24935
835.511	24992
835.65	24920
835.788	24935
835.926	24783
836.064	24757
836.202	24802
836.34	24920
836.478	24962
836.615	24951
836.753	24973
836.891	25004
837.029	24947
837.167	24837
837.305	24935
837.443	24764
837.58	24745
837.718	24840
837.856	24734
837.993	24703
838.131	24677
838.269	24730
838.406	24722
838.544	24585
838.681	24384
838.819	24418
838.956	24163
839.094	24190
839.231	24300
839.369	24391
839.506	24726
839.643	24498
839.781	24178
839.918	24064
840.055	24117
840.193	24140
840.33	24125
840.467	24155
840.604	24136
840.742	24467
840.879	24072
841.016	24049
841.153	23969
841.29	24114
841.427	24163
841.564	24209
841.701	24197
841.838	24079
841.975	24045
842.112	24007
842.249	23942
842.385	23904
842.522	23969
842.659	23870
842.796	23836
842.933	23813
843.069	23802
843.206	23783
843.343	23984
843.479	23828
843.616	23893
843.752	23726
843.889	23661
844.025	23771
844.162	23657
844.298	23790
844.435	23646
844.571	23566
844.708	23657
844.844	23805
844.98	23767
845.117	23821
845.253	23611
845.389	23566
845.525	23558
845.661	23493
845.798	23429
845.934	23512
846.07	23406
846.206	23406
846.342	23455
846.478	23311
846.614	23136
846.75	23067
846.886	23067
847.022	23128
847.158	23124
847.294	23128
847.429	23193
847.565	23147
847.701	23273
847.837	22721
847.972	22664
848.108	23064
848.244	22949
848.379	22774
848.515	22710
848.65	22664
848.786	22694
848.921	22763
849.057	22774
849.192	22759
849.328	22782
849.463	22653
849.598	22577
849.734	22596
849.869	22618
850.004	22371
850.14	22485
850.275	22432
850.41	22413
850.545	22379
850.68	22398
850.815	22561
850.95	22443
851.085	22717
851.22	22615
851.355	22512
851.49	22489
851.625	22417
851.76	22481
851.895	22481
852.03	22409
852.165	22478
852.299	22550
852.434	22466
852.569	22611
852.703	22516
852.838	22516
852.973	22580
853.107	22637
853.242	22265
853.376	22287
853.511	22230
853.645	22291
853.78	22417
853.914	22318
854.048	22287
854.183	22333
854.317	22257
854.451	22455
854.585	22322
854.72	22188
854.854	22310
854.988	22249
855.122	22295
855.256	22207
855.39	22291
855.524	22371
855.658	22295
855.792	22303
855.926	22223
856.06	22348
856.194	22261
856.327	22192
856.461	22207
856.595	22181
856.729	22234
856.862	22356
856.996	22276
857.13	22337
857.263	22451
857.397	22322
857.53	22249
857.664	22314
857.797	22390
857.931	22497
858.064	22356
858.197	22386
858.331	22215
858.464	22120
858.597	22207
858.731	22185
858.864	22257
858.997	22128
859.13	22215
859.263	22204
859.396	22333
859.529	22215
859.662	22154
859.795	22185
859.928	22371
860.061	22375
860.194	22466
860.327	22337
860.46	22291
860.592	22348
860.725	22421
860.858	22409
860.99	22177
861.123	22303
861.256	22181
861.388	22272
861.521	22850
861.653	22154
861.786	22055
861.918	21979
862.05	22291
862.183	22177
862.315	22299
862.447	22276
862.58	22230
862.712	22006
862.844	21972
862.976	21983
863.108	21953
863.24	22557
863.372	21873
863.504	22093
863.636	22017
863.768	21907
863.9	22029
864.032	21926
864.164	22112
864.296	22002
864.428	22147
864.559	22010
864.691	22207
864.823	21975
864.954	21953
865.086	22128
865.217	22013
865.349	21816
865.48	21819
865.612	21816
865.743	21937
865.875	21842
866.006	21880
866.137	21857
866.269	21922
866.4	21960
866.531	21819
866.662	21816
866.793	21747
866.924	21892
867.055	21789
867.186	21899
867.317	21808
867.448	21667
867.579	21663
867.71	21663
867.841	21842
867.972	21804
868.103	21686
868.233	21762
868.364	21759
868.495	21907
868.625	22044
868.756	22128
868.886	21956
869.017	22074
869.147	22090
869.278	22234
869.408	22021
869.539	21983
869.669	22105
869.799	22162
869.929	22181
870.06	22223
870.19	22329
870.32	22363
870.45	22306
870.58	22394
870.71	22527
870.84	22500
870.97	22421
871.1	22535
871.23	22599
871.36	22649
871.489	22481
871.619	22527
871.749	22611
871.879	22649
872.008	22759
872.138	22656
872.267	22664
872.397	22489
872.526	22474
872.656	22363
872.785	22508
872.915	22611
873.044	22828
873.173	22649
873.303	22698
873.432	22660
873.561	22801
873.69	22675
873.819	22752
873.948	22675
874.077	22637
874.206	22584
874.335	22618
874.464	22626
874.593	22816
874.722	22812
874.851	22885
874.979	22957
875.108	23079
875.237	22896
875.365	22752
875.494	22942
875.623	22953
875.751	22793
875.88	22835
876.008	22866
876.136	23090
876.265	23277
876.393	23322
876.521	23356
876.65	23379
876.778	23258
876.906	23174
877.034	23239
877.162	23193
877.29	23235
877.418	23284
877.546	23242
877.674	23235
877.802	23273
877.93	23193
878.058	23250
878.185	23204
878.313	23121
878.441	23227
878.568	23166
878.696	23246
878.824	23254
878.951	23307
879.079	23296
879.206	23531
879.333	23486
879.461	23311
879.588	23166
879.715	23379
879.842	23486
879.97	23299
880.097	22968
880.224	23079
880.351	23052
880.478	23109
880.605	22980
880.732	22995
880.859	23288
880.986	23136
881.112	23018
881.239	22968
881.366	22854
881.493	22755
881.619	22691
881.746	22687
881.872	22630
881.999	22622
882.125	22550
882.252	22630
882.378	22508
882.505	22664
882.631	22470
882.757	22360
882.883	22417
883.01	22310
883.136	22158
883.262	22112
883.388	22086
883.514	22234
883.64	22314
883.766	22196
883.892	22078
884.018	22226
884.143	22185
884.269	22402
884.395	22032
884.52	21774
884.646	21930
884.772	21846
884.897	21751
885.023	21876
885.148	22074
885.274	22234
885.399	22086
885.524	21987
885.65	21975
885.775	21953
885.9	21842
886.025	21949
886.15	22017
886.275	21785
886.4	21827
886.525	21789
886.65	21838
886.775	21846
886.9	22006
887.025	22105
887.149	21823
887.274	21743
887.399	21622
887.523	21682
887.648	21652
887.773	21595
887.897	21694
888.021	21701
888.146	21644
888.27	21789
888.395	21804
888.519	21644
888.643	21736
888.767	21633
888.891	21622
889.015	21500
889.139	21492
889.263	21469
889.387	21523
889.511	21534
889.635	21614
889.759	21450
889.883	21416
890.006	21450
890.13	21580
890.254	21420
890.377	21428
890.501	21245
890.624	21192
890.748	21268
890.871	21070
890.995	21032
891.118	21077
891.241	20975
891.364	21028
891.488	21039
891.611	21062
891.734	21116
891.857	21047
891.98	20979
892.103	21142
892.226	20994
892.349	20960
892.471	20834
892.594	20906
892.717	20952
892.839	20918
892.962	21017
893.085	20960
893.207	20861
893.33	20762
893.452	20872
893.575	20967
893.697	20834
893.819	21123
893.941	21096
894.064	20986
894.186	20895
894.308	20861
894.43	20944
894.552	21116
894.674	20990
894.796	20830
894.918	20845
895.04	20880
895.161	21001
895.283	20925
895.405	20925
895.526	20838
895.648	20979
895.769	20925
895.891	20952
896.012	20944
896.134	20819
896.255	20971
896.376	20811
896.498	20857
896.619	20887
896.74	20834
896.861	20891
896.982	21184
897.103	21447
897.224	21131
897.345	21058
897.466	20952
897.587	21146
897.708	21192
897.828	21165
897.949	21066
898.07	20838
898.19	21074
898.311	21119
898.431	21146
898.552	20948
898.672	21104
898.792	21074
898.913	21085
899.033	21036
899.153	20906
899.273	20811
899.393	20785
899.513	20819
899.633	20796
899.753	20838
899.873	20792
899.993	20811
900.113	20781
900.232	20758
900.352	20724
900.472	20579
900.591	20598
900.711	20571
900.83	20530
900.95	20667
901.069	20602
901.189	20514
901.308	20259
901.427	20069
901.546	20320
901.665	20244
901.784	20161
901.904	20073
902.023	19879
902.141	19822
902.26	19712
902.379	19837
902.498	19689
902.617	19689
902.735	19666
902.854	19674
902.973	19525
903.091	19346
903.21	19377
903.328	19373
903.446	19270
903.565	19194
903.683	19061
903.801	19000
903.919	19126
904.038	19031
904.156	18909
904.274	18871
904.392	18985
904.51	18913
904.627	18966
904.745	18882
904.863	18909
904.981	18696
905.098	18654
905.216	18502
905.334	18715
905.451	18593
905.569	18536
905.686	18627
905.803	18555
905.921	18498
906.038	18498
906.155	18486
906.272	18224
906.389	18209
906.506	18095
906.623	18155
906.74	18125
906.857	17927
906.974	18011
907.091	18133
907.208	18155
907.324	18155
907.441	18083
907.557	17817
907.674	17771
907.79	17817
907.907	17764
908.023	17893
908.139	17805
908.256	17775
908.372	17726
908.488	17783
908.604	17570
908.72	17615
908.836	17577
908.952	17512
909.068	17611
909.184	17646
909.3	17493
909.415	17661
909.531	17611
909.647	17193
909.762	17128
909.878	17189
909.993	17269
910.108	17132
910.224	17208
910.339	17151
910.454	17071
910.57	17067
910.685	17052
910.8	17322
910.915	17246
911.03	17022
911.145	16877
911.259	16759
911.374	16869
911.489	16706
911.604	16706
911.718	16607
911.833	16577
911.947	16573
912.062	16447
912.176	16531
912.291	16664
912.405	16630
912.519	16710
912.633	16729
912.748	16607
912.862	16565
912.976	16390
913.09	16257
913.204	16306
913.318	16402
913.431	16466
913.545	16538
913.659	16360
913.772	16367
913.886	16192
914	16158
914.113	16299
914.226	16322
914.34	16169
914.453	16059
914.566	16348
914.68	16002
914.793	15975
914.906	15789
915.019	15770
915.132	15789
915.245	15732
915.358	15823
915.47	15667
915.583	15831
915.696	15774
915.809	15793
915.921	15880
916.034	15701
916.146	15690
916.259	15641
916.371	15762
916.483	15694
916.595	15488
916.708	15576
916.82	15587
916.932	15584
917.044	15606
917.156	15507
917.268	15405
917.38	15329
917.491	15370
917.603	15351
917.715	15477
917.826	15420
917.938	15249
918.049	15211
918.161	15370
918.272	15450
918.384	15473
918.495	15306
918.606	15195
918.717	15097
918.828	15104
918.939	15150
919.05	15036
919.161	15043
919.272	14933
919.383	15001
919.494	15169
919.604	15313
919.715	15036
919.826	15055
919.936	15093
920.047	15226
920.157	15074
920.267	15306
920.378	15146
920.488	15047
920.598	15214
920.708	15389
920.818	15203
920.928	15252
921.038	15321
921.148	15408
921.258	15047
921.368	14925
921.477	14796
921.587	14861
921.697	14750
921.806	14929
921.916	14667
922.025	14446
922.134	14469
922.244	14480
922.353	14499
922.462	14282
922.571	14275
922.68	14157
922.789	13997
922.898	14058
923.007	13978
923.116	14046
923.224	14077
923.333	14027
923.442	13875
923.55	13837
923.659	13898
923.767	13940
923.876	13795
923.984	13868
924.092	13696
924.201	13803
924.309	13784
924.417	13757
924.525	13776
924.633	13750
924.741	14503
924.849	13464
924.956	13639
925.064	13518
925.172	13506
925.279	13483
925.387	13537
925.494	13506
925.602	13567
925.709	13548
925.816	13324
925.924	13346
926.031	13499
926.138	13472
926.245	13502
926.352	13308
926.459	13449
926.566	13540
926.673	13400
926.779	13152
926.886	13152
926.993	13076
927.099	13019
927.206	12985
927.312	12962
927.419	13118
927.525	12928
927.631	13084
927.737	12837
927.843	12901
927.95	12684
928.056	12821
928.162	12821
928.267	12798
928.373	13472
928.479	12825
928.585	12604
928.69	12821
928.796	12795
928.901	12715
929.007	12559
929.112	12711
929.218	12616
929.323	12635
929.428	12566
929.533	12738
929.638	12467
929.743	12559
929.848	12532
929.953	12513
930.058	12418
930.163	12194
930.267	12213
930.372	12330
930.477	12224
930.581	12365
930.685	12171
930.79	12057
930.894	12129
930.998	12057
931.103	12224
931.207	11923
931.311	11824
931.415	11726
931.519	11493
931.623	11395
