Data from test_V78500241_1673.txt Node
Date: Fri Mar 25 15:53:23 CST 2022
User: usil
Spectrometer: V785-0024
Trigger mode: 0
Integration Time (sec): 4.000000E-1
Scans to average: 1
Nonlinearity correction enabled: false
Boxcar width: 0
Storing dark spectrum: false
XAxis mode: Wavelengths
Number of Pixels in Spectrum: 1024
>>>>>Begin Spectral Data<<<<<
801.071	28268
801.214	28192
801.356	28063
801.499	28040
801.641	28040
801.783	27880
801.926	27998
802.068	27884
802.211	27831
802.353	27736
802.496	27583
802.638	27466
802.78	27614
802.923	27477
803.065	27538
803.208	27485
803.35	27561
803.492	27743
803.635	27797
803.777	27694
803.919	27739
804.061	28101
804.204	27850
804.346	27770
804.488	27774
804.63	27861
804.773	27781
804.915	27903
805.057	28017
805.199	27884
805.341	27778
805.483	27953
805.626	27953
805.768	27778
805.91	27918
806.052	27945
806.194	27789
806.336	28185
806.478	27899
806.62	28006
806.762	27972
806.904	28268
807.046	28379
807.188	28333
807.33	28341
807.472	28417
807.614	28322
807.756	28363
807.898	28230
808.04	28147
808.182	28131
808.324	28341
808.465	28200
808.607	28485
808.749	28729
808.891	28664
809.033	28641
809.174	28816
809.316	28592
809.458	28573
809.6	28664
809.741	28675
809.883	28786
810.025	28774
810.166	28957
810.308	28919
810.45	28881
810.591	28755
810.733	28694
810.875	28630
811.016	28485
811.158	28382
811.299	28694
811.441	28782
811.582	28816
811.724	28588
811.865	28550
812.007	28538
812.148	28656
812.29	28653
812.431	28888
812.573	28900
812.714	29060
812.855	28995
812.997	29132
813.138	29368
813.279	29315
813.421	29227
813.562	29140
813.703	29044
813.845	28949
813.986	28584
814.127	28424
814.268	28287
814.41	28310
814.551	28333
814.692	28310
814.833	28322
814.974	28215
815.115	28409
815.256	28139
815.397	28185
815.539	28207
815.68	28207
815.821	28101
815.962	28048
816.103	28013
816.244	27975
816.385	27804
816.526	27770
816.666	27694
816.807	27599
816.948	27671
817.089	27660
817.23	27720
817.371	27720
817.512	27545
817.653	27511
817.793	27427
817.934	27641
818.075	27652
818.216	27675
818.356	27534
818.497	27454
818.638	27363
818.778	27439
818.919	27454
819.06	27477
819.2	27488
819.341	27599
819.481	27599
819.622	27800
819.762	27937
819.903	27854
820.043	27728
820.184	27808
820.324	27770
820.465	27873
820.605	27663
820.746	27819
820.886	27526
821.026	27610
821.167	27644
821.307	27854
821.447	27774
821.588	27534
821.728	27405
821.868	27207
822.008	27062
822.149	27024
822.289	27070
822.429	26708
822.569	26796
822.709	26754
822.849	26545
822.99	26655
823.13	26556
823.27	26556
823.41	26465
823.55	26225
823.69	26427
823.83	26385
823.97	26271
824.11	26210
824.25	26157
824.389	26164
824.529	26301
824.669	26195
824.809	26389
824.949	26237
825.089	26324
825.228	26385
825.368	26043
825.508	26054
825.648	26149
825.787	26172
825.927	26233
826.067	26130
826.206	26024
826.346	26126
826.485	26065
826.625	26142
826.765	26358
826.904	26035
827.044	25864
827.183	25757
827.323	25883
827.462	25860
827.601	25883
827.741	25757
827.88	25959
828.02	25788
828.159	25674
828.298	25951
828.437	25761
828.577	25761
828.716	25868
828.855	25753
828.994	25460
829.134	25453
829.273	25544
829.412	25468
829.551	25533
829.69	25525
829.829	25533
829.968	25525
830.107	25548
830.246	25426
830.385	25343
830.524	25362
830.663	25259
830.802	25266
830.941	25141
831.08	25091
831.219	25282
831.357	25194
831.496	25346
831.635	25118
831.774	25072
831.913	25038
832.051	25004
832.19	24909
832.329	24909
832.467	24856
832.606	24768
832.744	24658
832.883	24722
833.022	24703
833.16	24745
833.299	24772
833.437	24791
833.576	24745
833.714	24867
833.852	24825
833.991	24932
834.129	24981
834.267	24935
834.406	24981
834.544	24935
834.682	24798
834.821	24677
834.959	24996
835.097	24787
835.235	24913
835.373	24989
835.511	24852
835.65	24570
835.788	24661
835.926	24585
836.064	24475
836.202	24650
836.34	24578
836.478	24642
836.615	24597
836.753	24749
836.891	24726
837.029	24654
837.167	24623
837.305	24532
837.443	24585
837.58	24570
837.718	24563
837.856	24593
837.993	24479
838.131	24418
838.269	24376
838.406	24407
838.544	24285
838.681	24117
838.819	24136
838.956	24007
839.094	23988
839.231	23969
839.369	24159
839.506	24228
839.643	24186
839.781	24003
839.918	23885
840.055	24106
840.193	23912
840.33	23912
840.467	23992
840.604	24018
840.742	24129
840.879	23714
841.016	23691
841.153	23802
841.29	24022
841.427	23847
841.564	23855
841.701	23885
841.838	23786
841.975	23771
842.112	23741
842.249	23707
842.385	23714
842.522	23828
842.659	23619
842.796	23592
842.933	23680
843.069	23592
843.206	23684
843.343	23745
843.479	23627
843.616	23638
843.752	23364
843.889	23478
844.025	23596
844.162	23288
844.298	23433
844.435	23402
844.571	23220
844.708	23406
844.844	23516
844.98	23531
845.117	23505
845.253	23364
845.389	23231
845.525	23376
845.661	23231
845.798	23128
845.934	23181
846.07	23121
846.206	23212
846.342	23223
846.478	23124
846.614	22809
846.75	22869
846.886	22748
847.022	22843
847.158	22946
847.294	22835
847.429	22733
847.565	22866
847.701	23041
847.837	22710
847.972	22466
848.108	22744
848.244	22683
848.379	22554
848.515	22474
848.65	22451
848.786	22447
848.921	22588
849.057	22554
849.192	22436
849.328	22584
849.463	22508
849.598	22375
849.734	22356
849.869	22356
850.004	22280
850.14	22284
850.275	22124
850.41	22143
850.545	22143
850.68	22143
850.815	22322
850.95	22185
851.085	22337
851.22	22344
851.355	22268
851.49	22246
851.625	22116
851.76	22188
851.895	22196
852.03	22154
852.165	22188
852.299	22344
852.434	22306
852.569	22185
852.703	22207
852.838	22303
852.973	22375
853.107	22322
853.242	22192
853.376	22147
853.511	21949
853.645	21998
853.78	22158
853.914	22055
854.048	21994
854.183	22013
854.317	22006
854.451	22181
854.585	22116
854.72	22082
854.854	22173
854.988	22044
855.122	21911
855.256	21911
855.39	22059
855.524	22067
855.658	21991
855.792	22002
855.926	22063
856.06	22139
856.194	22196
856.327	22040
856.461	21979
856.595	21964
856.729	22006
856.862	22177
856.996	22067
857.13	22055
857.263	22128
857.397	22105
857.53	22017
857.664	22120
857.797	22048
857.931	22093
858.064	22055
858.197	22135
858.331	22173
858.464	22025
858.597	21987
858.731	21968
858.864	21911
858.997	22044
859.13	22070
859.263	21949
859.396	22124
859.529	21945
859.662	21926
859.795	21922
859.928	22013
860.061	22128
860.194	22196
860.327	21998
860.46	22070
860.592	22063
860.725	22147
860.858	22181
860.99	22093
861.123	21949
861.256	22040
861.388	22013
861.521	22797
861.653	21850
861.786	21838
861.918	21876
862.05	21892
862.183	21816
862.315	21884
862.447	21983
862.58	21937
862.712	21800
862.844	21705
862.976	21766
863.108	21842
863.24	22158
863.372	21663
863.504	21789
863.636	21831
863.768	21804
863.9	21686
864.032	21576
864.164	21641
864.296	21747
864.428	21781
864.559	21789
864.691	21747
864.823	21663
864.954	21720
865.086	21747
865.217	21633
865.349	21694
865.48	21679
865.612	21720
865.743	21656
865.875	21679
866.006	21545
866.137	21644
866.269	21599
866.4	21511
866.531	21606
866.662	21603
866.793	21580
866.924	21660
867.055	21641
867.186	21485
867.317	21576
867.448	21447
867.579	21469
867.71	21454
867.841	21355
867.972	21568
868.103	21462
868.233	21603
868.364	21469
868.495	21618
868.625	21797
868.756	21850
868.886	21694
869.017	21922
869.147	21960
869.278	21819
869.408	21842
869.539	21759
869.669	21838
869.799	21884
869.929	21876
870.06	21892
870.19	22139
870.32	22086
870.45	22112
870.58	22128
870.71	22238
870.84	22272
870.97	22128
871.1	22257
871.23	22280
871.36	22344
871.489	22291
871.619	22341
871.749	22367
871.879	22375
872.008	22527
872.138	22306
872.267	22352
872.397	22398
872.526	22280
872.656	22124
872.785	22310
872.915	22421
873.044	22523
873.173	22508
873.303	22538
873.432	22436
873.561	22542
873.69	22382
873.819	22459
873.948	22474
874.077	22550
874.206	22284
874.335	22455
874.464	22447
874.593	22710
874.722	22538
874.851	22649
874.979	22573
875.108	22645
875.237	22569
875.365	22523
875.494	22519
875.623	22706
875.751	22535
875.88	22645
876.008	22782
876.136	22850
876.265	23105
876.393	23159
876.521	23064
876.65	23143
876.778	23109
876.906	22995
877.034	22938
877.162	23128
877.29	22816
877.418	22987
877.546	22946
877.674	22930
877.802	22999
877.93	22915
878.058	23025
878.185	22763
878.313	22976
878.441	22790
878.568	22797
878.696	22942
878.824	22911
878.951	22946
879.079	23189
879.206	23227
879.333	23307
879.461	23041
879.588	23064
879.715	23185
879.842	23330
879.97	23010
880.097	22843
880.224	22866
880.351	22843
880.478	22664
880.605	22828
880.732	22771
880.859	23041
880.986	22752
881.112	22713
881.239	22634
881.366	22554
881.493	22379
881.619	22280
881.746	22497
881.872	22276
881.999	22341
882.125	22306
882.252	22451
882.378	22306
882.505	22455
882.631	22067
882.757	22017
882.883	22162
883.01	22070
883.136	21918
883.262	21819
883.388	21972
883.514	22082
883.64	22044
883.766	21884
883.892	21812
884.018	21888
884.143	21994
884.269	22143
884.395	21762
884.52	21572
884.646	21648
884.772	21652
884.897	21561
885.023	21641
885.148	21816
885.274	21755
885.399	21751
885.524	21694
885.65	21633
885.775	21587
885.9	21751
886.025	21766
886.15	21880
886.275	21614
886.4	21652
886.525	21553
886.65	21564
886.775	21568
886.9	21759
887.025	21941
887.149	21713
887.274	21389
887.399	21378
887.523	21412
887.648	21344
887.773	21370
887.897	21507
888.021	21408
888.146	21329
888.27	21511
888.395	21526
888.519	21526
888.643	21439
888.767	21504
888.891	21332
889.015	21230
889.139	21214
889.263	21325
889.387	21336
889.511	21439
889.635	21348
889.759	21252
889.883	21237
890.006	21214
890.13	21252
890.254	21116
890.377	21112
890.501	20948
890.624	20967
890.748	20925
890.871	20906
890.995	20815
891.118	20796
891.241	20777
891.364	20750
891.488	20880
891.611	20819
891.734	20861
891.857	20735
891.98	20765
892.103	20834
892.226	20792
892.349	20750
892.471	20602
892.594	20769
892.717	20617
892.839	20651
892.962	20754
893.085	20727
893.207	20651
893.33	20587
893.452	20613
893.575	20720
893.697	20636
893.819	20819
893.941	20853
894.064	20887
894.186	20617
894.308	20670
894.43	20807
894.552	20830
894.674	20689
894.796	20575
894.918	20564
895.04	20655
895.161	20750
895.283	20853
895.405	20655
895.526	20701
895.648	20556
895.769	20735
895.891	20609
896.012	20731
896.134	20815
896.255	20735
896.376	20602
896.498	20777
896.619	20617
896.74	20724
896.861	20689
896.982	21036
897.103	21116
897.224	21039
897.345	20899
897.466	20891
897.587	20864
897.708	21001
897.828	20857
897.949	20777
898.07	20716
898.19	20735
898.311	20891
898.431	20834
898.552	20906
898.672	21032
898.792	20986
898.913	20956
899.033	20773
899.153	20693
899.273	20579
899.393	20724
899.513	20674
899.633	20716
899.753	20583
899.873	20552
899.993	20621
900.113	20674
900.232	20613
900.352	20629
900.472	20533
900.591	20423
900.711	20427
900.83	20343
900.95	20571
901.069	20446
901.189	20320
901.308	20092
901.427	20001
901.546	20065
901.665	20020
901.784	19967
901.904	19723
902.023	19689
902.141	19449
902.26	19521
902.379	19609
902.498	19476
902.617	19411
902.735	19582
902.854	19590
902.973	19274
903.091	19168
903.21	19137
903.328	19099
903.446	19137
903.565	18943
903.683	18939
903.801	18875
903.919	18844
904.038	18916
904.156	18700
904.274	18764
904.392	18681
904.51	18627
904.627	18703
904.745	18715
904.863	18825
904.981	18566
905.098	18391
905.216	18315
905.334	18323
905.451	18361
905.569	18266
905.686	18395
905.803	18254
905.921	18178
906.038	18315
906.155	18190
906.272	18015
906.389	17988
906.506	17908
906.623	17973
906.74	17889
906.857	17794
906.974	17710
907.091	17942
907.208	18102
907.324	17931
907.441	17927
907.557	17661
907.674	17646
907.79	17562
907.907	17741
908.023	17733
908.139	17558
908.256	17414
908.372	17425
908.488	17410
908.604	17360
908.72	17406
908.836	17368
908.952	17379
909.068	17417
909.184	17463
909.3	17318
909.415	17368
909.531	17391
909.647	17094
909.762	16961
909.878	17094
909.993	17140
910.108	16957
910.224	16968
910.339	16850
910.454	16995
910.57	16824
910.685	16847
910.8	17006
910.915	16942
911.03	16892
911.145	16573
911.259	16679
911.374	16558
911.489	16474
911.604	16379
911.718	16318
911.833	16402
911.947	16337
912.062	16219
912.176	16375
912.291	16329
912.405	16348
912.519	16497
912.633	16508
912.748	16474
912.862	16386
912.976	16109
913.09	16067
913.204	16135
913.318	16067
913.431	16265
913.545	16265
913.659	16219
913.772	16135
913.886	15975
914	15873
914.113	16185
914.226	16093
914.34	16101
914.453	15846
914.566	15915
914.68	15838
914.793	15797
914.906	15637
915.019	15595
915.132	15542
915.245	15477
915.358	15481
915.47	15572
915.583	15538
915.696	15599
915.809	15652
915.921	15724
916.034	15557
916.146	15462
916.259	15466
916.371	15553
916.483	15469
916.595	15336
916.708	15389
916.82	15359
916.932	15401
917.044	15203
917.156	15306
917.268	15146
917.38	15222
917.491	15188
917.603	15184
917.715	15302
917.826	15218
917.938	15093
918.049	15055
918.161	15089
918.272	15161
918.384	15241
918.495	15131
918.606	14982
918.717	14948
918.828	14956
918.939	14971
919.05	14857
919.161	14876
919.272	14697
919.383	14746
919.494	15039
919.604	15020
919.715	14948
919.826	14792
919.936	14845
920.047	15036
920.157	14807
920.267	15184
920.378	15005
920.488	14731
920.598	15055
920.708	15161
920.818	15131
920.928	14986
921.038	15154
921.148	14971
921.258	14868
921.368	14823
921.477	14686
921.587	14686
921.697	14499
921.806	14667
921.916	14465
922.025	14393
922.134	14229
922.244	14256
922.353	14343
922.462	14187
922.571	14077
922.68	14005
922.789	13849
922.898	13887
923.007	13879
923.116	13944
923.224	13856
923.333	13928
923.442	13784
923.55	13727
923.659	13788
923.767	13715
923.876	13639
923.984	13715
924.092	13601
924.201	13727
924.309	13609
924.417	13597
924.525	13438
924.633	13533
924.741	14347
924.849	13335
924.956	13559
925.064	13320
925.172	13259
925.279	13259
925.387	13293
925.494	13274
925.602	13400
925.709	13346
925.816	13160
925.924	13168
926.031	13240
926.138	13369
926.245	13266
926.352	13057
926.459	13225
926.566	13339
926.673	13198
926.779	13091
926.886	13141
926.993	12905
927.099	12760
927.206	12817
927.312	12875
927.419	12993
927.525	12856
927.631	12894
927.737	12749
927.843	12734
927.95	12559
928.056	12696
928.162	12692
928.267	12715
928.373	13343
928.479	12776
928.585	12547
928.69	12650
928.796	12707
928.901	12494
929.007	12304
929.112	12521
929.218	12555
929.323	12452
929.428	12388
929.533	12467
929.638	12399
929.743	12376
929.848	12376
929.953	12357
930.058	12292
930.163	12057
930.267	12076
930.372	12262
930.477	12155
930.581	12277
930.685	12079
930.79	11992
930.894	11961
930.998	11935
931.103	12095
931.207	11767
931.311	11573
931.415	11516
931.519	11345
931.623	11299
