Data from test_V78500241_3337.txt Node
Date: Fri Mar 25 16:04:55 CST 2022
User: usil
Spectrometer: V785-0024
Trigger mode: 0
Integration Time (sec): 4.000000E-1
Scans to average: 1
Nonlinearity correction enabled: false
Boxcar width: 0
Storing dark spectrum: false
XAxis mode: Wavelengths
Number of Pixels in Spectrum: 1024
>>>>>Begin Spectral Data<<<<<
801.071	28881
801.214	28641
801.356	28497
801.499	28542
801.641	28428
801.783	28462
801.926	28493
802.068	28478
802.211	28299
802.353	28314
802.496	28147
802.638	28010
802.78	28124
802.923	28082
803.065	27854
803.208	28025
803.35	28162
803.492	28230
803.635	28497
803.777	28192
803.919	28204
804.061	28653
804.204	28489
804.346	28265
804.488	28295
804.63	28272
804.773	28329
804.915	28447
805.057	28592
805.199	28310
805.341	28394
805.483	28466
805.626	28375
805.768	28440
805.91	28485
806.052	28443
806.194	28489
806.336	28656
806.478	28432
806.62	28577
806.762	28607
806.904	28797
807.046	29022
807.188	28938
807.33	28869
807.472	28927
807.614	29083
807.756	28972
807.898	28923
808.04	28687
808.182	28713
808.324	28801
808.465	28900
808.607	29075
808.749	29071
808.891	29337
809.033	29288
809.174	29025
809.316	29239
809.458	29147
809.6	29098
809.741	29299
809.883	29433
810.025	29570
810.166	29520
810.308	29524
810.45	29512
810.591	29482
810.733	29246
810.875	29261
811.016	29200
811.158	29212
811.299	29277
811.441	29452
811.582	29402
811.724	29223
811.865	29216
812.007	29288
812.148	29288
812.29	29197
812.431	29421
812.573	29627
812.714	29570
812.855	29748
812.997	29836
813.138	30110
813.279	29821
813.421	29840
813.562	29760
813.703	29566
813.845	29543
813.986	29204
814.127	29060
814.268	29010
814.41	28919
814.551	29128
814.692	29071
814.833	28885
814.974	28930
815.115	29029
815.256	28881
815.397	28908
815.539	28881
815.68	28774
815.821	28664
815.962	28767
816.103	28763
816.244	28744
816.385	28455
816.526	28557
816.666	28428
816.807	28143
816.948	28352
817.089	28432
817.23	28371
817.371	28306
817.512	28500
817.653	28268
817.793	28291
817.934	28329
818.075	28344
818.216	28242
818.356	28257
818.497	28116
818.638	27953
818.778	28021
818.919	28036
819.06	28211
819.2	28093
819.341	28356
819.481	28306
819.622	28531
819.762	28626
819.903	28615
820.043	28363
820.184	28421
820.324	28523
820.465	28462
820.605	28451
820.746	28428
820.886	28211
821.026	28242
821.167	28398
821.307	28478
821.447	28272
821.588	28200
821.728	28082
821.868	27842
822.008	27888
822.149	27842
822.289	27705
822.429	27454
822.569	27481
822.709	27359
822.849	27382
822.99	27226
823.13	27245
823.27	27241
823.41	27116
823.55	27081
823.69	27173
823.83	27123
823.97	26982
824.11	26914
824.25	26781
824.389	26849
824.529	26994
824.669	26937
824.809	27173
824.949	27005
825.089	26937
825.228	26929
825.368	26830
825.508	26674
825.648	26830
825.787	26769
825.927	26804
826.067	26937
826.206	26853
826.346	26918
826.485	26861
826.625	26670
826.765	26994
826.904	26720
827.044	26514
827.183	26609
827.323	26423
827.462	26648
827.601	26632
827.741	26541
827.88	26682
828.02	26423
828.159	26511
828.298	26423
828.437	26594
828.577	26393
828.716	26583
828.855	26476
828.994	26248
829.134	26259
829.273	26275
829.412	26100
829.551	26081
829.69	26278
829.829	26195
829.968	26301
830.107	26199
830.246	26221
830.385	26206
830.524	26138
830.663	26016
830.802	26008
830.941	25723
831.08	25769
831.219	25826
831.357	25955
831.496	26058
831.635	25837
831.774	25791
831.913	25662
832.051	25628
832.19	25670
832.329	25662
832.467	25521
832.606	25464
832.744	25369
832.883	25521
833.022	25525
833.16	25438
833.299	25609
833.437	25559
833.576	25518
833.714	25533
833.852	25624
833.991	25658
834.129	25685
834.267	25632
834.406	25556
834.544	25552
834.682	25651
834.821	25567
834.959	25765
835.097	25422
835.235	25658
835.373	25411
835.511	25449
835.65	25438
835.788	25327
835.926	25316
836.064	25259
836.202	25198
836.34	25415
836.478	25495
836.615	25350
836.753	25346
836.891	25369
837.029	25419
837.167	25392
837.305	25339
837.443	25244
837.58	25316
837.718	25236
837.856	25255
837.993	25099
838.131	25206
838.269	24996
838.406	25053
838.544	24973
838.681	24821
838.819	24798
838.956	24707
839.094	24840
839.231	24612
839.369	24867
839.506	25061
839.643	24825
839.781	24817
839.918	24646
840.055	24612
840.193	24631
840.33	24525
840.467	24692
840.604	24563
840.742	24909
840.879	24597
841.016	24639
841.153	24536
841.29	24635
841.427	24604
841.564	24661
841.701	24551
841.838	24559
841.975	24517
842.112	24513
842.249	24403
842.385	24414
842.522	24536
842.659	24399
842.796	24304
842.933	24464
843.069	24384
843.206	24159
843.343	24422
843.479	24296
843.616	24353
843.752	24205
843.889	24201
844.025	24178
844.162	24110
844.298	24174
844.435	24076
844.571	23939
844.708	23992
844.844	24315
844.98	24266
845.117	24148
845.253	24083
845.389	24003
845.525	24102
845.661	23988
845.798	23859
845.934	23866
846.07	23775
846.206	23901
846.342	24041
846.478	23771
846.614	23634
846.75	23478
846.886	23482
847.022	23570
847.158	23585
847.294	23467
847.429	23611
847.565	23516
847.701	23832
847.837	23258
847.972	23337
848.108	23360
848.244	23448
848.379	23159
848.515	23071
848.65	23197
848.786	23140
848.921	23143
849.057	23284
849.192	23071
849.328	23200
849.463	23109
849.598	23037
849.734	23018
849.869	23094
850.004	22957
850.14	22923
850.275	22987
850.41	22725
850.545	22923
850.68	22942
850.815	22946
850.95	22930
851.085	23064
851.22	23006
851.355	22934
851.49	22835
851.625	22934
851.76	22972
851.895	22759
852.03	22866
852.165	22896
852.299	22968
852.434	22900
852.569	22934
852.703	22854
852.838	22957
852.973	23025
853.107	23044
853.242	22892
853.376	22675
853.511	22649
853.645	22687
853.78	22790
853.914	22736
854.048	22740
854.183	22835
854.317	22774
854.451	22987
854.585	22877
854.72	22706
854.854	23044
854.988	22653
855.122	22896
855.256	22641
855.39	22862
855.524	22927
855.658	22831
855.792	22797
855.926	22755
856.06	22873
856.194	22744
856.327	22828
856.461	22634
856.595	22835
856.729	22748
856.862	22885
856.996	22725
857.13	22812
857.263	22908
857.397	22885
857.53	22778
857.664	22908
857.797	22904
857.931	22900
858.064	22835
858.197	22839
858.331	22854
858.464	22778
858.597	22550
858.731	22694
858.864	22668
858.997	22721
859.13	22793
859.263	22786
859.396	22896
859.529	22702
859.662	22596
859.795	22740
859.928	22733
860.061	22957
860.194	23075
860.327	22847
860.46	22725
860.592	22953
860.725	22934
860.858	23033
860.99	22835
861.123	22641
861.256	22599
861.388	22763
861.521	23410
861.653	22649
861.786	22546
861.918	22580
862.05	22675
862.183	22588
862.315	22740
862.447	22771
862.58	22599
862.712	22440
862.844	22367
862.976	22535
863.108	22413
863.24	22930
863.372	22291
863.504	22405
863.636	22489
863.768	22527
863.9	22481
864.032	22440
864.164	22409
864.296	22481
864.428	22554
864.559	22557
864.691	22424
864.823	22561
864.954	22421
865.086	22527
865.217	22447
865.349	22371
865.48	22226
865.612	22478
865.743	22500
865.875	22375
866.006	22280
866.137	22306
866.269	22405
866.4	22299
866.531	22265
866.662	22356
866.793	22329
866.924	22268
867.055	22405
867.186	22249
867.317	22291
867.448	22147
867.579	22207
867.71	22215
867.841	22246
867.972	22333
868.103	22204
868.233	22234
868.364	22242
868.495	22409
868.625	22523
868.756	22596
868.886	22493
869.017	22413
869.147	22569
869.278	22656
869.408	22535
869.539	22398
869.669	22512
869.799	22546
869.929	22615
870.06	22527
870.19	22793
870.32	22767
870.45	22748
870.58	22862
870.71	22923
870.84	23067
870.97	22877
871.1	22915
871.23	23079
871.36	22961
871.489	22854
871.619	22965
871.749	23044
871.879	23208
872.008	23231
872.138	23003
872.267	23174
872.397	23094
872.526	22881
872.656	22984
872.785	22908
872.915	23162
873.044	23220
873.173	23033
873.303	23147
873.432	23022
873.561	23204
873.69	23178
873.819	23075
873.948	23204
874.077	23105
874.206	23018
874.335	23086
874.464	23292
874.593	23322
874.722	23258
874.851	23356
874.979	23284
875.108	23512
875.237	23356
875.365	23318
875.494	23360
875.623	23421
875.751	23356
875.88	23360
876.008	23391
876.136	23490
876.265	23790
876.393	23817
876.521	23866
876.65	23843
876.778	23649
876.906	23554
877.034	23680
877.162	23531
877.29	23627
877.418	23680
877.546	23589
877.674	23596
877.802	23619
877.93	23798
878.058	23676
878.185	23452
878.313	23668
878.441	23505
878.568	23520
878.696	23627
878.824	23672
878.951	23775
879.079	23813
879.206	23916
879.333	23866
879.461	23794
879.588	23775
879.715	23828
879.842	24003
879.97	23756
880.097	23581
880.224	23402
880.351	23493
880.478	23497
880.605	23531
880.732	23547
880.859	23699
880.986	23592
881.112	23512
881.239	23296
881.366	23235
881.493	23212
881.619	22995
881.746	23197
881.872	23044
881.999	22976
882.125	22949
882.252	23014
882.378	22919
882.505	22995
882.631	22782
882.757	22675
882.883	22877
883.01	22706
883.136	22599
883.262	22649
883.388	22577
883.514	22729
883.64	22679
883.766	22748
883.892	22557
884.018	22546
884.143	22641
884.269	22596
884.395	22523
884.52	22344
884.646	22466
884.772	22196
884.897	22207
885.023	22417
885.148	22527
885.274	22637
885.399	22580
885.524	22390
885.65	22268
885.775	22462
885.9	22341
886.025	22322
886.15	22474
886.275	22204
886.4	22215
886.525	22234
886.65	22272
886.775	22329
886.9	22398
887.025	22451
887.149	22284
887.274	22128
887.399	22112
887.523	22101
887.648	22105
887.773	21937
887.897	22238
888.021	22013
888.146	22036
888.27	22185
888.395	22154
888.519	22067
888.643	22166
888.767	22078
888.891	21937
889.015	21926
889.139	22029
889.263	21857
889.387	21911
889.511	22086
889.635	21983
889.759	21880
889.883	21918
890.006	22044
890.13	22044
890.254	21789
890.377	21766
890.501	21603
890.624	21561
890.748	21591
890.871	21454
890.995	21466
891.118	21462
891.241	21435
891.364	21416
891.488	21485
891.611	21504
891.734	21401
891.857	21435
891.98	21435
892.103	21431
892.226	21435
892.349	21389
892.471	21199
892.594	21355
892.717	21313
892.839	21275
892.962	21332
893.085	21439
893.207	21173
893.33	21272
893.452	21211
893.575	21294
893.697	21443
893.819	21473
893.941	21389
894.064	21424
894.186	21310
894.308	21176
894.43	21443
894.552	21485
894.674	21363
894.796	21313
894.918	21348
895.04	21241
895.161	21279
895.283	21283
895.405	21344
895.526	21321
895.648	21222
895.769	21279
895.891	21230
896.012	21359
896.134	21336
896.255	21359
896.376	21127
896.498	21173
896.619	21275
896.74	21123
896.861	21268
896.982	21545
897.103	21709
897.224	21576
897.345	21610
897.466	21386
897.587	21519
897.708	21599
897.828	21603
897.949	21523
898.07	21294
898.19	21443
898.311	21469
898.431	21382
898.552	21447
898.672	21515
898.792	21648
898.913	21310
899.033	21393
899.153	21260
899.273	21043
899.393	21188
899.513	21283
899.633	21222
899.753	21252
899.873	21207
899.993	21222
900.113	21119
900.232	21203
900.352	21112
900.472	21009
900.591	20982
900.711	20868
900.83	20868
900.95	21096
901.069	21131
901.189	20849
901.308	20575
901.427	20476
901.546	20590
901.665	20587
901.784	20568
901.904	20419
902.023	20294
902.141	20107
902.26	20221
902.379	20065
902.498	19970
902.617	20130
902.735	20081
902.854	19982
902.973	19963
903.091	19757
903.21	19655
903.328	19700
903.446	19616
903.565	19556
903.683	19499
903.801	19441
903.919	19476
904.038	19381
904.156	19168
904.274	19468
904.392	19171
904.51	19164
904.627	19251
904.745	19373
904.863	19282
904.981	18916
905.098	18924
905.216	18928
905.334	18962
905.451	18909
905.569	18901
905.686	19031
905.803	18966
905.921	18639
906.038	18840
906.155	18665
906.272	18532
906.389	18601
906.506	18433
906.623	18471
906.74	18391
906.857	18296
906.974	18361
907.091	18410
907.208	18483
907.324	18509
907.441	18300
907.557	18098
907.674	18121
907.79	18060
907.907	18076
908.023	18174
908.139	18155
908.256	18163
908.372	18121
908.488	18060
908.604	18003
908.72	17813
908.836	17931
908.952	17931
909.068	17923
909.184	17889
909.3	17859
909.415	17885
909.531	17859
909.647	17630
909.762	17608
909.878	17524
909.993	17501
910.108	17417
910.224	17543
910.339	17543
910.454	17429
910.57	17459
910.685	17345
910.8	17570
910.915	17395
911.03	17402
911.145	17242
911.259	17041
911.374	17250
911.489	17128
911.604	16957
911.718	16824
911.833	16854
911.947	16809
912.062	16763
912.176	16911
912.291	16809
912.405	16862
912.519	17128
912.633	16976
912.748	16812
912.862	16858
912.976	16713
913.09	16584
913.204	16607
913.318	16626
913.431	16835
913.545	16797
913.659	16782
913.772	16675
913.886	16447
914	16478
914.113	16451
914.226	16687
914.34	16481
914.453	16360
914.566	16523
914.68	16299
914.793	16265
914.906	16143
915.019	16090
915.132	15991
915.245	16067
915.358	16135
915.47	15994
915.583	15994
915.696	16059
915.809	16078
915.921	16215
916.034	15975
916.146	15979
916.259	15953
916.371	15998
916.483	15972
916.595	15850
916.708	15846
916.82	15739
916.932	15736
917.044	15755
917.156	15816
917.268	15648
917.38	15584
917.491	15633
917.603	15694
917.715	15709
917.826	15732
917.938	15671
918.049	15473
918.161	15553
918.272	15690
918.384	15644
918.495	15652
918.606	15439
918.717	15367
918.828	15431
918.939	15370
919.05	15389
919.161	15359
919.272	15226
919.383	15241
919.494	15492
919.604	15652
919.715	15298
919.826	15226
919.936	15412
920.047	15443
920.157	15416
920.267	15447
920.378	15405
920.488	15386
920.598	15557
920.708	15641
920.818	15439
920.928	15450
921.038	15686
921.148	15496
921.258	15230
921.368	15154
921.477	15119
921.587	15009
921.697	14910
921.806	14994
921.916	14861
922.025	14746
922.134	14682
922.244	14674
922.353	14644
922.462	14556
922.571	14541
922.68	14358
922.789	14301
922.898	14305
923.007	14206
923.116	14336
923.224	14267
923.333	14317
923.442	14180
923.55	14191
923.659	14233
923.767	14305
923.876	14092
923.984	14168
924.092	14005
924.201	14096
924.309	14043
924.417	14031
924.525	13890
924.633	13947
924.741	14921
924.849	13769
924.956	13967
925.064	13780
925.172	13620
925.279	13715
925.387	13616
925.494	13704
925.602	13738
925.709	13689
925.816	13578
925.924	13655
926.031	13750
926.138	13643
926.245	13601
926.352	13540
926.459	13784
926.566	13704
926.673	13636
926.779	13476
926.886	13434
926.993	13236
927.099	13278
927.206	13251
927.312	13183
927.419	13278
927.525	13152
927.631	13263
927.737	13072
927.843	13160
927.95	12920
928.056	12989
928.162	13034
928.267	13118
928.373	13594
928.479	13152
928.585	12856
928.69	12977
928.796	12894
928.901	12894
929.007	12688
929.112	12913
929.218	12844
929.323	12741
929.428	12753
929.533	12878
929.638	12593
929.743	12620
929.848	12688
929.953	12677
930.058	12597
930.163	12441
930.267	12525
930.372	12593
930.477	12353
930.581	12612
930.685	12429
930.79	12338
930.894	12403
930.998	12285
931.103	12384
931.207	12057
931.311	11961
931.415	11843
931.519	11676
931.623	11691
