Data from test_V78500241_1067.txt Node
Date: Fri Mar 25 15:49:11 CST 2022
User: usil
Spectrometer: V785-0024
Trigger mode: 0
Integration Time (sec): 4.000000E-1
Scans to average: 1
Nonlinearity correction enabled: false
Boxcar width: 0
Storing dark spectrum: false
XAxis mode: Wavelengths
Number of Pixels in Spectrum: 1024
>>>>>Begin Spectral Data<<<<<
801.071	28630
801.214	28519
801.356	28276
801.499	28246
801.641	28040
801.783	28070
801.926	28185
802.068	28006
802.211	28086
802.353	27972
802.496	27667
802.638	27751
802.78	27686
802.923	27686
803.065	27778
803.208	27610
803.35	27781
803.492	27793
803.635	27895
803.777	27816
803.919	28036
804.061	28223
804.204	27975
804.346	27873
804.488	27884
804.63	28032
804.773	27892
804.915	27945
805.057	28055
805.199	27972
805.341	28093
805.483	28124
805.626	28147
805.768	28044
805.91	28162
806.052	28166
806.194	28048
806.336	28413
806.478	28177
806.62	28086
806.762	28238
806.904	28405
807.046	28675
807.188	28538
807.33	28603
807.472	28664
807.614	28542
807.756	28596
807.898	28428
808.04	28436
808.182	28508
808.324	28287
808.465	28538
808.607	28634
808.749	28744
808.891	28915
809.033	28987
809.174	28965
809.316	28919
809.458	28778
809.6	28713
809.741	28972
809.883	29003
810.025	29147
810.166	29060
810.308	29151
810.45	29140
810.591	28980
810.733	28786
810.875	28843
811.016	28774
811.158	28649
811.299	29037
811.441	28919
811.582	29075
811.724	28862
811.865	28862
812.007	28793
812.148	28793
812.29	28953
812.431	29098
812.573	29181
812.714	29200
812.855	29421
812.997	29379
813.138	29493
813.279	29493
813.421	29410
813.562	29277
813.703	29136
813.845	28961
813.986	28904
814.127	28653
814.268	28592
814.41	28531
814.551	28546
814.692	28611
814.833	28504
814.974	28417
815.115	28523
815.256	28394
815.397	28443
815.539	28577
815.68	28405
815.821	28143
815.962	28409
816.103	28443
816.244	28295
816.385	28204
816.526	28044
816.666	27998
816.807	27808
816.948	27956
817.089	28010
817.23	27793
817.371	27797
817.512	27880
817.653	27808
817.793	27804
817.934	27747
818.075	27884
818.216	27793
818.356	27755
818.497	27743
818.638	27568
818.778	27526
818.919	27656
819.06	27629
819.2	27865
819.341	27789
819.481	27873
819.622	28010
819.762	28093
819.903	28029
820.043	28017
820.184	28006
820.324	28013
820.465	27994
820.605	28032
820.746	27983
820.886	27751
821.026	28002
821.167	27937
821.307	28040
821.447	27907
821.588	27694
821.728	27671
821.868	27511
822.008	27348
822.149	27310
822.289	27367
822.429	27085
822.569	27127
822.709	26998
822.849	26853
822.99	26838
823.13	26853
823.27	26792
823.41	26762
823.55	26568
823.69	26674
823.83	26617
823.97	26670
824.11	26549
824.25	26305
824.389	26457
824.529	26473
824.669	26476
824.809	26545
824.949	26663
825.089	26590
825.228	26541
825.368	26427
825.508	26267
825.648	26355
825.787	26434
825.927	26393
826.067	26244
826.206	26438
826.346	26393
826.485	26480
826.625	26362
826.765	26526
826.904	26442
827.044	26130
827.183	26164
827.323	26107
827.462	26062
827.601	26073
827.741	26096
827.88	26062
828.02	26016
828.159	26126
828.298	26062
828.437	26199
828.577	26065
828.716	26362
828.855	26008
828.994	25731
829.134	25883
829.273	25871
829.412	25715
829.551	25811
829.69	25807
829.829	25852
829.968	25818
830.107	25921
830.246	25811
830.385	25605
830.524	25693
830.663	25616
830.802	25563
830.941	25316
831.08	25377
831.219	25491
831.357	25559
831.496	25696
831.635	25304
831.774	25324
831.913	25255
832.051	25133
832.19	25133
832.329	25232
832.467	25179
832.606	24981
832.744	24981
832.883	25099
833.022	25000
833.16	25145
833.299	25213
833.437	25171
833.576	25358
833.714	25137
833.852	25099
833.991	25251
834.129	25194
834.267	25228
834.406	25114
834.544	25171
834.682	25103
834.821	25129
834.959	25304
835.097	25038
835.235	25137
835.373	25095
835.511	25152
835.65	24973
835.788	24932
835.926	24833
836.064	24768
836.202	24760
836.34	24901
836.478	24962
836.615	24943
836.753	24989
836.891	25107
837.029	24894
837.167	24871
837.305	24920
837.443	24726
837.58	24886
837.718	24943
837.856	24802
837.993	24734
838.131	24597
838.269	24616
838.406	24589
838.544	24498
838.681	24407
838.819	24384
838.956	24167
839.094	24228
839.231	24365
839.369	24429
839.506	24551
839.643	24410
839.781	24300
839.918	24182
840.055	24171
840.193	24045
840.33	24178
840.467	24117
840.604	24117
840.742	24578
840.879	23996
841.016	24194
841.153	24022
841.29	24262
841.427	24220
841.564	24171
841.701	24167
841.838	24011
841.975	23996
842.112	23916
842.249	23931
842.385	23950
842.522	24125
842.659	23973
842.796	23965
842.933	23878
843.069	23805
843.206	23767
843.343	23870
843.479	23851
843.616	23912
843.752	23676
843.889	23779
844.025	23824
844.162	23589
844.298	23745
844.435	23691
844.571	23638
844.708	23824
844.844	23851
844.98	23729
845.117	23767
845.253	23729
845.389	23649
845.525	23608
845.661	23547
845.798	23505
845.934	23356
846.07	23349
846.206	23402
846.342	23478
846.478	23277
846.614	23151
846.75	23090
846.886	23064
847.022	23022
847.158	23220
847.294	23048
847.429	23014
847.565	23151
847.701	23307
847.837	22873
847.972	22733
848.108	23048
848.244	22900
848.379	22862
848.515	22786
848.65	22691
848.786	22748
848.921	22725
849.057	22869
849.192	22900
849.328	22812
849.463	22752
849.598	22679
849.734	22660
849.869	22584
850.004	22474
850.14	22493
850.275	22512
850.41	22432
850.545	22398
850.68	22500
850.815	22535
850.95	22485
851.085	22683
851.22	22607
851.355	22531
851.49	22428
851.625	22523
851.76	22607
851.895	22447
852.03	22443
852.165	22455
852.299	22508
852.434	22687
852.569	22546
852.703	22565
852.838	22565
852.973	22599
853.107	22607
853.242	22481
853.376	22360
853.511	22200
853.645	22249
853.78	22459
853.914	22287
854.048	22219
854.183	22318
854.317	22356
854.451	22405
854.585	22333
854.72	22367
854.854	22341
854.988	22200
855.122	22318
855.256	22215
855.39	22230
855.524	22287
855.658	22341
855.792	22287
855.926	22402
856.06	22348
856.194	22413
856.327	22181
856.461	22173
856.595	22242
856.729	22219
856.862	22367
856.996	22367
857.13	22276
857.263	22474
857.397	22371
857.53	22299
857.664	22314
857.797	22497
857.931	22417
858.064	22310
858.197	22398
858.331	22276
858.464	22261
858.597	22215
858.731	22280
858.864	22234
858.997	22242
859.13	22356
859.263	22276
859.396	22382
859.529	22333
859.662	22150
859.795	22257
859.928	22261
860.061	22348
860.194	22573
860.327	22371
860.46	22215
860.592	22443
860.725	22455
860.858	22375
860.99	22375
861.123	22280
861.256	22341
861.388	22356
861.521	23147
861.653	22154
861.786	22128
861.918	22055
862.05	22154
862.183	22246
862.315	22162
862.447	22272
862.58	22204
862.712	22055
862.844	22021
862.976	22021
863.108	22051
863.24	22565
863.372	21838
863.504	22032
863.636	21994
863.768	22101
863.9	21994
864.032	21949
864.164	22044
864.296	22097
864.428	22154
864.559	22124
864.691	21964
864.823	21880
864.954	21934
865.086	22013
865.217	21937
865.349	21755
865.48	21854
865.612	21934
865.743	22002
865.875	21838
866.006	21880
866.137	21781
866.269	21823
866.4	21865
866.531	21774
866.662	21778
866.793	21823
866.924	21846
867.055	21865
867.186	21861
867.317	21812
867.448	21755
867.579	21831
867.71	21671
867.841	21698
867.972	21857
868.103	21774
868.233	21816
868.364	21770
868.495	22029
868.625	22040
868.756	22139
868.886	21903
869.017	22017
869.147	22070
869.278	22116
869.408	22040
869.539	22120
869.669	22025
869.799	22215
869.929	22101
870.06	22268
870.19	22352
870.32	22276
870.45	22367
870.58	22596
870.71	22573
870.84	22557
870.97	22413
871.1	22443
871.23	22611
871.36	22706
871.489	22470
871.619	22653
871.749	22645
871.879	22752
872.008	22771
872.138	22721
872.267	22611
872.397	22599
872.526	22440
872.656	22455
872.785	22436
872.915	22664
873.044	22801
873.173	22569
873.303	22816
873.432	22649
873.561	22736
873.69	22683
873.819	22622
873.948	22710
874.077	22698
874.206	22656
874.335	22725
874.464	22725
874.593	22919
874.722	22831
874.851	22938
874.979	22934
875.108	22866
875.237	22786
875.365	22801
875.494	22923
875.623	22991
875.751	22790
875.88	22816
876.008	22999
876.136	23014
876.265	23235
876.393	23440
876.521	23269
876.65	23383
876.778	23258
876.906	23147
877.034	23284
877.162	23128
877.29	23166
877.418	23235
877.546	23254
877.674	23162
877.802	23212
877.93	23280
878.058	23178
878.185	23094
878.313	23109
878.441	23204
878.568	23006
878.696	23170
878.824	23307
878.951	23189
879.079	23509
879.206	23524
879.333	23337
879.461	23220
879.588	23421
879.715	23360
879.842	23436
879.97	23235
880.097	23029
880.224	22980
880.351	23075
880.478	22961
880.605	22957
880.732	22972
880.859	23284
880.986	22980
881.112	23025
881.239	22934
881.366	22713
881.493	22630
881.619	22531
881.746	22641
881.872	22615
881.999	22565
882.125	22596
882.252	22580
882.378	22569
882.505	22630
882.631	22565
882.757	22268
882.883	22291
883.01	22329
883.136	22371
883.262	22253
883.388	22105
883.514	22234
883.64	22421
883.766	22291
883.892	22044
884.018	22105
884.143	22181
884.269	22341
884.395	21994
884.52	21918
884.646	21907
884.772	21819
884.897	21759
885.023	21884
885.148	21911
885.274	22051
885.399	22082
885.524	21937
885.65	21964
885.775	21926
885.9	21956
886.025	21998
886.15	21960
886.275	21827
886.4	21861
886.525	21888
886.65	21770
886.775	21831
886.9	22112
887.025	22188
887.149	21911
887.274	21686
887.399	21690
887.523	21732
887.648	21633
887.773	21564
887.897	21709
888.021	21675
888.146	21542
888.27	21694
888.395	21728
888.519	21789
888.643	21842
888.767	21766
888.891	21595
889.015	21416
889.139	21477
889.263	21325
889.387	21572
889.511	21652
889.635	21553
889.759	21348
889.883	21378
890.006	21606
890.13	21534
890.254	21317
890.377	21542
890.501	21146
890.624	21233
890.748	21188
890.871	21070
890.995	21001
891.118	20899
891.241	20998
891.364	21047
891.488	21116
891.611	21089
891.734	20975
891.857	21047
891.98	20971
892.103	21013
892.226	21028
892.349	21085
892.471	20796
892.594	20853
892.717	20971
892.839	20887
892.962	20990
893.085	20967
893.207	20826
893.33	20716
893.452	20754
893.575	20986
893.697	20842
893.819	21051
893.941	21043
894.064	21024
894.186	20819
894.308	20861
894.43	21066
894.552	21039
894.674	21005
894.796	20727
894.918	20849
895.04	20838
895.161	21077
895.283	20963
895.405	20895
895.526	20823
895.648	20933
895.769	20960
895.891	20948
896.012	20906
896.134	20876
896.255	20823
896.376	20845
896.498	20777
896.619	20937
896.74	20883
896.861	20910
896.982	21226
897.103	21245
897.224	21165
897.345	21017
897.466	21104
897.587	21032
897.708	21283
897.828	21154
897.949	21055
898.07	20902
898.19	21039
898.311	21058
898.431	21055
898.552	21108
898.672	21188
898.792	21199
898.913	21058
899.033	20990
899.153	20842
899.273	20644
899.393	20746
899.513	20826
899.633	20788
899.753	20876
899.873	20724
899.993	20845
900.113	20765
900.232	20849
900.352	20701
900.472	20670
900.591	20629
900.711	20693
900.83	20629
900.95	20670
901.069	20796
901.189	20507
901.308	20332
901.427	20244
901.546	20187
901.665	20161
901.784	20263
901.904	19993
902.023	20020
902.141	19761
902.26	19780
902.379	19803
902.498	19708
902.617	19601
902.735	19658
902.854	19772
902.973	19658
903.091	19449
903.21	19422
903.328	19308
903.446	19297
903.565	19114
903.683	19088
903.801	19069
903.919	19072
904.038	19046
904.156	18951
904.274	18996
904.392	18791
904.51	18821
904.627	18844
904.745	18897
904.863	18958
904.981	18745
905.098	18525
905.216	18597
905.334	18650
905.451	18525
905.569	18540
905.686	18646
905.803	18551
905.921	18456
906.038	18418
906.155	18334
906.272	18258
906.389	18300
906.506	18182
906.623	18102
906.74	18121
906.857	18049
906.974	18015
907.091	18068
907.208	18182
907.324	18213
907.441	17965
907.557	17847
907.674	17790
907.79	17733
907.907	17764
908.023	17786
908.139	17790
908.256	17680
908.372	17745
908.488	17676
908.604	17691
908.72	17600
908.836	17497
908.952	17516
909.068	17532
909.184	17703
909.3	17562
909.415	17615
909.531	17573
909.647	17208
909.762	17273
909.878	17216
909.993	17246
910.108	17071
910.224	17204
910.339	17193
910.454	17132
910.57	17060
910.685	16934
910.8	17227
910.915	17136
911.03	16999
911.145	16869
911.259	16889
911.374	16850
911.489	16698
911.604	16691
911.718	16592
911.833	16512
911.947	16424
912.062	16451
912.176	16508
912.291	16508
912.405	16512
912.519	16793
912.633	16755
912.748	16550
912.862	16546
912.976	16371
913.09	16162
913.204	16284
913.318	16421
913.431	16508
913.545	16405
913.659	16459
913.772	16253
913.886	16215
914	16093
914.113	16230
914.226	16238
914.34	16143
914.453	16032
914.566	16109
914.68	16029
914.793	15994
914.906	15747
915.019	15724
915.132	15603
915.245	15812
915.358	15827
915.47	15660
915.583	15690
915.696	15774
915.809	15800
915.921	15827
916.034	15690
916.146	15637
916.259	15603
916.371	15629
916.483	15660
916.595	15511
916.708	15519
916.82	15515
916.932	15568
917.044	15397
917.156	15424
917.268	15458
917.38	15329
917.491	15317
917.603	15386
917.715	15454
917.826	15454
917.938	15306
918.049	15188
918.161	15207
918.272	15469
918.384	15397
918.495	15294
918.606	15146
918.717	15043
918.828	15119
918.939	15165
919.05	15001
919.161	15173
919.272	14967
919.383	14910
919.494	15150
919.604	15340
919.715	15081
919.826	14918
919.936	15013
920.047	15077
920.157	15127
920.267	15336
920.378	15024
920.488	15013
920.598	15279
920.708	15351
920.818	15176
920.928	15230
921.038	15256
921.148	15233
921.258	15024
921.368	14861
921.477	14842
921.587	14796
921.697	14644
921.806	14849
921.916	14613
922.025	14450
922.134	14400
922.244	14396
922.353	14552
922.462	14313
922.571	14267
922.68	14084
922.789	14043
922.898	14069
923.007	14054
923.116	14077
923.224	13982
923.333	13986
923.442	13951
923.55	13769
923.659	13837
923.767	13963
923.876	13811
923.984	13955
924.092	13712
924.201	13830
924.309	13753
924.417	13750
924.525	13677
924.633	13723
924.741	14461
924.849	13464
924.956	13590
925.064	13438
925.172	13381
925.279	13362
925.387	13464
925.494	13464
925.602	13578
925.709	13525
925.816	13365
925.924	13324
926.031	13419
926.138	13445
926.245	13369
926.352	13255
926.459	13384
926.566	13365
926.673	13285
926.779	13293
926.886	13206
926.993	13019
927.099	13038
927.206	12935
927.312	12954
927.419	12996
927.525	13023
927.631	13027
927.737	12928
927.843	12890
927.95	12642
928.056	12787
928.162	12760
928.267	12852
928.373	13285
928.479	12867
928.585	12654
928.69	12825
928.796	12795
928.901	12654
929.007	12566
929.112	12665
929.218	12616
929.323	12597
929.428	12483
929.533	12578
929.638	12490
929.743	12494
929.848	12582
929.953	12365
930.058	12376
930.163	12186
930.267	12220
930.372	12319
930.477	12133
930.581	12426
930.685	12213
930.79	12022
930.894	12140
930.998	12022
931.103	12114
931.207	11847
931.311	11737
931.415	11672
931.519	11379
931.623	11353
