Data from test_V78500241_3705.txt Node
Date: Fri Mar 25 16:07:28 CST 2022
User: usil
Spectrometer: V785-0024
Trigger mode: 0
Integration Time (sec): 4.000000E-1
Scans to average: 1
Nonlinearity correction enabled: false
Boxcar width: 0
Storing dark spectrum: false
XAxis mode: Wavelengths
Number of Pixels in Spectrum: 1024
>>>>>Begin Spectral Data<<<<<
801.071	28455
801.214	28398
801.356	28105
801.499	28040
801.641	27892
801.783	27857
801.926	28124
802.068	27869
802.211	27945
802.353	27979
802.496	27743
802.638	27717
802.78	27736
802.923	27519
803.065	27477
803.208	27591
803.35	27644
803.492	27827
803.635	27854
803.777	27663
803.919	27930
804.061	28135
804.204	27979
804.346	27823
804.488	27747
804.63	27789
804.773	27762
804.915	27956
805.057	27911
805.199	27937
805.341	28025
805.483	28055
805.626	27994
805.768	27979
805.91	27983
806.052	28246
806.194	28090
806.336	28124
806.478	27907
806.62	28101
806.762	28215
806.904	28299
807.046	28504
807.188	28409
807.33	28443
807.472	28607
807.614	28443
807.756	28394
807.898	28291
808.04	28219
808.182	28223
808.324	28405
808.465	28295
808.607	28417
808.749	28675
808.891	28847
809.033	28824
809.174	28805
809.316	28664
809.458	28691
809.6	28615
809.741	28771
809.883	28828
810.025	29105
810.166	29098
810.308	28965
810.45	28930
810.591	28972
810.733	28923
810.875	28828
811.016	28596
811.158	28630
811.299	28946
811.441	28828
811.582	28927
811.724	28713
811.865	28687
812.007	28797
812.148	28729
812.29	28733
812.431	28847
812.573	29018
812.714	29086
812.855	29239
812.997	29315
813.138	29459
813.279	29315
813.421	29292
813.562	29090
813.703	29003
813.845	28991
813.986	28767
814.127	28649
814.268	28462
814.41	28436
814.551	28363
814.692	28519
814.833	28447
814.974	28276
815.115	28413
815.256	28367
815.397	28242
815.539	28181
815.68	28291
815.821	28363
815.962	28295
816.103	28173
816.244	28131
816.385	27991
816.526	27983
816.666	27823
816.807	27701
816.948	27732
817.089	27835
817.23	27701
817.371	27709
817.512	27797
817.653	27667
817.793	27724
817.934	27675
818.075	27705
818.216	27774
818.356	27705
818.497	27523
818.638	27454
818.778	27469
818.919	27488
819.06	27519
819.2	27652
819.341	27827
819.481	27793
819.622	27911
819.762	28207
819.903	27941
820.043	27880
820.184	27914
820.324	27880
820.465	27987
820.605	27892
820.746	27781
820.886	27724
821.026	27857
821.167	27766
821.307	27880
821.447	27762
821.588	27671
821.728	27504
821.868	27488
822.008	27264
822.149	27165
822.289	27169
822.429	26883
822.569	26838
822.709	26906
822.849	26758
822.99	26796
823.13	26743
823.27	26708
823.41	26629
823.55	26374
823.69	26488
823.83	26590
823.97	26518
824.11	26305
824.25	26465
824.389	26347
824.529	26412
824.669	26408
824.809	26537
824.949	26423
825.089	26537
825.228	26351
825.368	26237
825.508	26142
825.648	26233
825.787	26267
825.927	26229
826.067	26191
826.206	26164
826.346	26195
826.485	26233
826.625	26244
826.765	26355
826.904	26377
827.044	26027
827.183	26153
827.323	26039
827.462	25925
827.601	25894
827.741	25940
827.88	25997
828.02	25845
828.159	25989
828.298	26050
828.437	26016
828.577	25803
828.716	26092
828.855	25898
828.994	25696
829.134	25624
829.273	25666
829.412	25647
829.551	25563
829.69	25651
829.829	25540
829.968	25712
830.107	25708
830.246	25540
830.385	25567
830.524	25639
830.663	25301
830.802	25438
830.941	25240
831.08	25164
831.219	25331
831.357	25350
831.496	25441
831.635	25255
831.774	25209
831.913	25122
832.051	25091
832.19	24985
832.329	24970
832.467	24856
832.606	24970
832.744	24909
832.883	25027
833.022	24863
833.16	24852
833.299	24905
833.437	24886
833.576	24966
833.714	24958
833.852	25164
833.991	24973
834.129	25148
834.267	25065
834.406	24875
834.544	25126
834.682	25084
834.821	25076
834.959	25027
835.097	24962
835.235	24985
835.373	24932
835.511	24943
835.65	24894
835.788	24802
835.926	24779
836.064	24681
836.202	24673
836.34	25031
836.478	24905
836.615	24745
836.753	24840
836.891	24810
837.029	24688
837.167	24821
837.305	24829
837.443	24764
837.58	24707
837.718	24764
837.856	24741
837.993	24772
838.131	24563
838.269	24509
838.406	24627
838.544	24437
838.681	24277
838.819	24205
838.956	24205
839.094	24140
839.231	24262
839.369	24292
839.506	24376
839.643	24426
839.781	24121
839.918	24148
840.055	24045
840.193	23999
840.33	23977
840.467	24110
840.604	24007
840.742	24197
840.879	23840
841.016	23939
841.153	23904
841.29	24117
841.427	24133
841.564	24060
841.701	24076
841.838	23999
841.975	23965
842.112	23980
842.249	23885
842.385	23745
842.522	23935
842.659	23901
842.796	23836
842.933	23680
843.069	23680
843.206	23767
843.343	23775
843.479	23752
843.616	23703
843.752	23482
843.889	23558
844.025	23790
844.162	23516
844.298	23611
844.435	23600
844.571	23516
844.708	23608
844.844	23790
844.98	23699
845.117	23604
845.253	23417
845.389	23433
845.525	23402
845.661	23402
845.798	23337
845.934	23341
846.07	23223
846.206	23391
846.342	23311
846.478	23261
846.614	22999
846.75	23052
846.886	22896
847.022	23105
847.158	22976
847.294	22961
847.429	23003
847.565	22991
847.701	23265
847.837	22755
847.972	22717
848.108	22809
848.244	22850
848.379	22596
848.515	22656
848.65	22542
848.786	22569
848.921	22641
849.057	22569
849.192	22645
849.328	22733
849.463	22557
849.598	22599
849.734	22478
849.869	22531
850.004	22394
850.14	22459
850.275	22322
850.41	22310
850.545	22280
850.68	22253
850.815	22344
850.95	22481
851.085	22596
851.22	22375
851.355	22459
851.49	22249
851.625	22287
851.76	22386
851.895	22268
852.03	22306
852.165	22371
852.299	22371
852.434	22413
852.569	22333
852.703	22367
852.838	22356
852.973	22466
853.107	22535
853.242	22390
853.376	22150
853.511	22135
853.645	22135
853.78	22348
853.914	22154
854.048	22230
854.183	22135
854.317	22242
854.451	22443
854.585	22280
854.72	22116
854.854	22363
854.988	22143
855.122	22185
855.256	22082
855.39	22173
855.524	22219
855.658	22173
855.792	22207
855.926	22310
856.06	22272
856.194	22272
856.327	22291
856.461	22097
856.595	22154
856.729	22211
856.862	22287
856.996	22230
857.13	22299
857.263	22379
857.397	22280
857.53	22162
857.664	22181
857.797	22261
857.931	22409
858.064	22261
858.197	22249
858.331	22112
858.464	22249
858.597	22029
858.731	22101
858.864	22135
858.997	22150
859.13	22295
859.263	22207
859.396	22306
859.529	22173
859.662	22112
859.795	22177
859.928	22150
860.061	22318
860.194	22390
860.327	22223
860.46	22303
860.592	22390
860.725	22363
860.858	22295
860.99	22329
861.123	22226
861.256	22147
861.388	22139
861.521	22828
861.653	22032
861.786	22105
861.918	21964
862.05	22010
862.183	22128
862.315	22070
862.447	22135
862.58	22067
862.712	21888
862.844	21903
862.976	21953
863.108	22025
863.24	22500
863.372	21892
863.504	22036
863.636	21911
863.768	21991
863.9	21873
864.032	21861
864.164	21816
864.296	21861
864.428	21857
864.559	21911
864.691	21968
864.823	21953
864.954	21823
865.086	21835
865.217	21819
865.349	21671
865.48	21800
865.612	21785
865.743	21842
865.875	21808
866.006	21819
866.137	21793
866.269	21755
866.4	21641
866.531	21720
866.662	21694
866.793	21736
866.924	21759
867.055	21698
867.186	21785
867.317	21667
867.448	21583
867.579	21644
867.71	21587
867.841	21591
867.972	21785
868.103	21705
868.233	21781
868.364	21736
868.495	21861
868.625	21911
868.756	22166
868.886	21979
869.017	22013
869.147	22025
869.278	22139
869.408	22029
869.539	21903
869.669	22067
869.799	21926
869.929	22143
870.06	22010
870.19	22295
870.32	22226
870.45	22382
870.58	22303
870.71	22394
870.84	22421
870.97	22253
871.1	22428
871.23	22436
871.36	22596
871.489	22497
871.619	22577
871.749	22622
871.879	22603
872.008	22725
872.138	22561
872.267	22557
872.397	22371
872.526	22314
872.656	22462
872.785	22386
872.915	22546
873.044	22752
873.173	22550
873.303	22542
873.432	22710
873.561	22653
873.69	22622
873.819	22596
873.948	22557
874.077	22596
874.206	22519
874.335	22500
874.464	22801
874.593	22877
874.722	22687
874.851	22782
874.979	22847
875.108	22866
875.237	22805
875.365	22645
875.494	22911
875.623	22930
875.751	22744
875.88	22854
876.008	22942
876.136	22904
876.265	23185
876.393	23261
876.521	23227
876.65	23341
876.778	23239
876.906	23231
877.034	23189
877.162	23086
877.29	23075
877.418	23235
877.546	23132
877.674	23140
877.802	23227
877.93	23117
878.058	23098
878.185	22987
878.313	23121
878.441	23216
878.568	22976
878.696	23067
878.824	23254
878.951	23143
879.079	23349
879.206	23539
879.333	23284
879.461	23250
879.588	23334
879.715	23280
879.842	23429
879.97	23220
880.097	23060
880.224	23041
880.351	23048
880.478	22999
880.605	22889
880.732	23003
880.859	23223
880.986	22968
881.112	23044
881.239	22767
881.366	22694
881.493	22622
881.619	22512
881.746	22626
881.872	22656
881.999	22618
882.125	22413
882.252	22618
882.378	22402
882.505	22573
882.631	22329
882.757	22253
882.883	22211
883.01	22196
883.136	22112
883.262	22078
883.388	22059
883.514	22219
883.64	22299
883.766	22074
883.892	21972
884.018	21953
884.143	22169
884.269	22238
884.395	21800
884.52	21793
884.646	21937
884.772	21899
884.897	21850
885.023	21922
885.148	21991
885.274	21934
885.399	21945
885.524	21770
885.65	21732
885.775	21793
885.9	21857
886.025	21907
886.15	21972
886.275	21732
886.4	21781
886.525	21701
886.65	21778
886.775	21770
886.9	21884
887.025	21998
887.149	21797
887.274	21705
887.399	21648
887.523	21656
887.648	21603
887.773	21561
887.897	21663
888.021	21629
888.146	21622
888.27	21759
888.395	21732
888.519	21675
888.643	21603
888.767	21595
888.891	21526
889.015	21420
889.139	21462
889.263	21393
889.387	21610
889.511	21568
889.635	21564
889.759	21389
889.883	21382
890.006	21408
890.13	21435
890.254	21329
890.377	21408
890.501	21173
890.624	21066
890.748	21249
890.871	21074
890.995	20887
891.118	20853
891.241	20994
891.364	21024
891.488	21036
891.611	20933
891.734	20960
891.857	21081
891.98	20883
892.103	21005
892.226	20960
892.349	20906
892.471	20735
892.594	20902
892.717	20948
892.839	20819
892.962	20800
893.085	20937
893.207	20910
893.33	20739
893.452	20750
893.575	20792
893.697	20819
893.819	20941
893.941	21112
894.064	21013
894.186	20762
894.308	20830
894.43	20887
894.552	20925
894.674	20979
894.796	20849
894.918	20750
895.04	20883
895.161	20918
895.283	20960
895.405	20765
895.526	20853
895.648	20815
895.769	20826
895.891	20823
896.012	20925
896.134	20906
896.255	20895
896.376	20769
896.498	20811
896.619	20857
896.74	20857
896.861	20861
896.982	21169
897.103	21351
897.224	21017
897.345	21081
897.466	21051
897.587	21032
897.708	21207
897.828	21001
897.949	20937
898.07	20864
898.19	20967
898.311	21089
898.431	20941
898.552	20876
898.672	21051
898.792	21165
898.913	21085
899.033	20963
899.153	20773
899.273	20826
899.393	20644
899.513	20944
899.633	20720
899.753	20864
899.873	20674
899.993	20800
900.113	20602
900.232	20735
900.352	20697
900.472	20663
900.591	20549
900.711	20408
900.83	20419
900.95	20579
901.069	20549
901.189	20370
901.308	20107
901.427	20062
901.546	19967
901.665	20138
901.784	20153
901.904	20008
902.023	19807
902.141	19662
902.26	19616
902.379	19704
902.498	19605
902.617	19563
902.735	19620
902.854	19525
902.973	19537
903.091	19343
903.21	19228
903.328	19221
903.446	19232
903.565	19091
903.683	19042
903.801	18905
903.919	18985
904.038	19000
904.156	18817
904.274	18913
904.392	18871
904.51	18875
904.627	18825
904.745	18825
904.863	18833
904.981	18563
905.098	18513
905.216	18551
905.334	18441
905.451	18559
905.569	18483
905.686	18642
905.803	18346
905.921	18361
906.038	18410
906.155	18353
906.272	18110
906.389	18270
906.506	17999
906.623	18060
906.74	17950
906.857	17996
906.974	17908
907.091	18106
907.208	18110
907.324	17931
907.441	17939
907.557	17722
907.674	17847
907.79	17687
907.907	17638
908.023	17733
908.139	17745
908.256	17649
908.372	17748
908.488	17718
908.604	17539
908.72	17478
908.836	17505
908.952	17452
909.068	17490
909.184	17570
909.3	17493
909.415	17478
909.531	17497
909.647	17193
909.762	17018
909.878	17098
909.993	17071
910.108	17140
910.224	17014
910.339	17159
910.454	17029
910.57	17003
910.685	16828
910.8	17121
910.915	17121
911.03	16991
911.145	16710
911.259	16710
911.374	16721
911.489	16660
911.604	16599
911.718	16481
911.833	16569
911.947	16375
912.062	16246
912.176	16542
912.291	16470
912.405	16577
912.519	16588
912.633	16588
912.748	16569
912.862	16428
912.976	16348
913.09	16272
913.204	16276
913.318	16261
913.431	16363
913.545	16356
913.659	16360
913.772	16306
913.886	16154
914	16128
914.113	16177
914.226	16257
914.34	16090
914.453	15930
914.566	16067
914.68	16044
914.793	15956
914.906	15766
915.019	15599
915.132	15568
915.245	15648
915.358	15618
915.47	15743
915.583	15679
915.696	15690
915.809	15800
915.921	15827
916.034	15644
916.146	15496
916.259	15610
916.371	15595
916.483	15637
916.595	15424
916.708	15435
916.82	15549
916.932	15412
917.044	15439
917.156	15393
917.268	15382
917.38	15386
917.491	15302
917.603	15313
917.715	15351
917.826	15332
917.938	15249
918.049	15112
918.161	15275
918.272	15401
918.384	15367
918.495	15184
918.606	14937
918.717	14971
918.828	15028
918.939	15131
919.05	15005
919.161	15074
919.272	14838
919.383	14708
919.494	15070
919.604	15085
919.715	14929
919.826	15009
919.936	14948
920.047	15032
920.157	14960
920.267	15146
920.378	15055
920.488	14982
920.598	15207
920.708	15321
920.818	15150
920.928	15131
921.038	15249
921.148	15294
921.258	14960
921.368	14845
921.477	14739
921.587	14651
921.697	14705
921.806	14629
921.916	14503
922.025	14404
922.134	14434
922.244	14218
922.353	14320
922.462	14229
922.571	14210
922.68	14008
922.789	13997
922.898	14065
923.007	13917
923.116	14046
923.224	14001
923.333	13989
923.442	13906
923.55	13803
923.659	13875
923.767	13928
923.876	13871
923.984	13890
924.092	13765
924.201	13807
924.309	13757
924.417	13841
924.525	13567
924.633	13784
924.741	14476
924.849	13480
924.956	13533
925.064	13472
925.172	13350
925.279	13403
925.387	13453
925.494	13362
925.602	13449
925.709	13449
925.816	13282
925.924	13308
926.031	13457
926.138	13388
926.245	13472
926.352	13274
926.459	13381
926.566	13365
926.673	13270
926.779	13126
926.886	13061
926.993	12939
927.099	12894
927.206	12897
927.312	12951
927.419	12958
927.525	12958
927.631	12913
927.737	12817
927.843	12802
927.95	12684
928.056	12749
928.162	12795
928.267	12730
928.373	13434
928.479	12856
928.585	12570
928.69	12722
928.796	12715
928.901	12563
929.007	12429
929.112	12601
929.218	12646
929.323	12540
929.428	12471
929.533	12547
929.638	12369
929.743	12445
929.848	12441
929.953	12395
930.058	12365
930.163	12140
930.267	12190
930.372	12315
930.477	12049
930.581	12353
930.685	12144
930.79	12015
930.894	12049
930.998	11980
931.103	12197
931.207	11760
931.311	11760
931.415	11619
931.519	11372
931.623	11341
