Data from test_V78500241_1976.txt Node
Date: Fri Mar 25 15:55:29 CST 2022
User: usil
Spectrometer: V785-0024
Trigger mode: 0
Integration Time (sec): 4.000000E-1
Scans to average: 1
Nonlinearity correction enabled: false
Boxcar width: 0
Storing dark spectrum: false
XAxis mode: Wavelengths
Number of Pixels in Spectrum: 1024
>>>>>Begin Spectral Data<<<<<
801.071	27545
801.214	27504
801.356	27344
801.499	27348
801.641	27051
801.783	27055
801.926	27169
802.068	27055
802.211	27039
802.353	26979
802.496	26815
802.638	26663
802.78	26773
802.923	26689
803.065	26644
803.208	26708
803.35	26678
803.492	26708
803.635	26895
803.777	26895
803.919	27051
804.061	27260
804.204	26960
804.346	26887
804.488	26918
804.63	26861
804.773	26918
804.915	27036
805.057	27081
805.199	26804
805.341	27043
805.483	27096
805.626	27062
805.768	27150
805.91	26929
806.052	27058
806.194	26971
806.336	27241
806.478	27104
806.62	26868
806.762	27093
806.904	27256
807.046	27580
807.188	27386
807.33	27427
807.472	27378
807.614	27473
807.756	27454
807.898	27252
808.04	27332
808.182	27283
808.324	27405
808.465	27420
808.607	27492
808.749	27709
808.891	27770
809.033	27873
809.174	27816
809.316	27523
809.458	27679
809.6	27705
809.741	27766
809.883	27759
810.025	28051
810.166	27968
810.308	27941
810.45	27804
810.591	27686
810.733	27698
810.875	27580
811.016	27561
811.158	27523
811.299	27682
811.441	27751
811.582	27861
811.724	27705
811.865	27633
812.007	27599
812.148	27564
812.29	27732
812.431	27679
812.573	27850
812.714	27975
812.855	28173
812.997	28238
813.138	28405
813.279	28356
813.421	28276
813.562	28166
813.703	27975
813.845	27804
813.986	27553
814.127	27378
814.268	27336
814.41	27344
814.551	27138
814.692	27427
814.833	27249
814.974	27397
815.115	27317
815.256	27298
815.397	27325
815.539	27135
815.68	27150
815.821	27169
815.962	27024
816.103	27123
816.244	26944
816.385	26861
816.526	26739
816.666	26712
816.807	26613
816.948	26682
817.089	26533
817.23	26594
817.371	26625
817.512	26606
817.653	26674
817.793	26446
817.934	26587
818.075	26571
818.216	26537
818.356	26484
818.497	26431
818.638	26320
818.778	26476
818.919	26442
819.06	26320
819.2	26434
819.341	26560
819.481	26743
819.622	26705
819.762	26804
819.903	26823
820.043	26853
820.184	26750
820.324	26682
820.465	26731
820.605	26663
820.746	26560
820.886	26476
821.026	26701
821.167	26609
821.307	26705
821.447	26613
821.588	26594
821.728	26317
821.868	26278
822.008	26039
822.149	26183
822.289	26172
822.429	25765
822.569	25925
822.709	25662
822.849	25525
822.99	25746
823.13	25521
823.27	25529
823.41	25556
823.55	25263
823.69	25308
823.83	25320
823.97	25377
824.11	25198
824.25	25187
824.389	25137
824.529	25388
824.669	25228
824.809	25251
824.949	25228
825.089	25297
825.228	25156
825.368	25072
825.508	25050
825.648	25034
825.787	25141
825.927	25107
826.067	25015
826.206	24943
826.346	25190
826.485	25095
826.625	24992
826.765	25114
826.904	25103
827.044	24901
827.183	24844
827.323	24882
827.462	24776
827.601	24673
827.741	24772
827.88	24627
828.02	24578
828.159	24745
828.298	24734
828.437	24741
828.577	24719
828.716	24848
828.855	24635
828.994	24490
829.134	24479
829.273	24410
829.412	24464
829.551	24372
829.69	24350
829.829	24479
829.968	24376
830.107	24604
830.246	24475
830.385	24327
830.524	24300
830.663	24277
830.802	24144
830.941	24102
831.08	24053
831.219	24022
831.357	24095
831.496	24300
831.635	23969
831.774	23870
831.913	23920
832.051	23855
832.19	23897
832.329	23836
832.467	23832
832.606	23604
832.744	23600
832.883	23737
833.022	23691
833.16	23821
833.299	23752
833.437	23748
833.576	23756
833.714	23824
833.852	23802
833.991	23798
834.129	23783
834.267	23863
834.406	23596
834.544	23756
834.682	23817
834.821	23764
834.959	23885
835.097	23729
835.235	23863
835.373	23687
835.511	23687
835.65	23684
835.788	23672
835.926	23577
836.064	23486
836.202	23360
836.34	23608
836.478	23737
836.615	23634
836.753	23653
836.891	23687
837.029	23657
837.167	23551
837.305	23668
837.443	23505
837.58	23463
837.718	23528
837.856	23478
837.993	23452
838.131	23478
838.269	23322
838.406	23303
838.544	23299
838.681	23200
838.819	23113
838.956	22987
839.094	22942
839.231	22942
839.369	23193
839.506	23292
839.643	23071
839.781	22995
839.918	22946
840.055	22949
840.193	22915
840.33	22843
840.467	22984
840.604	22889
840.742	23022
840.879	22847
841.016	22755
841.153	22854
841.29	22877
841.427	22900
841.564	22847
841.701	22919
841.838	22816
841.975	22736
842.112	22831
842.249	22607
842.385	22675
842.522	22824
842.659	22771
842.796	22630
842.933	22618
843.069	22611
843.206	22557
843.343	22618
843.479	22653
843.616	22599
843.752	22417
843.889	22443
844.025	22565
844.162	22466
844.298	22519
844.435	22424
844.571	22367
844.708	22519
844.844	22584
844.98	22519
845.117	22386
845.253	22382
845.389	22310
845.525	22234
845.661	22215
845.798	22238
845.934	22242
846.07	22116
846.206	22128
846.342	22177
846.478	22109
846.614	21899
846.75	21873
846.886	21789
847.022	21983
847.158	21755
847.294	21907
847.429	21972
847.565	21789
847.701	22097
847.837	21660
847.972	21618
848.108	21625
848.244	21682
848.379	21473
848.515	21488
848.65	21477
848.786	21408
848.921	21420
849.057	21534
849.192	21485
849.328	21462
849.463	21412
849.598	21469
849.734	21348
849.869	21313
850.004	21165
850.14	21313
850.275	21218
850.41	21195
850.545	20998
850.68	21131
850.815	21180
850.95	21146
851.085	21367
851.22	21351
851.355	21154
851.49	21211
851.625	21195
851.76	21169
851.895	21066
852.03	21127
852.165	21325
852.299	21287
852.434	21252
852.569	21249
852.703	21157
852.838	21325
852.973	21340
853.107	21329
853.242	21279
853.376	21055
853.511	20998
853.645	21032
853.78	21123
853.914	21047
854.048	20971
854.183	21104
854.317	21096
854.451	21142
854.585	21062
854.72	20971
854.854	21005
854.988	20937
855.122	20937
855.256	20998
855.39	21077
855.524	21112
855.658	21032
855.792	21043
855.926	21142
856.06	21169
856.194	21089
856.327	21013
856.461	20929
856.595	21055
856.729	20971
856.862	21233
856.996	21173
857.13	21119
857.263	21112
857.397	21093
857.53	21077
857.664	21047
857.797	21135
857.931	21165
858.064	21074
858.197	21100
858.331	21001
858.464	20944
858.597	20941
858.731	21085
858.864	20883
858.997	21047
859.13	21104
859.263	20994
859.396	21005
859.529	21142
859.662	20956
859.795	21085
859.928	21039
860.061	21249
860.194	21241
860.327	21100
860.46	20902
860.592	21161
860.725	21203
860.858	21077
860.99	20925
861.123	21024
861.256	21013
861.388	21032
861.521	21831
861.653	20906
861.786	20842
861.918	20902
862.05	20845
862.183	21036
862.315	20986
862.447	20994
862.58	21043
862.712	20716
862.844	20682
862.976	20819
863.108	20826
863.24	21256
863.372	20705
863.504	20762
863.636	20838
863.768	20667
863.9	20769
864.032	20735
864.164	20720
864.296	20750
864.428	20899
864.559	20739
864.691	20724
864.823	20689
864.954	20765
865.086	20769
865.217	20678
865.349	20530
865.48	20697
865.612	20670
865.743	20804
865.875	20689
866.006	20655
866.137	20606
866.269	20674
866.4	20629
866.531	20526
866.662	20438
866.793	20476
866.924	20552
867.055	20617
867.186	20716
867.317	20625
867.448	20606
867.579	20556
867.71	20549
867.841	20526
867.972	20693
868.103	20606
868.233	20613
868.364	20583
868.495	20731
868.625	20765
868.756	20929
868.886	20773
869.017	20864
869.147	21081
869.278	20925
869.408	20891
869.539	20868
869.669	20941
869.799	20925
869.929	20914
870.06	20910
870.19	21214
870.32	21154
870.45	21348
870.58	21157
870.71	21329
870.84	21310
870.97	21420
871.1	21321
871.23	21412
871.36	21469
871.489	21359
871.619	21454
871.749	21374
871.879	21534
872.008	21561
872.138	21416
872.267	21656
872.397	21329
872.526	21351
872.656	21192
872.785	21370
872.915	21477
873.044	21580
873.173	21587
873.303	21553
873.432	21568
873.561	21610
873.69	21656
873.819	21618
873.948	21424
874.077	21542
874.206	21473
874.335	21454
874.464	21633
874.593	21747
874.722	21591
874.851	21728
874.979	21743
875.108	21762
875.237	21736
875.365	21633
875.494	21679
875.623	21747
875.751	21800
875.88	21766
876.008	21888
876.136	21884
876.265	22166
876.393	22154
876.521	22101
876.65	22162
876.778	22158
876.906	22055
877.034	22131
877.162	22082
877.29	21975
877.418	22063
877.546	22154
877.674	22067
877.802	22051
877.93	22025
878.058	22040
878.185	21934
878.313	21953
878.441	22124
878.568	21972
878.696	21975
878.824	22093
878.951	22192
879.079	22306
879.206	22443
879.333	22226
879.461	22169
879.588	22150
879.715	22226
879.842	22360
879.97	22086
880.097	21994
880.224	21953
880.351	21975
880.478	22040
880.605	21835
880.732	21888
880.859	22204
880.986	21915
881.112	21956
881.239	21774
881.366	21614
881.493	21519
881.619	21450
881.746	21485
881.872	21583
881.999	21439
882.125	21443
882.252	21549
882.378	21549
882.505	21549
882.631	21230
882.757	21188
882.883	21127
883.01	21222
883.136	21081
883.262	21077
883.388	20994
883.514	21214
883.64	21195
883.766	21199
883.892	21119
884.018	20891
884.143	21089
884.269	21199
884.395	20902
884.52	20807
884.646	20902
884.772	20849
884.897	20811
885.023	20849
885.148	20773
885.274	20944
885.399	21036
885.524	20876
885.65	20807
885.775	20834
885.9	20758
886.025	20826
886.15	20921
886.275	20849
886.4	20842
886.525	20849
886.65	20758
886.775	20731
886.9	20937
887.025	21070
887.149	20815
887.274	20655
887.399	20773
887.523	20590
887.648	20579
887.773	20518
887.897	20594
888.021	20636
888.146	20461
888.27	20644
888.395	20636
888.519	20648
888.643	20625
888.767	20640
888.891	20457
889.015	20442
889.139	20381
889.263	20492
889.387	20564
889.511	20621
889.635	20613
889.759	20385
889.883	20381
890.006	20454
890.13	20594
890.254	20355
890.377	20434
890.501	20195
890.624	20149
890.748	20244
890.871	20119
890.995	20001
891.118	19871
891.241	20020
891.364	19959
891.488	20065
891.611	19989
891.734	19982
891.857	19982
891.98	19963
892.103	19913
892.226	19928
892.349	20027
892.471	19917
892.594	19841
892.717	19879
892.839	19811
892.962	19974
893.085	20005
893.207	19917
893.33	19849
893.452	19917
893.575	19928
893.697	19818
893.819	20168
893.941	19986
894.064	20031
894.186	19769
894.308	19871
894.43	19860
894.552	20016
894.674	20035
894.796	19864
894.918	19906
895.04	19837
895.161	19932
895.283	20005
895.405	19830
895.526	19925
895.648	19928
895.769	19963
895.891	19936
896.012	19955
896.134	19913
896.255	19871
896.376	19875
896.498	19993
896.619	20008
896.74	19902
896.861	19913
896.982	20195
897.103	20294
897.224	20073
897.345	20081
897.466	20115
897.587	20062
897.708	20275
897.828	20134
897.949	20024
898.07	20016
898.19	20046
898.311	20298
898.431	19974
898.552	20103
898.672	20305
898.792	20221
898.913	20164
899.033	19936
899.153	19894
899.273	19795
899.393	19826
899.513	19951
899.633	19970
899.753	19917
899.873	19811
899.993	19890
900.113	19719
900.232	19803
900.352	19753
900.472	19761
900.591	19693
900.711	19658
900.83	19632
900.95	19750
901.069	19719
901.189	19514
901.308	19350
901.427	19225
901.546	19282
901.665	19320
901.784	19301
901.904	18973
902.023	19012
902.141	18795
902.26	18764
902.379	18760
902.498	18814
902.617	18639
902.735	18867
902.854	18810
902.973	18684
903.091	18467
903.21	18418
903.328	18426
903.446	18353
903.565	18327
903.683	18277
903.801	18186
903.919	18220
904.038	18220
904.156	17946
904.274	17946
904.392	18083
904.51	18019
904.627	17965
904.745	18091
904.863	18068
904.981	17836
905.098	17752
905.216	17570
905.334	17653
905.451	17699
905.569	17726
905.686	17695
905.803	17764
905.921	17372
906.038	17604
906.155	17474
906.272	17398
906.389	17356
906.506	17223
906.623	17299
906.74	17273
906.857	17060
906.974	17136
907.091	17269
907.208	17398
907.324	17303
907.441	17060
907.557	17022
907.674	17022
907.79	16919
907.907	16984
908.023	16923
908.139	16885
908.256	16847
908.372	16869
908.488	16797
908.604	16729
908.72	16649
908.836	16672
908.952	16774
909.068	16691
909.184	16759
909.3	16637
909.415	16618
909.531	16691
909.647	16409
909.762	16394
909.878	16329
909.993	16371
910.108	16310
910.224	16280
910.339	16280
910.454	16230
910.57	16116
910.685	16147
910.8	16329
910.915	16421
911.03	16192
911.145	15838
911.259	16006
911.374	16002
911.489	15823
911.604	15838
911.718	15736
911.833	15690
911.947	15637
912.062	15488
912.176	15755
912.291	15743
912.405	15736
912.519	15915
912.633	15903
912.748	15732
912.862	15618
912.976	15526
913.09	15386
913.204	15599
913.318	15545
913.431	15595
913.545	15603
913.659	15622
913.772	15515
913.886	15351
914	15370
914.113	15424
914.226	15359
914.34	15405
914.453	15165
914.566	15405
914.68	15169
914.793	15089
914.906	15020
915.019	14948
915.132	14853
915.245	14910
915.358	14944
915.47	14967
915.583	14941
915.696	15036
915.809	15070
915.921	15062
916.034	14830
916.146	14815
916.259	14796
916.371	14914
916.483	14880
916.595	14792
916.708	14781
916.82	14826
916.932	14720
917.044	14705
917.156	14746
917.268	14564
917.38	14590
917.491	14556
917.603	14587
917.715	14724
917.826	14693
917.938	14495
918.049	14374
918.161	14564
918.272	14648
918.384	14621
918.495	14511
918.606	14370
918.717	14351
918.828	14419
918.939	14412
919.05	14244
919.161	14294
919.272	14233
919.383	14221
919.494	14381
919.604	14514
919.715	14419
919.826	14263
919.936	14248
920.047	14431
920.157	14313
920.267	14552
920.378	14343
920.488	14218
920.598	14446
920.708	14625
920.818	14476
920.928	14419
921.038	14674
921.148	14602
921.258	14324
921.368	14176
921.477	14199
921.587	14096
921.697	13967
921.806	14081
921.916	13868
922.025	13689
922.134	13700
922.244	13643
922.353	13689
922.462	13662
922.571	13563
922.68	13411
922.789	13369
922.898	13411
923.007	13247
923.116	13415
923.224	13396
923.333	13381
923.442	13225
923.55	13202
923.659	13240
923.767	13221
923.876	13046
923.984	13240
924.092	13171
924.201	13179
924.309	13118
924.417	13046
924.525	13038
924.633	13069
924.741	13936
924.849	12833
924.956	12970
925.064	12745
925.172	12696
925.279	12734
925.387	12817
925.494	12764
925.602	12920
925.709	12802
925.816	12741
925.924	12768
926.031	12825
926.138	12700
926.245	12700
926.352	12696
926.459	12825
926.566	12734
926.673	12650
926.779	12574
926.886	12517
926.993	12479
927.099	12376
927.206	12304
927.312	12323
927.419	12414
927.525	12304
927.631	12380
927.737	12258
927.843	12159
927.95	12110
928.056	12171
928.162	12213
928.267	12232
928.373	12840
928.479	12319
928.585	12083
928.69	12167
928.796	12201
928.901	12057
929.007	11901
929.112	12060
929.218	12026
929.323	11969
929.428	11870
929.533	12003
929.638	11889
929.743	11836
929.848	11950
929.953	11863
930.058	11767
930.163	11611
930.267	11615
930.372	11783
930.477	11589
930.581	11809
930.685	11729
930.79	11478
930.894	11535
930.998	11478
931.103	11630
931.207	11250
931.311	11174
931.415	11067
931.519	10873
931.623	10816
