Data from test_V78500241_499.txt Node
Date: Fri Mar 25 15:45:15 CST 2022
User: usil
Spectrometer: V785-0024
Trigger mode: 0
Integration Time (sec): 4.000000E-1
Scans to average: 1
Nonlinearity correction enabled: false
Boxcar width: 0
Storing dark spectrum: false
XAxis mode: Wavelengths
Number of Pixels in Spectrum: 1024
>>>>>Begin Spectral Data<<<<<
801.071	27827
801.214	27728
801.356	27450
801.499	27435
801.641	27294
801.783	27241
801.926	27393
802.068	27241
802.211	27077
802.353	27173
802.496	27009
802.638	27024
802.78	26982
802.923	26990
803.065	26682
803.208	26868
803.35	26975
803.492	26948
803.635	27062
803.777	26982
803.919	27028
804.061	27325
804.204	27119
804.346	26902
804.488	27051
804.63	27089
804.773	27100
804.915	27009
805.057	27355
805.199	27104
805.341	27256
805.483	27188
805.626	27066
805.768	27066
805.91	27218
806.052	27161
806.194	27184
806.336	27359
806.478	27237
806.62	27325
806.762	27256
806.904	27348
807.046	27625
807.188	27614
807.33	27580
807.472	27641
807.614	27412
807.756	27686
807.898	27561
808.04	27496
808.182	27519
808.324	27420
808.465	27526
808.607	27774
808.749	27781
808.891	27880
809.033	28143
809.174	27953
809.316	27873
809.458	27854
809.6	27781
809.741	28059
809.883	28120
810.025	28169
810.166	28192
810.308	28150
810.45	28128
810.591	28086
810.733	27922
810.875	27911
811.016	27736
811.158	27804
811.299	27987
811.441	28196
811.582	27911
811.724	27831
811.865	27800
812.007	27728
812.148	27800
812.29	27808
812.431	27960
812.573	28185
812.714	28238
812.855	28497
812.997	28432
813.138	28668
813.279	28561
813.421	28413
813.562	28322
813.703	28204
813.845	28158
813.986	27819
814.127	27526
814.268	27534
814.41	27507
814.551	27443
814.692	27557
814.833	27439
814.974	27367
815.115	27477
815.256	27393
815.397	27340
815.539	27454
815.68	27336
815.821	27135
815.962	27287
816.103	27214
816.244	27127
816.385	27036
816.526	27241
816.666	26838
816.807	26663
816.948	26876
817.089	27017
817.23	26880
817.371	26765
817.512	26762
817.653	26781
817.793	26701
817.934	26746
818.075	26887
818.216	26895
818.356	26792
818.497	26720
818.638	26442
818.778	26674
818.919	26461
819.06	26545
819.2	26651
819.341	26724
819.481	26781
819.622	26979
819.762	27028
819.903	26929
820.043	26956
820.184	26975
820.324	26887
820.465	26853
820.605	27013
820.746	26918
820.886	26758
821.026	26906
821.167	26842
821.307	27028
821.447	26769
821.588	26613
821.728	26686
821.868	26469
822.008	26385
822.149	26275
822.289	26294
822.429	25978
822.569	25898
822.709	25849
822.849	25799
822.99	25742
823.13	25712
823.27	25693
823.41	25510
823.55	25400
823.69	25533
823.83	25556
823.97	25483
824.11	25457
824.25	25479
824.389	25392
824.529	25487
824.669	25384
824.809	25518
824.949	25468
825.089	25407
825.228	25411
825.368	25339
825.508	25282
825.648	25350
825.787	25434
825.927	25335
826.067	25232
826.206	25251
826.346	25270
826.485	25377
826.625	25362
826.765	25384
826.904	25141
827.044	24970
827.183	25023
827.323	25034
827.462	24954
827.601	25004
827.741	24985
827.88	24977
828.02	24863
828.159	24958
828.298	25099
828.437	24909
828.577	24920
828.716	25091
828.855	25046
828.994	24719
829.134	24719
829.273	24768
829.412	24631
829.551	24578
829.69	24741
829.829	24623
829.968	24848
830.107	24677
830.246	24650
830.385	24627
830.524	24631
830.663	24437
830.802	24467
830.941	24243
831.08	24114
831.219	24384
831.357	24414
831.496	24471
831.635	24277
831.774	24197
831.913	24076
832.051	24068
832.19	24049
832.329	24098
832.467	23958
832.606	23851
832.744	23908
832.883	23828
833.022	24030
833.16	23927
833.299	23977
833.437	23958
833.576	23939
833.714	23996
833.852	23996
833.991	24022
834.129	24121
834.267	24007
834.406	23942
834.544	23958
834.682	24072
834.821	24034
834.959	24091
835.097	23920
835.235	24060
835.373	24079
835.511	23942
835.65	23775
835.788	23889
835.926	23748
836.064	23756
836.202	23695
836.34	23764
836.478	23809
836.615	23828
836.753	23893
836.891	23790
837.029	23813
837.167	23893
837.305	23623
837.443	23596
837.58	23531
837.718	23703
837.856	23657
837.993	23558
838.131	23668
838.269	23585
838.406	23547
838.544	23501
838.681	23318
838.819	23307
838.956	23102
839.094	23086
839.231	23231
839.369	23322
839.506	23520
839.643	23330
839.781	23197
839.918	23162
840.055	23102
840.193	22984
840.33	23052
840.467	23086
840.604	23079
840.742	23421
840.879	22991
841.016	23060
841.153	22828
841.29	23124
841.427	23105
841.564	23060
841.701	23090
841.838	23041
841.975	23014
842.112	22835
842.249	22877
842.385	22793
842.522	23102
842.659	22908
842.796	22698
842.933	22774
843.069	22691
843.206	22729
843.343	22904
843.479	22812
843.616	22778
843.752	22615
843.889	22664
844.025	22660
844.162	22577
844.298	22660
844.435	22573
844.571	22542
844.708	22702
844.844	22710
844.98	22607
845.117	22752
845.253	22592
845.389	22481
845.525	22569
845.661	22504
845.798	22306
845.934	22333
846.07	22474
846.206	22314
846.342	22325
846.478	22318
846.614	22017
846.75	22029
846.886	22097
847.022	22211
847.158	22044
847.294	22010
847.429	22131
847.565	21975
847.701	22276
847.837	21739
847.972	21797
848.108	22070
848.244	21937
848.379	21747
848.515	21625
848.65	21633
848.786	21610
848.921	21652
849.057	21835
849.192	21827
849.328	21667
849.463	21652
849.598	21610
849.734	21561
849.869	21439
850.004	21507
850.14	21412
850.275	21424
850.41	21355
850.545	21363
850.68	21317
850.815	21397
850.95	21439
851.085	21545
851.22	21477
851.355	21397
851.49	21298
851.625	21374
851.76	21378
851.895	21283
852.03	21374
852.165	21458
852.299	21454
852.434	21549
852.569	21393
852.703	21447
852.838	21386
852.973	21389
853.107	21557
853.242	21310
853.376	21260
853.511	21108
853.645	21173
853.78	21378
853.914	21329
854.048	21214
854.183	21260
854.317	21237
854.451	21405
854.585	21119
854.72	21252
854.854	21237
854.988	21108
855.122	21325
855.256	21047
855.39	21180
855.524	21469
855.658	21340
855.792	21287
855.926	21192
856.06	21138
856.194	21374
856.327	21195
856.461	21214
856.595	21214
856.729	21138
856.862	21473
856.996	21340
857.13	21294
857.263	21359
857.397	21203
857.53	21195
857.664	21325
857.797	21150
857.931	21294
858.064	21317
858.197	21310
858.331	21123
858.464	21218
858.597	21116
858.731	21112
858.864	21222
858.997	21150
859.13	21176
859.263	21180
859.396	21264
859.529	21184
859.662	21188
859.795	21070
859.928	21203
860.061	21389
860.194	21367
860.327	21268
860.46	21252
860.592	21272
860.725	21389
860.858	21332
860.99	21279
861.123	21260
861.256	21093
861.388	21089
861.521	21918
861.653	21062
861.786	21062
861.918	21142
862.05	21214
862.183	21028
862.315	21135
862.447	21165
862.58	21226
862.712	20952
862.844	20986
862.976	21039
863.108	21058
863.24	21374
863.372	20864
863.504	20902
863.636	20944
863.768	21005
863.9	20902
864.032	20937
864.164	20853
864.296	20754
864.428	20944
864.559	20944
864.691	20937
864.823	20941
864.954	20872
865.086	20925
865.217	20857
865.349	20750
865.48	20716
865.612	20765
865.743	21028
865.875	20891
866.006	20667
866.137	20883
866.269	20754
866.4	20842
866.531	20697
866.662	20663
866.793	20705
866.924	20804
867.055	20781
867.186	20731
867.317	20712
867.448	20708
867.579	20693
867.71	20571
867.841	20731
867.972	20845
868.103	20602
868.233	20819
868.364	20785
868.495	20823
868.625	20876
868.756	21157
868.886	20868
869.017	21032
869.147	21100
869.278	21066
869.408	21005
869.539	20982
869.669	21089
869.799	21096
869.929	21104
870.06	21089
870.19	21260
870.32	21298
870.45	21226
870.58	21492
870.71	21545
870.84	21466
870.97	21389
871.1	21389
871.23	21428
871.36	21515
871.489	21561
871.619	21519
871.749	21629
871.879	21789
872.008	21770
872.138	21622
872.267	21454
872.397	21515
872.526	21458
872.656	21439
872.785	21458
872.915	21660
873.044	21667
873.173	21572
873.303	21530
873.432	21728
873.561	21766
873.69	21656
873.819	21618
873.948	21747
874.077	21538
874.206	21675
874.335	21675
874.464	21781
874.593	22010
874.722	21812
874.851	21850
874.979	21873
875.108	21915
875.237	21785
875.365	21812
875.494	21888
875.623	21873
875.751	21831
875.88	21751
876.008	21915
876.136	22010
876.265	22295
876.393	22310
876.521	22371
876.65	22413
876.778	22322
876.906	22291
877.034	22109
877.162	22200
877.29	22036
877.418	22124
877.546	22181
877.674	22150
877.802	22169
877.93	22101
878.058	22086
878.185	22044
878.313	22131
878.441	22223
878.568	22017
878.696	22109
878.824	22135
878.951	22348
879.079	22417
879.206	22519
879.333	22451
879.461	22177
879.588	22344
879.715	22402
879.842	22478
879.97	22253
880.097	21998
880.224	21964
880.351	22051
880.478	22025
880.605	21964
880.732	22101
880.859	22257
880.986	22128
881.112	21953
881.239	21827
881.366	21717
881.493	21599
881.619	21671
881.746	21698
881.872	21553
881.999	21534
882.125	21583
882.252	21637
882.378	21583
882.505	21759
882.631	21412
882.757	21367
882.883	21435
883.01	21370
883.136	21138
883.262	21138
883.388	21058
883.514	21310
883.64	21313
883.766	21222
883.892	21024
884.018	21192
884.143	21180
884.269	21329
884.395	21005
884.52	21032
884.646	21062
884.772	20838
884.897	20826
885.023	20986
885.148	20967
885.274	21112
885.399	21055
885.524	20800
885.65	21001
885.775	20952
885.9	20887
886.025	21112
886.15	20948
886.275	20823
886.4	20746
886.525	20914
886.65	20899
886.775	20857
886.9	21085
887.025	21055
887.149	20963
887.274	20830
887.399	20686
887.523	20686
887.648	20499
887.773	20564
887.897	20788
888.021	20712
888.146	20716
888.27	20800
888.395	20845
888.519	20773
888.643	20762
888.767	20754
888.891	20587
889.015	20537
889.139	20499
889.263	20374
889.387	20678
889.511	20762
889.635	20590
889.759	20511
889.883	20518
890.006	20438
890.13	20590
890.254	20374
890.377	20358
890.501	20221
890.624	20225
890.748	20351
890.871	20103
890.995	20008
891.118	20005
891.241	20092
891.364	20130
891.488	20187
891.611	19898
891.734	20088
891.857	20008
891.98	20084
892.103	20218
892.226	20100
892.349	20035
892.471	19849
892.594	20046
892.717	19890
892.839	19978
892.962	20054
893.085	20027
893.207	19913
893.33	19917
893.452	19959
893.575	20043
893.697	19986
893.819	20164
893.941	20202
894.064	20073
894.186	19822
894.308	19936
894.43	20050
894.552	20062
894.674	20115
894.796	19875
894.918	19963
895.04	19913
895.161	20008
895.283	20054
895.405	19913
895.526	19906
895.648	19951
895.769	19940
895.891	20024
896.012	20088
896.134	20092
896.255	19921
896.376	19978
896.498	19932
896.619	20054
896.74	20035
896.861	20100
896.982	20290
897.103	20545
897.224	20225
897.345	20233
897.466	20142
897.587	20317
897.708	20282
897.828	20187
897.949	20084
898.07	20031
898.19	20134
898.311	20202
898.431	20313
898.552	20218
898.672	20290
898.792	20362
898.913	20282
899.033	20111
899.153	19959
899.273	20001
899.393	19932
899.513	19932
899.633	19883
899.753	19993
899.873	19913
899.993	20062
900.113	19974
900.232	19902
900.352	19833
900.472	19814
900.591	19708
900.711	19742
900.83	19704
900.95	19830
901.069	19807
901.189	19651
901.308	19487
901.427	19430
901.546	19396
901.665	19472
901.784	19441
901.904	19202
902.023	19076
902.141	18973
902.26	18776
902.379	19080
902.498	18817
902.617	18856
902.735	18973
902.854	18821
902.973	18787
903.091	18585
903.21	18452
903.328	18490
903.446	18410
903.565	18334
903.683	18346
903.801	18232
903.919	18201
904.038	18235
904.156	18121
904.274	18076
904.392	17973
904.51	18072
904.627	18117
904.745	18159
904.863	18178
904.981	17882
905.098	17722
905.216	17638
905.334	17809
905.451	17802
905.569	17809
905.686	17760
905.803	17809
905.921	17566
906.038	17695
906.155	17581
906.272	17433
906.389	17497
906.506	17269
906.623	17315
906.74	17299
906.857	17143
906.974	17155
907.091	17337
907.208	17345
907.324	17303
907.441	17322
907.557	17064
907.674	17067
907.79	16854
907.907	16980
908.023	17014
908.139	16896
908.256	17075
908.372	16919
908.488	16854
908.604	16797
908.72	16759
908.836	16675
908.952	16698
909.068	16763
909.184	16824
909.3	16736
909.415	16839
909.531	16706
909.647	16360
909.762	16405
909.878	16398
909.993	16348
910.108	16322
910.224	16386
910.339	16413
910.454	16417
910.57	16253
910.685	16196
910.8	16443
910.915	16360
911.03	16173
911.145	15949
911.259	16048
911.374	15888
911.489	15937
911.604	15968
911.718	15873
911.833	15865
911.947	15766
912.062	15709
912.176	15781
912.291	15800
912.405	15717
912.519	16002
912.633	16002
912.748	15869
912.862	15713
912.976	15759
913.09	15454
913.204	15511
913.318	15557
913.431	15743
913.545	15690
913.659	15717
913.772	15679
913.886	15367
914	15359
914.113	15462
914.226	15454
914.34	15435
914.453	15321
914.566	15466
914.68	15085
914.793	15264
914.906	15100
915.019	15009
915.132	14967
915.245	14937
915.358	15055
915.47	15017
915.583	15066
915.696	15017
915.809	15055
915.921	15081
916.034	14952
916.146	14883
916.259	14902
916.371	15036
916.483	15013
916.595	14819
916.708	14781
916.82	14910
916.932	14941
917.044	14823
917.156	14648
917.268	14617
917.38	14636
917.491	14514
917.603	14758
917.715	14655
917.826	14758
917.938	14549
918.049	14659
918.161	14575
918.272	14644
918.384	14750
918.495	14651
918.606	14495
918.717	14358
918.828	14450
918.939	14507
919.05	14389
919.161	14393
919.272	14237
919.383	14233
919.494	14469
919.604	14617
919.715	14358
919.826	14324
919.936	14362
920.047	14366
920.157	14415
920.267	14579
920.378	14400
920.488	14446
920.598	14484
920.708	14640
920.818	14613
920.928	14438
921.038	14686
921.148	14610
921.258	14317
921.368	14351
921.477	14206
921.587	14138
921.697	14054
921.806	14088
921.916	13963
922.025	13894
922.134	13852
922.244	13719
922.353	13734
922.462	13647
922.571	13525
922.68	13487
922.789	13365
922.898	13441
923.007	13396
923.116	13392
923.224	13457
923.333	13343
923.442	13240
923.55	13255
923.659	13266
923.767	13335
923.876	13141
923.984	13335
924.092	13179
924.201	13141
924.309	13179
924.417	13183
924.525	13099
924.633	13072
924.741	13761
924.849	12886
924.956	13019
925.064	12943
925.172	12783
925.279	12863
925.387	12875
925.494	12837
925.602	12973
925.709	12985
925.816	12798
925.924	12703
926.031	13019
926.138	12757
926.245	12882
926.352	12734
926.459	12840
926.566	12886
926.673	12764
926.779	12662
926.886	12513
926.993	12460
927.099	12460
927.206	12346
927.312	12346
927.419	12486
927.525	12384
927.631	12467
927.737	12300
927.843	12273
927.95	12209
928.056	12209
928.162	12254
928.267	12289
928.373	12916
928.479	12296
928.585	12133
928.69	12159
928.796	12155
928.901	12186
929.007	11946
929.112	12121
929.218	12038
929.323	12045
929.428	11920
929.533	12019
929.638	11878
929.743	11908
929.848	12011
929.953	12038
930.058	11817
930.163	11756
930.267	11684
930.372	11809
930.477	11672
930.581	11775
930.685	11676
930.79	11577
930.894	11600
930.998	11474
931.103	11680
931.207	11223
931.311	11265
931.415	11151
931.519	10904
931.623	10984
