Data from test_V78500241_422.txt Node
Date: Fri Mar 25 15:44:43 CST 2022
User: usil
Spectrometer: V785-0024
Trigger mode: 0
Integration Time (sec): 4.000000E-1
Scans to average: 1
Nonlinearity correction enabled: false
Boxcar width: 0
Storing dark spectrum: false
XAxis mode: Wavelengths
Number of Pixels in Spectrum: 1024
>>>>>Begin Spectral Data<<<<<
801.071	29235
801.214	29166
801.356	28930
801.499	28957
801.641	28866
801.783	28809
801.926	28995
802.068	28733
802.211	28664
802.353	28519
802.496	28550
802.638	28481
802.78	28428
802.923	28432
803.065	28390
803.208	28428
803.35	28500
803.492	28569
803.635	28740
803.777	28512
803.919	28626
804.061	29025
804.204	28683
804.346	28645
804.488	28675
804.63	28622
804.773	28588
804.915	28744
805.057	28831
805.199	28774
805.341	28729
805.483	28869
805.626	28733
805.768	28698
805.91	28687
806.052	28793
806.194	28713
806.336	28976
806.478	28869
806.62	28976
806.762	28946
806.904	29056
807.046	29383
807.188	29269
807.33	29090
807.472	29383
807.614	29265
807.756	29227
807.898	29018
808.04	28980
808.182	29075
808.324	29155
808.465	29086
808.607	29368
808.749	29539
808.891	29589
809.033	29748
809.174	29707
809.316	29490
809.458	29551
809.6	29558
809.741	29547
809.883	29680
810.025	29653
810.166	29699
810.308	29691
810.45	29798
810.591	29729
810.733	29634
810.875	29406
811.016	29452
811.158	29269
811.299	29649
811.441	29657
811.582	29646
811.724	29429
811.865	29410
812.007	29490
812.148	29547
812.29	29535
812.431	29634
812.573	29904
812.714	29969
812.855	30053
812.997	30110
813.138	30327
813.279	30098
813.421	30087
813.562	29927
813.703	29676
813.845	29756
813.986	29330
814.127	29349
814.268	29033
814.41	29132
814.551	29064
814.692	29265
814.833	29117
814.974	29124
815.115	29140
815.256	29094
815.397	29136
815.539	29014
815.68	28976
815.821	28961
815.962	28854
816.103	28938
816.244	28797
816.385	28622
816.526	28740
816.666	28679
816.807	28424
816.948	28413
817.089	28394
817.23	28363
817.371	28489
817.512	28363
817.653	28398
817.793	28447
817.934	28527
818.075	28413
818.216	28462
818.356	28341
818.497	28272
818.638	28032
818.778	28207
818.919	28200
819.06	28173
819.2	28226
819.341	28379
819.481	28352
819.622	28485
819.762	28664
819.903	28801
820.043	28596
820.184	28565
820.324	28379
820.465	28535
820.605	28527
820.746	28508
820.886	28466
821.026	28527
821.167	28470
821.307	28516
821.447	28424
821.588	28295
821.728	28207
821.868	27972
822.008	27869
822.149	27808
822.289	27835
822.429	27603
822.569	27583
822.709	27485
822.849	27473
822.99	27351
823.13	27256
823.27	27382
823.41	27176
823.55	27013
823.69	27108
823.83	27150
823.97	27100
824.11	26830
824.25	26937
824.389	27036
824.529	27020
824.669	26982
824.809	27036
824.949	27032
825.089	27001
825.228	27112
825.368	26823
825.508	26804
825.648	26933
825.787	26804
825.927	26937
826.067	26785
826.206	26902
826.346	26906
826.485	26910
826.625	26849
826.765	26925
826.904	26956
827.044	26530
827.183	26492
827.323	26541
827.462	26507
827.601	26438
827.741	26473
827.88	26377
828.02	26351
828.159	26442
828.298	26556
828.437	26545
828.577	26385
828.716	26537
828.855	26374
828.994	26286
829.134	26168
829.273	26240
829.412	26256
829.551	26168
829.69	26244
829.829	26191
829.968	26229
830.107	26172
830.246	26043
830.385	26142
830.524	26005
830.663	26119
830.802	25826
830.941	25624
831.08	25662
831.219	25803
831.357	25715
831.496	26088
831.635	25521
831.774	25635
831.913	25734
832.051	25438
832.19	25529
832.329	25578
832.467	25270
832.606	25346
832.744	25141
832.883	25514
833.022	25339
833.16	25396
833.299	25331
833.437	25445
833.576	25434
833.714	25540
833.852	25403
833.991	25449
834.129	25521
834.267	25548
834.406	25457
834.544	25434
834.682	25434
834.821	25320
834.959	25464
835.097	25343
835.235	25464
835.373	25373
835.511	25457
835.65	25133
835.788	25240
835.926	25110
836.064	24989
836.202	25126
836.34	25259
836.478	25339
836.615	25065
836.753	25198
836.891	25324
837.029	25293
837.167	25247
837.305	25183
837.443	25114
837.58	25053
837.718	25137
837.856	25168
837.993	25015
838.131	24962
838.269	24943
838.406	24848
838.544	24856
838.681	24696
838.819	24741
838.956	24483
839.094	24437
839.231	24574
839.369	24700
839.506	24977
839.643	24745
839.781	24330
839.918	24433
840.055	24582
840.193	24429
840.33	24433
840.467	24464
840.604	24517
840.742	24726
840.879	24220
841.016	24350
841.153	24213
841.29	24464
841.427	24281
841.564	24319
841.701	24258
841.838	24308
841.975	24148
842.112	24300
842.249	24106
842.385	24053
842.522	24353
842.659	24114
842.796	24026
842.933	24038
843.069	24144
843.206	24022
843.343	24129
843.479	24057
843.616	23984
843.752	23908
843.889	23866
844.025	23999
844.162	23779
844.298	23958
844.435	23733
844.571	23741
844.708	23889
844.844	23969
844.98	24011
845.117	23961
845.253	23790
845.389	23672
845.525	23767
845.661	23665
845.798	23577
845.934	23680
846.07	23459
846.206	23630
846.342	23714
846.478	23490
846.614	23296
846.75	23216
846.886	23315
847.022	23368
847.158	23368
847.294	23254
847.429	23288
847.565	23216
847.701	23573
847.837	22923
847.972	22987
848.108	23067
848.244	23155
848.379	22873
848.515	22805
848.65	22831
848.786	22824
848.921	22953
849.057	22942
849.192	22972
849.328	22885
849.463	22801
849.598	22839
849.734	22664
849.869	22694
850.004	22603
850.14	22618
850.275	22641
850.41	22542
850.545	22485
850.68	22569
850.815	22664
850.95	22561
851.085	22656
851.22	22687
851.355	22565
851.49	22527
851.625	22565
851.76	22512
851.895	22622
852.03	22424
852.165	22577
852.299	22603
852.434	22599
852.569	22603
852.703	22561
852.838	22668
852.973	22721
853.107	22755
853.242	22451
853.376	22314
853.511	22325
853.645	22337
853.78	22512
853.914	22295
854.048	22314
854.183	22402
854.317	22516
854.451	22603
854.585	22185
854.72	22379
854.854	22440
854.988	22386
855.122	22371
855.256	22280
855.39	22314
855.524	22363
855.658	22432
855.792	22363
855.926	22386
856.06	22333
856.194	22519
856.327	22291
856.461	22352
856.595	22337
856.729	22348
856.862	22535
856.996	22421
857.13	22485
857.263	22535
857.397	22531
857.53	22409
857.664	22265
857.797	22447
857.931	22382
858.064	22371
858.197	22523
858.331	22550
858.464	22310
858.597	22318
858.731	22462
858.864	22394
858.997	22459
859.13	22314
859.263	22375
859.396	22318
859.529	22344
859.662	22295
859.795	22303
859.928	22386
860.061	22447
860.194	22462
860.327	22409
860.46	22398
860.592	22443
860.725	22417
860.858	22481
860.99	22417
861.123	22287
861.256	22382
861.388	22390
861.521	22927
861.653	22124
861.786	22150
861.918	22185
862.05	22226
862.183	22466
862.315	22325
862.447	22398
862.58	22337
862.712	22116
862.844	21979
862.976	22215
863.108	22124
863.24	22554
863.372	22048
863.504	22029
863.636	21987
863.768	22135
863.9	22036
864.032	21926
864.164	22063
864.296	22101
864.428	22017
864.559	22109
864.691	22063
864.823	22051
864.954	22074
865.086	22059
865.217	21918
865.349	21907
865.48	21956
865.612	21949
865.743	22082
865.875	21922
866.006	21964
866.137	21915
866.269	21865
866.4	21903
866.531	21800
866.662	21732
866.793	21907
866.924	21835
867.055	21899
867.186	21937
867.317	21724
867.448	21774
867.579	21850
867.71	21720
867.841	21831
867.972	21975
868.103	21857
868.233	21869
868.364	21873
868.495	21873
868.625	22002
868.756	22276
868.886	22048
869.017	22032
869.147	22112
869.278	22124
869.408	22109
869.539	21915
869.669	22204
869.799	22215
869.929	22268
870.06	22177
870.19	22375
870.32	22402
870.45	22325
870.58	22459
870.71	22466
870.84	22580
870.97	22386
871.1	22402
871.23	22672
871.36	22615
871.489	22573
871.619	22611
871.749	22634
871.879	22630
872.008	22691
872.138	22733
872.267	22641
872.397	22516
872.526	22375
872.656	22542
872.785	22504
872.915	22801
873.044	22805
873.173	22710
873.303	22694
873.432	22653
873.561	22797
873.69	22767
873.819	22561
873.948	22812
874.077	22664
874.206	22584
874.335	22717
874.464	22740
874.593	22965
874.722	22820
874.851	22957
874.979	22968
875.108	22824
875.237	22930
875.365	22968
875.494	22850
875.623	22911
875.751	22885
875.88	22942
876.008	23022
876.136	23052
876.265	23387
876.393	23273
876.521	23372
876.65	23250
876.778	23204
876.906	23170
877.034	23170
877.162	23239
877.29	23227
877.418	23166
877.546	23223
877.674	23250
877.802	23258
877.93	23280
878.058	23124
878.185	23136
878.313	23258
878.441	23261
878.568	23029
878.696	23109
878.824	23231
878.951	23349
879.079	23467
879.206	23543
879.333	23433
879.461	23208
879.588	23330
879.715	23429
879.842	23497
879.97	23326
880.097	23102
880.224	23052
880.351	23105
880.478	22934
880.605	23003
880.732	23151
880.859	23322
880.986	23132
881.112	23102
881.239	22908
881.366	22774
881.493	22698
881.619	22675
881.746	22596
881.872	22675
881.999	22588
882.125	22592
882.252	22691
882.378	22702
882.505	22679
882.631	22565
882.757	22424
882.883	22440
883.01	22310
883.136	22272
883.262	22280
883.388	22090
883.514	22337
883.64	22249
883.766	22375
883.892	22158
884.018	22074
884.143	22204
884.269	22455
884.395	22006
884.52	21975
884.646	21975
884.772	21884
884.897	21819
885.023	21869
885.148	22181
885.274	21972
885.399	22143
885.524	21941
885.65	21968
885.775	22051
885.9	21861
886.025	21968
886.15	22048
886.275	21857
886.4	21918
886.525	21892
886.65	21850
886.775	21785
886.9	22090
887.025	22154
887.149	21949
887.274	21701
887.399	21759
887.523	21690
887.648	21686
887.773	21530
887.897	21698
888.021	21781
888.146	21663
888.27	21808
888.395	21774
888.519	21804
888.643	21641
888.767	21641
888.891	21648
889.015	21595
889.139	21587
889.263	21492
889.387	21545
889.511	21629
889.635	21633
889.759	21454
889.883	21462
890.006	21530
890.13	21523
890.254	21397
890.377	21431
890.501	21184
890.624	21241
890.748	21169
890.871	21093
890.995	21100
891.118	20994
891.241	20982
891.364	21062
891.488	21138
891.611	21017
891.734	21104
891.857	21089
891.98	20979
892.103	21043
892.226	21112
892.349	21028
892.471	20823
892.594	20967
892.717	20876
892.839	20990
892.962	20937
893.085	21058
893.207	20804
893.33	20838
893.452	20838
893.575	20979
893.697	20781
893.819	21070
893.941	21222
894.064	21013
894.186	20887
894.308	20853
894.43	20963
894.552	20998
894.674	21032
894.796	20849
894.918	20906
895.04	20811
895.161	20990
895.283	21104
895.405	20842
895.526	20830
895.648	20925
895.769	20941
895.891	21066
896.012	21074
896.134	21005
896.255	20868
896.376	20910
896.498	21047
896.619	21001
896.74	20982
896.861	20971
896.982	21302
897.103	21439
897.224	21214
897.345	21165
897.466	21055
897.587	21161
897.708	21260
897.828	21108
897.949	21081
898.07	20948
898.19	21074
898.311	21127
898.431	20967
898.552	21116
898.672	21089
898.792	21230
898.913	21157
899.033	20975
899.153	20872
899.273	20739
899.393	20834
899.513	20921
899.633	20765
899.753	20830
899.873	20948
899.993	20899
900.113	20743
900.232	20857
900.352	20731
900.472	20655
900.591	20636
900.711	20606
900.83	20625
900.95	20651
901.069	20560
901.189	20541
901.308	20248
901.427	20225
901.546	20225
901.665	20199
901.784	20229
901.904	19978
902.023	19967
902.141	19788
902.26	19868
902.379	19651
902.498	19715
902.617	19677
902.735	19704
902.854	19632
902.973	19556
903.091	19369
903.21	19320
903.328	19331
903.446	19187
903.565	19183
903.683	19107
903.801	18958
903.919	19050
904.038	19019
904.156	18916
904.274	18943
904.392	18886
904.51	18909
904.627	18821
904.745	18875
904.863	18905
904.981	18726
905.098	18616
905.216	18665
905.334	18544
905.451	18578
905.569	18578
905.686	18661
905.803	18551
905.921	18315
906.038	18475
906.155	18334
906.272	18201
906.389	18262
906.506	18209
906.623	18190
906.74	17984
906.857	17954
906.974	18007
907.091	18159
907.208	18251
907.324	18095
907.441	17931
907.557	17771
907.674	17817
907.79	17687
907.907	17699
908.023	17657
908.139	17737
908.256	17714
908.372	17672
908.488	17573
908.604	17520
908.72	17490
908.836	17364
908.952	17376
909.068	17551
909.184	17471
909.3	17501
909.415	17547
909.531	17436
909.647	17220
909.762	17151
909.878	17117
909.993	17273
910.108	17181
910.224	17159
910.339	17136
910.454	17022
910.57	17025
910.685	16805
910.8	17185
910.915	17083
911.03	17010
911.145	16805
911.259	16733
911.374	16900
911.489	16618
911.604	16637
911.718	16432
911.833	16512
911.947	16462
912.062	16333
912.176	16618
912.291	16481
912.405	16535
912.519	16713
912.633	16694
912.748	16405
912.862	16409
912.976	16272
913.09	16200
913.204	16200
913.318	16207
913.431	16352
913.545	16352
913.659	16386
913.772	16192
913.886	16128
914	16025
914.113	16158
914.226	16192
914.34	16147
914.453	15922
914.566	16063
914.68	15918
914.793	15903
914.906	15793
915.019	15606
915.132	15682
915.245	15686
915.358	15739
915.47	15770
915.583	15660
915.696	15656
915.809	15698
915.921	15835
916.034	15637
916.146	15557
916.259	15538
916.371	15690
916.483	15644
916.595	15412
916.708	15420
916.82	15412
916.932	15416
917.044	15458
917.156	15481
917.268	15321
917.38	15317
917.491	15298
917.603	15291
917.715	15370
917.826	15298
917.938	15154
918.049	15150
918.161	15249
918.272	15447
918.384	15336
918.495	15218
918.606	15108
918.717	14979
918.828	15093
918.939	15100
919.05	14975
919.161	14975
919.272	14830
919.383	14910
919.494	15058
919.604	15245
919.715	14990
919.826	14891
919.936	14948
920.047	15081
920.157	14979
920.267	15058
920.378	15036
920.488	14868
920.598	15207
920.708	15176
920.818	15085
920.928	15127
921.038	15291
921.148	15138
921.258	14941
921.368	14845
921.477	14762
921.587	14781
921.697	14583
921.806	14701
921.916	14571
922.025	14389
922.134	14423
922.244	14374
922.353	14396
922.462	14206
922.571	14111
922.68	13913
922.789	13913
922.898	13970
923.007	13837
923.116	14062
923.224	13947
923.333	13982
923.442	13826
923.55	13818
923.659	13830
923.767	13799
923.876	13700
923.984	13837
924.092	13674
924.201	13708
924.309	13742
924.417	13784
924.525	13590
924.633	13609
924.741	14400
924.849	13403
924.956	13609
925.064	13316
925.172	13293
925.279	13384
925.387	13419
925.494	13441
925.602	13373
925.709	13365
925.816	13236
925.924	13316
926.031	13438
926.138	13263
926.245	13274
926.352	13202
926.459	13388
926.566	13377
926.673	13266
926.779	13156
926.886	13129
926.993	12996
927.099	12981
927.206	12829
927.312	12795
927.419	12894
927.525	12913
927.631	12993
927.737	12753
927.843	12783
927.95	12726
928.056	12700
928.162	12722
928.267	12829
928.373	13407
928.479	12802
928.585	12559
928.69	12631
928.796	12639
928.901	12677
929.007	12467
929.112	12677
929.218	12540
929.323	12448
929.428	12460
929.533	12547
929.638	12361
929.743	12407
929.848	12418
929.953	12384
930.058	12213
930.163	12140
930.267	12140
930.372	12140
930.477	12019
930.581	12258
930.685	12232
930.79	12015
930.894	12007
930.998	11939
931.103	12030
931.207	11684
931.311	11589
931.415	11543
931.519	11387
931.623	11330
