Data from test_V78500241_1583.txt Node
Date: Fri Mar 25 15:52:46 CST 2022
User: usil
Spectrometer: V785-0024
Trigger mode: 0
Integration Time (sec): 4.000000E-1
Scans to average: 1
Nonlinearity correction enabled: false
Boxcar width: 0
Storing dark spectrum: false
XAxis mode: Wavelengths
Number of Pixels in Spectrum: 1024
>>>>>Begin Spectral Data<<<<<
801.071	28032
801.214	27819
801.356	27698
801.499	27698
801.641	27458
801.783	27580
801.926	27481
802.068	27549
802.211	27523
802.353	27447
802.496	27230
802.638	27127
802.78	27146
802.923	27184
803.065	27085
803.208	27161
803.35	27226
803.492	27363
803.635	27416
803.777	27291
803.919	27416
804.061	27751
804.204	27542
804.346	27241
804.488	27321
804.63	27317
804.773	27211
804.915	27412
805.057	27504
805.199	27348
805.341	27424
805.483	27603
805.626	27580
805.768	27317
805.91	27389
806.052	27644
806.194	27359
806.336	27595
806.478	27549
806.62	27507
806.762	27511
806.904	27831
807.046	27994
807.188	28040
807.33	27964
807.472	28017
807.614	27861
807.756	27934
807.898	27812
808.04	27819
808.182	27766
808.324	27797
808.465	27873
808.607	28032
808.749	28173
808.891	28192
809.033	28413
809.174	28139
809.316	28185
809.458	28181
809.6	28124
809.741	28344
809.883	28363
810.025	28550
810.166	28485
810.308	28417
810.45	28325
810.591	28287
810.733	28169
810.875	28166
811.016	28131
811.158	28116
811.299	28242
811.441	28360
811.582	28329
811.724	28120
811.865	28013
812.007	28150
812.148	28097
812.29	28128
812.431	28341
812.573	28466
812.714	28516
812.855	28603
812.997	28717
813.138	28869
813.279	28835
813.421	28577
813.562	28702
813.703	28470
813.845	28375
813.986	28093
814.127	27717
814.268	27808
814.41	28021
814.551	27827
814.692	27808
814.833	27797
814.974	27751
815.115	28017
815.256	27549
815.397	27713
815.539	27755
815.68	27663
815.821	27523
815.962	27759
816.103	27595
816.244	27519
816.385	27393
816.526	27374
816.666	27287
816.807	26986
816.948	27203
817.089	27252
817.23	27036
817.371	27093
817.512	27260
817.653	27043
817.793	27180
817.934	27096
818.075	27298
818.216	27119
818.356	27005
818.497	27036
818.638	26769
818.778	26796
818.919	26918
819.06	26918
819.2	27043
819.341	26990
819.481	27096
819.622	27203
819.762	27568
819.903	27207
820.043	27264
820.184	27310
820.324	27287
820.465	27199
820.605	27291
820.746	27245
820.886	27233
821.026	27195
821.167	27161
821.307	27222
821.447	27199
821.588	27291
821.728	26940
821.868	26769
822.008	26552
822.149	26598
822.289	26640
822.429	26298
822.569	26301
822.709	26221
822.849	26069
822.99	26199
823.13	26145
823.27	26157
823.41	25917
823.55	25738
823.69	25822
823.83	26012
823.97	25799
824.11	25693
824.25	25655
824.389	25689
824.529	25731
824.669	25814
824.809	25875
824.949	25784
825.089	25875
825.228	25731
825.368	25586
825.508	25613
825.648	25597
825.787	25662
825.927	25632
826.067	25514
826.206	25609
826.346	25647
826.485	25700
826.625	25670
826.765	25624
826.904	25563
827.044	25384
827.183	25460
827.323	25369
827.462	25392
827.601	25407
827.741	25141
827.88	25468
828.02	25164
828.159	25320
828.298	25373
828.437	25369
828.577	25377
828.716	25403
828.855	25148
828.994	25099
829.134	25019
829.273	25095
829.412	25000
829.551	24909
829.69	25027
829.829	25042
829.968	25034
830.107	25034
830.246	25053
830.385	24954
830.524	24909
830.663	24875
830.802	24745
830.941	24517
831.08	24570
831.219	24757
831.357	24703
831.496	24859
831.635	24738
831.774	24582
831.913	24502
832.051	24418
832.19	24460
832.329	24467
832.467	24384
832.606	24098
832.744	24403
832.883	24243
833.022	24254
833.16	24323
833.299	24308
833.437	24254
833.576	24315
833.714	24376
833.852	24399
833.991	24418
834.129	24338
834.267	24403
834.406	24372
834.544	24407
834.682	24330
834.821	24277
834.959	24452
835.097	24380
835.235	24376
835.373	24433
835.511	24239
835.65	24209
835.788	24247
835.926	24125
836.064	23992
836.202	24057
836.34	24140
836.478	24315
836.615	24167
836.753	24155
836.891	24289
837.029	24372
837.167	24148
837.305	24110
837.443	23992
837.58	23999
837.718	24091
837.856	24087
837.993	24018
838.131	24034
838.269	23916
838.406	23973
838.544	23809
838.681	23649
838.819	23615
838.956	23414
839.094	23474
839.231	23668
839.369	23672
839.506	23805
839.643	23657
839.781	23554
839.918	23467
840.055	23478
840.193	23425
840.33	23459
840.467	23387
840.604	23474
840.742	23771
840.879	23334
841.016	23395
841.153	23356
841.29	23398
841.427	23448
841.564	23543
841.701	23376
841.838	23242
841.975	23239
842.112	23212
842.249	23170
842.385	23147
842.522	23444
842.659	23296
842.796	23159
842.933	23212
843.069	23174
843.206	23151
843.343	23261
843.479	23143
843.616	23185
843.752	22972
843.889	22930
844.025	23090
844.162	22995
844.298	23006
844.435	22862
844.571	22801
844.708	22980
844.844	23006
844.98	23083
845.117	23060
845.253	22831
845.389	22755
845.525	22881
845.661	22672
845.798	22725
845.934	22744
846.07	22778
846.206	22554
846.342	22843
846.478	22519
846.614	22466
846.75	22443
846.886	22394
847.022	22596
847.158	22474
847.294	22493
847.429	22466
847.565	22424
847.701	22653
847.837	22128
847.972	22036
848.108	22249
848.244	22204
848.379	22051
848.515	22025
848.65	21945
848.786	22036
848.921	21994
849.057	22135
849.192	21998
849.328	21998
849.463	21960
849.598	22048
849.734	21911
849.869	21800
850.004	21800
850.14	21846
850.275	21762
850.41	21553
850.545	21583
850.68	21671
850.815	21793
850.95	21694
851.085	21987
851.22	21800
851.355	21823
851.49	21717
851.625	21599
851.76	21633
851.895	21572
852.03	21747
852.165	21728
852.299	21751
852.434	21762
852.569	21797
852.703	21865
852.838	21766
852.973	21857
853.107	21945
853.242	21724
853.376	21671
853.511	21401
853.645	21412
853.78	21724
853.914	21622
854.048	21507
854.183	21519
854.317	21576
854.451	21797
854.585	21660
854.72	21526
854.854	21633
854.988	21629
855.122	21652
855.256	21450
855.39	21507
855.524	21652
855.658	21519
855.792	21622
855.926	21568
856.06	21504
856.194	21603
856.327	21648
856.461	21458
856.595	21557
856.729	21583
856.862	21633
856.996	21633
857.13	21690
857.263	21663
857.397	21739
857.53	21511
857.664	21523
857.797	21542
857.931	21603
858.064	21637
858.197	21759
858.331	21564
858.464	21534
858.597	21526
858.731	21583
858.864	21530
858.997	21485
859.13	21595
859.263	21606
859.396	21557
859.529	21496
859.662	21549
859.795	21583
859.928	21648
860.061	21663
860.194	21808
860.327	21633
860.46	21507
860.592	21652
860.725	21789
860.858	21564
860.99	21614
861.123	21542
861.256	21477
861.388	21431
861.521	22090
861.653	21481
861.786	21355
861.918	21378
862.05	21420
862.183	21523
862.315	21530
862.447	21511
862.58	21553
862.712	21332
862.844	21325
862.976	21374
863.108	21386
863.24	21797
863.372	21351
863.504	21195
863.636	21241
863.768	21397
863.9	21173
864.032	21355
864.164	21287
864.296	21226
864.428	21275
864.559	21420
864.691	21504
864.823	21359
864.954	21321
865.086	21348
865.217	21252
865.349	21119
865.48	21184
865.612	21119
865.743	21336
865.875	21188
866.006	21241
866.137	21142
866.269	21245
866.4	21199
866.531	21036
866.662	21142
866.793	21020
866.924	21146
867.055	21085
867.186	21203
867.317	21036
867.448	21013
867.579	20963
867.71	21020
867.841	21028
867.972	21211
868.103	21093
868.233	21199
868.364	21062
868.495	21142
868.625	21294
868.756	21443
868.886	21298
869.017	21344
869.147	21473
869.278	21614
869.408	21401
869.539	21428
869.669	21313
869.799	21431
869.929	21485
870.06	21507
870.19	21652
870.32	21720
870.45	21667
870.58	21732
870.71	21903
870.84	21819
870.97	21770
871.1	21873
871.23	21884
871.36	22006
871.489	21793
871.619	21797
871.749	21922
871.879	21880
872.008	22078
872.138	21911
872.267	21778
872.397	21755
872.526	21789
872.656	21922
872.785	21835
872.915	21926
873.044	22025
873.173	21975
873.303	22105
873.432	22067
873.561	22131
873.69	21949
873.819	21888
873.948	22078
874.077	22055
874.206	21972
874.335	21953
874.464	22002
874.593	22253
874.722	22192
874.851	22276
874.979	22223
875.108	22322
875.237	22101
875.365	22166
875.494	22078
875.623	22246
875.751	22139
875.88	22341
876.008	22306
876.136	22341
876.265	22546
876.393	22706
876.521	22683
876.65	22596
876.778	22721
876.906	22523
877.034	22455
877.162	22588
877.29	22512
877.418	22660
877.546	22596
877.674	22603
877.802	22554
877.93	22569
878.058	22478
878.185	22443
878.313	22504
878.441	22360
878.568	22337
878.696	22500
878.824	22592
878.951	22641
879.079	22740
879.206	22843
879.333	22740
879.461	22694
879.588	22569
879.715	22672
879.842	22911
879.97	22618
880.097	22348
880.224	22341
880.351	22424
880.478	22436
880.605	22447
880.732	22382
880.859	22443
880.986	22325
881.112	22363
881.239	22268
881.366	22112
881.493	22055
881.619	21941
881.746	21892
881.872	21998
881.999	21846
882.125	21850
882.252	21972
882.378	21953
882.505	21960
882.631	21797
882.757	21610
882.883	21637
883.01	21572
883.136	21603
883.262	21511
883.388	21519
883.514	21614
883.64	21671
883.766	21492
883.892	21439
884.018	21424
884.143	21542
884.269	21610
884.395	21393
884.52	21294
884.646	21298
884.772	21184
884.897	21176
885.023	21264
885.148	21298
885.274	21408
885.399	21382
885.524	21329
885.65	21233
885.775	21336
885.9	21260
886.025	21363
886.15	21222
886.275	21310
886.4	21237
886.525	21207
886.65	21203
886.775	21275
886.9	21351
887.025	21443
887.149	21310
887.274	21077
887.399	21013
887.523	21028
887.648	21028
887.773	21028
887.897	21146
888.021	21135
888.146	20899
888.27	21112
888.395	21089
888.519	21157
888.643	21017
888.767	21024
888.891	20937
889.015	20891
889.139	20868
889.263	20811
889.387	20998
889.511	20994
889.635	21017
889.759	20765
889.883	20708
890.006	20857
890.13	20990
890.254	20720
890.377	20735
890.501	20667
890.624	20583
890.748	20663
890.871	20469
890.995	20457
891.118	20400
891.241	20480
891.364	20503
891.488	20469
891.611	20434
891.734	20309
891.857	20541
891.98	20415
892.103	20495
892.226	20358
892.349	20347
892.471	20206
892.594	20324
892.717	20320
892.839	20195
892.962	20286
893.085	20248
893.207	20259
893.33	20248
893.452	20362
893.575	20278
893.697	20313
893.819	20454
893.941	20476
894.064	20476
894.186	20278
894.308	20153
894.43	20339
894.552	20393
894.674	20511
894.796	20233
894.918	20267
895.04	20294
895.161	20400
895.283	20301
895.405	20153
895.526	20313
895.648	20195
895.769	20301
895.891	20343
896.012	20446
896.134	20347
896.255	20389
896.376	20374
896.498	20427
896.619	20377
896.74	20343
896.861	20298
896.982	20670
897.103	20785
897.224	20670
897.345	20564
897.466	20461
897.587	20533
897.708	20663
897.828	20530
897.949	20412
898.07	20271
898.19	20499
898.311	20575
898.431	20431
898.552	20560
898.672	20427
898.792	20579
898.913	20549
899.033	20400
899.153	20282
899.273	20138
899.393	20267
899.513	20313
899.633	20362
899.753	20332
899.873	20218
899.993	20290
900.113	20161
900.232	20301
900.352	20317
900.472	20058
900.591	19997
900.711	20012
900.83	19959
900.95	20100
901.069	20077
901.189	20065
901.308	19776
901.427	19544
901.546	19639
901.665	19696
901.784	19712
901.904	19552
902.023	19392
902.141	19107
902.26	19046
902.379	19183
902.498	19183
902.617	18951
902.735	19202
902.854	19034
902.973	19042
903.091	18787
903.21	18688
903.328	18890
903.446	18715
903.565	18582
903.683	18604
903.801	18407
903.919	18623
904.038	18555
904.156	18338
904.274	18467
904.392	18357
904.51	18311
904.627	18486
904.745	18327
904.863	18445
904.981	18125
905.098	17984
905.216	18060
905.334	18083
905.451	18076
905.569	17973
905.686	18045
905.803	18072
905.921	17923
906.038	17855
906.155	17809
906.272	17745
906.389	17805
906.506	17532
906.623	17573
906.74	17585
906.857	17471
906.974	17467
907.091	17589
907.208	17657
907.324	17585
907.441	17467
907.557	17303
907.674	17254
907.79	17181
907.907	17193
908.023	17288
908.139	17254
908.256	17231
908.372	17086
908.488	17231
908.604	17102
908.72	16995
908.836	16938
908.952	17037
909.068	16961
909.184	17113
909.3	16980
909.415	17037
909.531	16972
909.647	16793
909.762	16694
909.878	16653
909.993	16706
910.108	16694
910.224	16683
910.339	16675
910.454	16538
910.57	16626
910.685	16405
910.8	16675
910.915	16554
911.03	16379
911.145	16356
911.259	16234
911.374	16276
911.489	16246
911.604	16166
911.718	16036
911.833	16067
911.947	15964
912.062	15987
912.176	16074
912.291	15994
912.405	15991
912.519	16211
912.633	16249
912.748	16109
912.862	16017
912.976	15911
913.09	15728
913.204	15838
913.318	15873
913.431	15895
913.545	15838
913.659	15968
913.772	15827
913.886	15679
914	15701
914.113	15743
914.226	15762
914.34	15743
914.453	15481
914.566	15675
914.68	15500
914.793	15500
914.906	15408
915.019	15218
915.132	15173
915.245	15245
915.358	15370
915.47	15192
915.583	15359
915.696	15306
915.809	15321
915.921	15325
916.034	15256
916.146	15119
916.259	15131
916.371	15222
916.483	15256
916.595	15077
916.708	15093
916.82	15009
916.932	15085
917.044	15085
917.156	15062
917.268	14811
917.38	14944
917.491	14826
917.603	14868
917.715	14975
917.826	15036
917.938	14811
918.049	14705
918.161	14864
918.272	14971
918.384	15005
918.495	14872
918.606	14610
918.717	14564
918.828	14644
918.939	14644
919.05	14537
919.161	14621
919.272	14427
919.383	14480
919.494	14663
919.604	14868
919.715	14598
919.826	14537
919.936	14602
920.047	14689
920.157	14568
920.267	14899
920.378	14708
920.488	14651
920.598	14872
920.708	14998
920.818	14754
920.928	14689
921.038	14918
921.148	14765
921.258	14511
921.368	14450
921.477	14362
921.587	14370
921.697	14157
921.806	14332
921.916	14202
922.025	14050
922.134	13940
922.244	13925
922.353	14024
922.462	13944
922.571	13814
922.68	13552
922.789	13708
922.898	13643
923.007	13521
923.116	13620
923.224	13708
923.333	13632
923.442	13506
923.55	13472
923.659	13472
923.767	13559
923.876	13373
923.984	13521
924.092	13453
924.201	13460
924.309	13384
924.417	13346
924.525	13244
924.633	13316
924.741	14267
924.849	13190
924.956	13312
925.064	13152
925.172	12928
925.279	13046
925.387	12996
925.494	13053
925.602	13202
925.709	13149
925.816	13004
925.924	13053
926.031	13126
926.138	12981
926.245	13000
926.352	12970
926.459	13069
926.566	13050
926.673	12856
926.779	12795
926.886	12757
926.993	12730
927.099	12608
927.206	12608
927.312	12589
927.419	12673
927.525	12650
927.631	12681
927.737	12509
927.843	12399
927.95	12372
928.056	12426
928.162	12418
928.267	12490
928.373	13038
928.479	12437
928.585	12304
928.69	12330
928.796	12471
928.901	12357
929.007	12110
929.112	12251
929.218	12266
929.323	12190
929.428	12125
929.533	12296
929.638	12079
929.743	12053
929.848	12117
929.953	12106
930.058	11954
930.163	11942
930.267	11794
930.372	12022
930.477	11741
930.581	12041
930.685	11897
930.79	11802
930.894	11805
930.998	11646
931.103	11809
931.207	11535
931.311	11429
931.415	11246
931.519	11113
931.623	11060
