Data from test_V78500241_3567.txt Node
Date: Fri Mar 25 16:06:30 CST 2022
User: usil
Spectrometer: V785-0024
Trigger mode: 0
Integration Time (sec): 4.000000E-1
Scans to average: 1
Nonlinearity correction enabled: false
Boxcar width: 0
Storing dark spectrum: false
XAxis mode: Wavelengths
Number of Pixels in Spectrum: 1024
>>>>>Begin Spectral Data<<<<<
801.071	28847
801.214	28869
801.356	28588
801.499	28577
801.641	28447
801.783	28478
801.926	28512
802.068	28363
802.211	28223
802.353	28314
802.496	28143
802.638	28109
802.78	28112
802.923	27960
803.065	28021
803.208	28124
803.35	28059
803.492	28135
803.635	28249
803.777	28181
803.919	28287
804.061	28641
804.204	28417
804.346	28230
804.488	28226
804.63	28246
804.773	28310
804.915	28375
805.057	28504
805.199	28500
805.341	28363
805.483	28531
805.626	28580
805.768	28363
805.91	28455
806.052	28485
806.194	28348
806.336	28687
806.478	28519
806.62	28557
806.762	28660
806.904	28786
807.046	28999
807.188	29014
807.33	28900
807.472	29060
807.614	28908
807.756	29010
807.898	29010
808.04	28729
808.182	28843
808.324	28828
808.465	28721
808.607	29151
808.749	29212
808.891	29288
809.033	29440
809.174	29315
809.316	29166
809.458	29208
809.6	29235
809.741	29174
809.883	29322
810.025	29433
810.166	29501
810.308	29528
810.45	29459
810.591	29421
810.733	29341
810.875	29250
811.016	29109
811.158	29083
811.299	29235
811.441	29387
811.582	29383
811.724	29246
811.865	29216
812.007	29235
812.148	29265
812.29	29379
812.431	29459
812.573	29653
812.714	29589
812.855	29767
812.997	29889
813.138	30030
813.279	29889
813.421	29661
813.562	29562
813.703	29520
813.845	29471
813.986	29052
814.127	29060
814.268	28946
814.41	28972
814.551	28953
814.692	28991
814.833	28736
814.974	28717
815.115	28972
815.256	28854
815.397	28771
815.539	28858
815.68	28763
815.821	28698
815.962	28706
816.103	28782
816.244	28702
816.385	28637
816.526	28512
816.666	28268
816.807	28295
816.948	28261
817.089	28310
817.23	28268
817.371	28249
817.512	28382
817.653	28276
817.793	28139
817.934	28124
818.075	28299
818.216	28188
818.356	28173
818.497	28074
818.638	27918
818.778	28070
818.919	27968
819.06	28070
819.2	28173
819.341	28249
819.481	28169
819.622	28421
819.762	28565
819.903	28557
820.043	28535
820.184	28314
820.324	28268
820.465	28436
820.605	28447
820.746	28318
820.886	28318
821.026	28291
821.167	28356
821.307	28363
821.447	28261
821.588	28093
821.728	28173
821.868	27899
822.008	27641
822.149	27568
822.289	27667
822.429	27477
822.569	27458
822.709	27363
822.849	27245
822.99	27199
823.13	27233
823.27	27188
823.41	27173
823.55	26861
823.69	27116
823.83	27207
823.97	27077
824.11	26842
824.25	26815
824.389	26960
824.529	26883
824.669	26994
824.809	27108
824.949	26887
825.089	26918
825.228	26979
825.368	26651
825.508	26773
825.648	26735
825.787	26807
825.927	26842
826.067	26765
826.206	26788
826.346	26948
826.485	26857
826.625	26815
826.765	26834
826.904	26781
827.044	26571
827.183	26488
827.323	26518
827.462	26549
827.601	26476
827.741	26522
827.88	26503
828.02	26389
828.159	26423
828.298	26514
828.437	26488
828.577	26396
828.716	26625
828.855	26434
828.994	26145
829.134	26229
829.273	26103
829.412	26100
829.551	26069
829.69	26134
829.829	26275
829.968	26199
830.107	26240
830.246	26168
830.385	26122
830.524	26096
830.663	26065
830.802	25936
830.941	25715
831.08	25875
831.219	25871
831.357	25940
831.496	25986
831.635	25765
831.774	25575
831.913	25643
832.051	25571
832.19	25487
832.329	25734
832.467	25525
832.606	25460
832.744	25304
832.883	25419
833.022	25354
833.16	25422
833.299	25369
833.437	25438
833.576	25472
833.714	25518
833.852	25556
833.991	25457
834.129	25712
834.267	25613
834.406	25491
834.544	25582
834.682	25533
834.821	25518
834.959	25639
835.097	25556
835.235	25472
835.373	25590
835.511	25460
835.65	25270
835.788	25381
835.926	25240
836.064	25168
836.202	25202
836.34	25312
836.478	25354
836.615	25324
836.753	25400
836.891	25464
837.029	25247
837.167	25316
837.305	25236
837.443	25194
837.58	25133
837.718	25259
837.856	25194
837.993	25088
838.131	25042
838.269	25061
838.406	25213
838.544	24977
838.681	24814
838.819	24825
838.956	24825
839.094	24703
839.231	24642
839.369	24894
839.506	24947
839.643	24840
839.781	24631
839.918	24456
840.055	24764
840.193	24502
840.33	24574
840.467	24532
840.604	24521
840.742	24760
840.879	24338
841.016	24369
841.153	24395
841.29	24589
841.427	24505
841.564	24426
841.701	24525
841.838	24475
841.975	24464
842.112	24399
842.249	24342
842.385	24353
842.522	24475
842.659	24346
842.796	24239
842.933	24384
843.069	24350
843.206	24174
843.343	24330
843.479	24262
843.616	24380
843.752	24018
843.889	24098
844.025	24254
844.162	23992
844.298	24235
844.435	24098
844.571	23969
844.708	24136
844.844	24209
844.98	24232
845.117	24228
845.253	24083
845.389	24007
845.525	23935
845.661	23977
845.798	23775
845.934	23832
846.07	23775
846.206	23798
846.342	23889
846.478	23752
846.614	23589
846.75	23524
846.886	23543
847.022	23592
847.158	23600
847.294	23528
847.429	23551
847.565	23493
847.701	23748
847.837	23345
847.972	23143
848.108	23360
848.244	23296
848.379	23200
848.515	23121
848.65	23048
848.786	23109
848.921	23086
849.057	23090
849.192	23235
849.328	23075
849.463	23151
849.598	22968
849.734	22961
849.869	22995
850.004	22927
850.14	22774
850.275	22866
850.41	22736
850.545	22900
850.68	22748
850.815	22892
850.95	22831
851.085	23018
851.22	22976
851.355	22866
851.49	22847
851.625	22797
851.76	22930
851.895	22892
852.03	22809
852.165	22862
852.299	22908
852.434	23018
852.569	22847
852.703	22782
852.838	22965
852.973	22923
853.107	22930
853.242	22896
853.376	22603
853.511	22634
853.645	22592
853.78	22733
853.914	22698
854.048	22656
854.183	22782
854.317	22634
854.451	22923
854.585	22580
854.72	22767
854.854	22805
854.988	22687
855.122	22645
855.256	22462
855.39	22653
855.524	22835
855.658	22721
855.792	22850
855.926	22744
856.06	22835
856.194	22771
856.327	22656
856.461	22569
856.595	22550
856.729	22573
856.862	22869
856.996	22683
857.13	22691
857.263	22820
857.397	22854
857.53	22725
857.664	22748
857.797	22820
857.931	22831
858.064	22706
858.197	22748
858.331	22683
858.464	22550
858.597	22565
858.731	22679
858.864	22767
858.997	22664
859.13	22809
859.263	22649
859.396	22641
859.529	22573
859.662	22580
859.795	22683
859.928	22691
860.061	22831
860.194	22915
860.327	22767
860.46	22782
860.592	22831
860.725	22687
860.858	22771
860.99	22694
861.123	22599
861.256	22603
861.388	22630
861.521	23368
861.653	22508
861.786	22447
861.918	22481
862.05	22554
862.183	22653
862.315	22603
862.447	22687
862.58	22603
862.712	22459
862.844	22344
862.976	22478
863.108	22481
863.24	22744
863.372	22333
863.504	22352
863.636	22405
863.768	22413
863.9	22356
864.032	22253
864.164	22337
864.296	22436
864.428	22405
864.559	22440
864.691	22481
864.823	22246
864.954	22417
865.086	22356
865.217	22249
865.349	22158
865.48	22162
865.612	22265
865.743	22512
865.875	22318
866.006	22135
866.137	22268
866.269	22344
866.4	22261
866.531	22196
866.662	22188
866.793	22147
866.924	22257
867.055	22246
867.186	22204
867.317	22188
867.448	22223
867.579	22291
867.71	22067
867.841	22150
867.972	22112
868.103	22086
868.233	22177
868.364	22166
868.495	22329
868.625	22337
868.756	22466
868.886	22318
869.017	22333
869.147	22542
869.278	22512
869.408	22538
869.539	22329
869.669	22535
869.799	22538
869.929	22512
870.06	22519
870.19	22725
870.32	22752
870.45	22771
870.58	22778
870.71	22919
870.84	22961
870.97	22877
871.1	22965
871.23	23029
871.36	23162
871.489	22885
871.619	22824
871.749	23037
871.879	23079
872.008	23200
872.138	22999
872.267	23132
872.397	22812
872.526	22771
872.656	22904
872.785	22748
872.915	23075
873.044	23212
873.173	23056
873.303	23170
873.432	23003
873.561	23174
873.69	23147
873.819	22812
873.948	23254
874.077	23064
874.206	23052
874.335	23033
874.464	23174
874.593	23162
874.722	23242
874.851	23189
874.979	23299
875.108	23193
875.237	23212
875.365	23124
875.494	23197
875.623	23364
875.751	23227
875.88	23376
876.008	23334
876.136	23512
876.265	23630
876.393	23859
876.521	23767
876.65	23695
876.778	23604
876.906	23490
877.034	23573
877.162	23687
877.29	23589
877.418	23649
877.546	23566
877.674	23619
877.802	23520
877.93	23684
878.058	23509
878.185	23387
878.313	23444
878.441	23649
878.568	23463
878.696	23505
878.824	23726
878.951	23627
879.079	23771
879.206	23832
879.333	23729
879.461	23630
879.588	23707
879.715	23733
879.842	23828
879.97	23657
880.097	23436
880.224	23440
880.351	23478
880.478	23429
880.605	23341
880.732	23364
880.859	23596
880.986	23493
881.112	23349
881.239	23261
881.366	23124
881.493	23147
881.619	22957
881.746	23079
881.872	23003
881.999	22980
882.125	22900
882.252	23014
882.378	22968
882.505	23102
882.631	22725
882.757	22634
882.883	22748
883.01	22675
883.136	22645
883.262	22489
883.388	22493
883.514	22554
883.64	22656
883.766	22527
883.892	22402
884.018	22440
884.143	22729
884.269	22672
884.395	22291
884.52	22318
884.646	22360
884.772	22154
884.897	22150
885.023	22371
885.148	22310
885.274	22405
885.399	22421
885.524	22257
885.65	22405
885.775	22344
885.9	22211
886.025	22386
886.15	22436
886.275	22287
886.4	22143
886.525	22238
886.65	22181
886.775	22109
886.9	22325
887.025	22451
887.149	22257
887.274	22112
887.399	22078
887.523	22166
887.648	22036
887.773	22017
887.897	22063
888.021	22078
888.146	21979
888.27	21991
888.395	22196
888.519	22139
888.643	22131
888.767	22090
888.891	21835
889.015	21838
889.139	21850
889.263	21762
889.387	21922
889.511	21895
889.635	21987
889.759	21778
889.883	21797
890.006	21892
890.13	22036
890.254	21778
890.377	21827
890.501	21595
890.624	21443
890.748	21633
890.871	21504
890.995	21424
891.118	21264
891.241	21348
891.364	21412
891.488	21424
891.611	21264
891.734	21397
891.857	21561
891.98	21408
892.103	21408
892.226	21504
892.349	21313
892.471	21077
892.594	21294
892.717	21249
892.839	21252
892.962	21321
893.085	21321
893.207	21260
893.33	21138
893.452	21150
893.575	21370
893.697	21275
893.819	21367
893.941	21504
894.064	21351
894.186	21302
894.308	21142
894.43	21420
894.552	21412
894.674	21351
894.796	21108
894.918	21214
895.04	21245
895.161	21302
895.283	21298
895.405	21275
895.526	21203
895.648	21275
895.769	21230
895.891	21317
896.012	21287
896.134	21272
896.255	21249
896.376	21211
896.498	21279
896.619	21268
896.74	21268
896.861	21188
896.982	21553
897.103	21694
897.224	21500
897.345	21454
897.466	21332
897.587	21485
897.708	21561
897.828	21473
897.949	21321
898.07	21252
898.19	21233
898.311	21511
898.431	21302
898.552	21447
898.672	21412
898.792	21545
898.913	21538
899.033	21306
899.153	21161
899.273	21074
899.393	21245
899.513	21192
899.633	21192
899.753	21336
899.873	21112
899.993	21089
900.113	21013
900.232	21077
900.352	21058
900.472	21032
900.591	20956
900.711	20948
900.83	20914
900.95	20971
901.069	21036
901.189	20845
901.308	20674
901.427	20511
901.546	20545
901.665	20446
901.784	20560
901.904	20408
902.023	20381
902.141	19978
902.26	20092
902.379	20069
902.498	19967
902.617	20024
902.735	20046
902.854	19951
902.973	19894
903.091	19616
903.21	19765
903.328	19628
903.446	19518
903.565	19441
903.683	19487
903.801	19350
903.919	19373
904.038	19320
904.156	19225
904.274	19289
904.392	19141
904.51	19171
904.627	19118
904.745	19240
904.863	19118
904.981	19053
905.098	18928
905.216	18871
905.334	18806
905.451	18787
905.569	18890
905.686	18916
905.803	18806
905.921	18547
906.038	18741
906.155	18734
906.272	18547
906.389	18597
906.506	18292
906.623	18456
906.74	18551
906.857	18243
906.974	18327
907.091	18486
907.208	18460
907.324	18483
907.441	18277
907.557	18152
907.674	18216
907.79	18049
907.907	18034
908.023	18171
908.139	18117
908.256	18072
908.372	17946
908.488	18026
908.604	17885
908.72	17832
908.836	17805
908.952	17821
909.068	17889
909.184	18011
909.3	17912
909.415	17836
909.531	17718
909.647	17592
909.762	17604
909.878	17379
909.993	17459
910.108	17474
910.224	17535
910.339	17497
910.454	17417
910.57	17315
910.685	17204
910.8	17543
910.915	17425
911.03	17391
911.145	17151
911.259	17086
911.374	17010
911.489	16968
911.604	17018
911.718	16763
911.833	16850
911.947	16679
912.062	16645
912.176	16744
912.291	16847
912.405	16828
912.519	17048
912.633	16961
912.748	16915
912.862	16866
912.976	16592
913.09	16500
913.204	16622
913.318	16683
913.431	16664
913.545	16691
913.659	16733
913.772	16523
913.886	16455
914	16337
914.113	16519
914.226	16523
914.34	16455
914.453	16287
914.566	16485
914.68	16325
914.793	16215
914.906	16188
915.019	15998
915.132	15968
915.245	16044
915.358	16002
915.47	15994
915.583	15987
915.696	15941
915.809	16078
915.921	15972
916.034	15979
916.146	15892
916.259	15907
916.371	15979
916.483	15895
916.595	15876
916.708	15869
916.82	15823
916.932	15755
917.044	15778
917.156	15739
917.268	15652
917.38	15736
917.491	15584
917.603	15580
917.715	15686
917.826	15629
917.938	15553
918.049	15420
918.161	15488
918.272	15739
918.384	15530
918.495	15545
918.606	15397
918.717	15378
918.828	15439
918.939	15306
919.05	15283
919.161	15431
919.272	15154
919.383	15252
919.494	15367
919.604	15481
919.715	15420
919.826	15184
919.936	15336
920.047	15329
920.157	15264
920.267	15462
920.378	15367
920.488	15332
920.598	15458
920.708	15561
920.818	15420
920.928	15439
921.038	15584
921.148	15504
921.258	15264
921.368	15188
921.477	14990
921.587	15024
921.697	15009
921.806	15097
921.916	14811
922.025	14678
922.134	14663
922.244	14621
922.353	14674
922.462	14610
922.571	14492
922.68	14355
922.789	14347
922.898	14339
923.007	14233
923.116	14370
923.224	14290
923.333	14286
923.442	14214
923.55	14142
923.659	14180
923.767	14058
923.876	14100
923.984	14168
924.092	13970
924.201	14046
924.309	14012
924.417	14126
924.525	13902
924.633	13868
924.741	14819
924.849	13811
924.956	13909
925.064	13727
925.172	13708
925.279	13609
925.387	13693
925.494	13578
925.602	13769
925.709	13609
925.816	13578
925.924	13677
926.031	13734
926.138	13597
926.245	13677
926.352	13499
926.459	13719
926.566	13670
926.673	13571
926.779	13308
926.886	13472
926.993	13213
927.099	13293
927.206	13228
927.312	13088
927.419	13228
927.525	13206
927.631	13278
927.737	13038
927.843	13084
927.95	12966
928.056	13000
928.162	13046
928.267	13042
928.373	13658
928.479	13088
928.585	12867
928.69	12901
928.796	12966
928.901	12779
929.007	12745
929.112	12886
929.218	12833
929.323	12703
929.428	12791
929.533	12817
929.638	12631
929.743	12730
929.848	12772
929.953	12616
930.058	12467
930.163	12346
930.267	12433
930.372	12570
930.477	12445
930.581	12654
930.685	12365
930.79	12247
930.894	12277
930.998	12232
931.103	12380
931.207	12095
931.311	11958
931.415	11783
931.519	11627
931.623	11638
