Data from test_V78500241_2330.txt Node
Date: Fri Mar 25 15:57:56 CST 2022
User: usil
Spectrometer: V785-0024
Trigger mode: 0
Integration Time (sec): 4.000000E-1
Scans to average: 1
Nonlinearity correction enabled: false
Boxcar width: 0
Storing dark spectrum: false
XAxis mode: Wavelengths
Number of Pixels in Spectrum: 1024
>>>>>Begin Spectral Data<<<<<
801.071	28721
801.214	28984
801.356	28497
801.499	28462
801.641	28523
801.783	28462
801.926	28379
802.068	28363
802.211	28284
802.353	28284
802.496	28116
802.638	28040
802.78	28158
802.923	27918
803.065	27918
803.208	27968
803.35	28204
803.492	28276
803.635	28405
803.777	28265
803.919	28360
804.061	28588
804.204	28413
804.346	28196
804.488	28188
804.63	28371
804.773	28272
804.915	28466
805.057	28489
805.199	28341
805.341	28356
805.483	28542
805.626	28432
805.768	28352
805.91	28379
806.052	28527
806.194	28428
806.336	28584
806.478	28546
806.62	28504
806.762	28721
806.904	28885
807.046	28953
807.188	29052
807.33	28877
807.472	29056
807.614	28946
807.756	28930
807.898	28835
808.04	28767
808.182	28805
808.324	28748
808.465	28736
808.607	29102
808.749	29288
808.891	29204
809.033	29402
809.174	29368
809.316	29197
809.458	29273
809.6	29132
809.741	29155
809.883	29334
810.025	29474
810.166	29543
810.308	29520
810.45	29452
810.591	29254
810.733	29200
810.875	29200
811.016	29060
811.158	29132
811.299	29296
811.441	29455
811.582	29524
811.724	29162
811.865	29151
812.007	29216
812.148	29235
812.29	29277
812.431	29425
812.573	29665
812.714	29608
812.855	29809
812.997	29828
813.138	29965
813.279	29882
813.421	29843
813.562	29649
813.703	29562
813.845	29463
813.986	29220
814.127	29025
814.268	28839
814.41	28995
814.551	28942
814.692	29006
814.833	28900
814.974	28953
815.115	28858
815.256	28850
815.397	28812
815.539	28763
815.68	28771
815.821	28725
815.962	28797
816.103	28759
816.244	28531
816.385	28519
816.526	28398
816.666	28295
816.807	28185
816.948	28158
817.089	28325
817.23	28204
817.371	28109
817.512	28375
817.653	28124
817.793	28120
817.934	28299
818.075	28299
818.216	28226
818.356	28219
818.497	28040
818.638	27994
818.778	27975
818.919	27911
819.06	28120
819.2	28169
819.341	28246
819.481	28226
819.622	28413
819.762	28656
819.903	28424
820.043	28379
820.184	28375
820.324	28341
820.465	28390
820.605	28535
820.746	28337
820.886	28375
821.026	28421
821.167	28242
821.307	28565
821.447	28234
821.588	28234
821.728	28040
821.868	27953
822.008	27789
822.149	27892
822.289	27728
822.429	27614
822.569	27496
822.709	27355
822.849	27119
822.99	27298
823.13	27272
823.27	27161
823.41	27089
823.55	26906
823.69	27096
823.83	27207
823.97	27066
824.11	26902
824.25	26754
824.389	26929
824.529	26868
824.669	26952
824.809	27104
824.949	26982
825.089	26979
825.228	26975
825.368	26788
825.508	26663
825.648	26842
825.787	26880
825.927	26781
826.067	26735
826.206	26845
826.346	26880
826.485	26769
826.625	26845
826.765	26834
826.904	26800
827.044	26511
827.183	26590
827.323	26579
827.462	26492
827.601	26571
827.741	26396
827.88	26556
828.02	26457
828.159	26389
828.298	26545
828.437	26571
828.577	26336
828.716	26530
828.855	26434
828.994	26221
829.134	26244
829.273	26191
829.412	26088
829.551	26012
829.69	26187
829.829	26286
829.968	26210
830.107	26252
830.246	26180
830.385	25963
830.524	26122
830.663	26016
830.802	25871
830.941	25772
831.08	25670
831.219	25833
831.357	25693
831.496	25966
831.635	25776
831.774	25757
831.913	25635
832.051	25483
832.19	25613
832.329	25662
832.467	25510
832.606	25457
832.744	25369
832.883	25491
833.022	25400
833.16	25422
833.299	25327
833.437	25350
833.576	25518
833.714	25468
833.852	25571
833.991	25499
834.129	25601
834.267	25552
834.406	25655
834.544	25552
834.682	25609
834.821	25438
834.959	25791
835.097	25567
835.235	25586
835.373	25453
835.511	25510
835.65	25282
835.788	25320
835.926	25114
836.064	25133
836.202	25236
836.34	25312
836.478	25487
836.615	25270
836.753	25514
836.891	25346
837.029	25274
837.167	25259
837.305	25213
837.443	25209
837.58	25202
837.718	25202
837.856	25232
837.993	25053
838.131	25194
838.269	25034
838.406	25027
838.544	24966
838.681	24916
838.819	24798
838.956	24585
839.094	24627
839.231	24738
839.369	24768
839.506	24966
839.643	24909
839.781	24608
839.918	24574
840.055	24589
840.193	24601
840.33	24620
840.467	24532
840.604	24665
840.742	24764
840.879	24452
841.016	24407
841.153	24327
841.29	24604
841.427	24456
841.564	24483
841.701	24486
841.838	24437
841.975	24509
842.112	24475
842.249	24437
842.385	24338
842.522	24665
842.659	24311
842.796	24338
842.933	24304
843.069	24296
843.206	24182
843.343	24159
843.479	24308
843.616	24270
843.752	23969
843.889	24098
844.025	24129
844.162	24087
844.298	24140
844.435	23950
844.571	23965
844.708	24133
844.844	24197
844.98	24174
845.117	24163
845.253	23996
845.389	23969
845.525	24011
845.661	23958
845.798	23870
845.934	23802
846.07	23843
846.206	23745
846.342	23847
846.478	23737
846.614	23528
846.75	23395
846.886	23383
847.022	23478
847.158	23600
847.294	23585
847.429	23570
847.565	23440
847.701	23760
847.837	23353
847.972	23090
848.108	23288
848.244	23330
848.379	23052
848.515	23239
848.65	23079
848.786	23094
848.921	23025
849.057	23353
849.192	23246
849.328	23052
849.463	23109
849.598	23025
849.734	23090
849.869	22755
850.004	22801
850.14	22862
850.275	22866
850.41	22767
850.545	22729
850.68	22820
850.815	23010
850.95	22873
851.085	23056
851.22	22930
851.355	22919
851.49	23006
851.625	22824
851.76	22733
851.895	22892
852.03	22706
852.165	22786
852.299	22923
852.434	22908
852.569	22923
852.703	22843
852.838	22866
852.973	22949
853.107	22915
853.242	22809
853.376	22710
853.511	22622
853.645	22656
853.78	22786
853.914	22592
854.048	22675
854.183	22607
854.317	22634
854.451	22790
854.585	22706
854.72	22637
854.854	22694
854.988	22668
855.122	22717
855.256	22554
855.39	22516
855.524	22664
855.658	22702
855.792	22653
855.926	22744
856.06	22748
856.194	22656
856.327	22580
856.461	22580
856.595	22546
856.729	22584
856.862	22812
856.996	22683
857.13	22740
857.263	22706
857.397	22809
857.53	22702
857.664	22786
857.797	22744
857.931	22733
858.064	22603
858.197	22820
858.331	22611
858.464	22557
858.597	22569
858.731	22573
858.864	22694
858.997	22637
859.13	22664
859.263	22626
859.396	22755
859.529	22740
859.662	22672
859.795	22569
859.928	22603
860.061	22725
860.194	22934
860.327	22691
860.46	22698
860.592	22774
860.725	22854
860.858	22763
860.99	22771
861.123	22508
861.256	22622
861.388	22748
861.521	23341
861.653	22603
861.786	22546
861.918	22390
862.05	22596
862.183	22668
862.315	22630
862.447	22713
862.58	22573
862.712	22360
862.844	22337
862.976	22455
863.108	22356
863.24	22748
863.372	22360
863.504	22402
863.636	22462
863.768	22447
863.9	22367
864.032	22272
864.164	22360
864.296	22333
864.428	22402
864.559	22413
864.691	22402
864.823	22367
864.954	22344
865.086	22325
865.217	22246
865.349	22177
865.48	22261
865.612	22169
865.743	22299
865.875	22310
866.006	22306
866.137	22223
866.269	22226
866.4	22139
866.531	22143
866.662	22124
866.793	22230
866.924	22196
867.055	22230
867.186	22169
867.317	22143
867.448	22162
867.579	22120
867.71	22067
867.841	22116
867.972	22261
868.103	22090
868.233	22173
868.364	22139
868.495	22265
868.625	22508
868.756	22535
868.886	22310
869.017	22398
869.147	22428
869.278	22523
869.408	22402
869.539	22398
869.669	22447
869.799	22550
869.929	22557
870.06	22508
870.19	22763
870.32	22645
870.45	22706
870.58	22805
870.71	22828
870.84	22820
870.97	22812
871.1	22805
871.23	23018
871.36	23044
871.489	22915
871.619	23014
871.749	23029
871.879	23079
872.008	23166
872.138	23022
872.267	23025
872.397	22877
872.526	22885
872.656	22862
872.785	22892
872.915	23086
873.044	22987
873.173	23075
873.303	23117
873.432	23151
873.561	23128
873.69	23033
873.819	23064
873.948	22949
874.077	23056
874.206	23079
874.335	23113
874.464	23113
874.593	23269
874.722	23223
874.851	23265
874.979	23284
875.108	23334
875.237	23288
875.365	23136
875.494	23216
875.623	23269
875.751	23235
875.88	23258
876.008	23444
876.136	23501
876.265	23668
876.393	23745
876.521	23726
876.65	23710
876.778	23695
876.906	23589
877.034	23566
877.162	23562
877.29	23547
877.418	23516
877.546	23596
877.674	23512
877.802	23558
877.93	23562
878.058	23672
878.185	23448
878.313	23585
878.441	23604
878.568	23493
878.696	23535
878.824	23600
878.951	23657
879.079	23668
879.206	23889
879.333	23752
879.461	23524
879.588	23649
879.715	23627
879.842	23752
879.97	23604
880.097	23398
880.224	23356
880.351	23467
880.478	23379
880.605	23379
880.732	23429
880.859	23638
880.986	23497
881.112	23417
881.239	23200
881.366	23094
881.493	23025
881.619	22946
881.746	22991
881.872	22991
881.999	22908
882.125	22911
882.252	22999
882.378	22873
882.505	23109
882.631	22797
882.757	22672
882.883	22774
883.01	22573
883.136	22660
883.262	22516
883.388	22413
883.514	22656
883.64	22656
883.766	22402
883.892	22417
884.018	22371
884.143	22531
884.269	22713
884.395	22352
884.52	22185
884.646	22261
884.772	22169
884.897	22143
885.023	22322
885.148	22310
885.274	22379
885.399	22314
885.524	22192
885.65	22394
885.775	22371
885.9	22238
886.025	22276
886.15	22386
886.275	22223
886.4	22169
886.525	22196
886.65	22067
886.775	22234
886.9	22375
887.025	22508
887.149	22207
887.274	21945
887.399	22048
887.523	22059
887.648	21903
887.773	21922
887.897	22044
888.021	22143
888.146	21953
888.27	22032
888.395	22192
888.519	22048
888.643	22082
888.767	21960
888.891	21911
889.015	21857
889.139	21854
889.263	21789
889.387	21983
889.511	22055
889.635	21949
889.759	21648
889.883	21850
890.006	21766
890.13	21842
890.254	21728
890.377	21648
890.501	21473
890.624	21485
890.748	21519
890.871	21431
890.995	21264
891.118	21291
891.241	21348
891.364	21226
891.488	21458
891.611	21370
891.734	21195
891.857	21325
891.98	21351
892.103	21321
892.226	21287
892.349	21211
892.471	21085
892.594	21241
892.717	21195
892.839	21195
892.962	21256
893.085	21306
893.207	21211
893.33	21192
893.452	21093
893.575	21279
893.697	21176
893.819	21279
893.941	21355
894.064	21348
894.186	21207
894.308	21218
894.43	21298
894.552	21370
894.674	21424
894.796	21119
894.918	21116
895.04	21150
895.161	21310
895.283	21298
895.405	21169
895.526	21317
895.648	21104
895.769	21230
895.891	21264
896.012	21245
896.134	21245
896.255	21192
896.376	21207
896.498	21222
896.619	21157
896.74	21192
896.861	21287
896.982	21583
897.103	21564
897.224	21431
897.345	21378
897.466	21321
897.587	21485
897.708	21572
897.828	21416
897.949	21405
898.07	21298
898.19	21310
898.311	21401
898.431	21443
898.552	21306
898.672	21264
898.792	21481
898.913	21488
899.033	21336
899.153	21180
899.273	21226
899.393	21142
899.513	21188
899.633	21123
899.753	21154
899.873	21089
899.993	21032
900.113	21001
900.232	21047
900.352	21039
900.472	20967
900.591	20845
900.711	20990
900.83	20826
900.95	21043
901.069	20902
901.189	20762
901.308	20632
901.427	20374
901.546	20537
901.665	20446
901.784	20495
901.904	20389
902.023	20233
902.141	20100
902.26	19944
902.379	20092
902.498	20020
902.617	19913
902.735	20008
902.854	19913
902.973	19871
903.091	19708
903.21	19753
903.328	19719
903.446	19491
903.565	19499
903.683	19445
903.801	19354
903.919	19396
904.038	19441
904.156	19110
904.274	19240
904.392	19187
904.51	19034
904.627	19156
904.745	19251
904.863	19240
904.981	18951
905.098	18913
905.216	18806
905.334	18859
905.451	18825
905.569	18711
905.686	18894
905.803	18829
905.921	18601
906.038	18681
906.155	18730
906.272	18528
906.389	18566
906.506	18395
906.623	18403
906.74	18422
906.857	18186
906.974	18357
907.091	18471
907.208	18467
907.324	18452
907.441	18152
907.557	18045
907.674	18026
907.79	18068
907.907	18072
908.023	18155
908.139	18159
908.256	18087
908.372	18007
908.488	17954
908.604	17882
908.72	17733
908.836	17828
908.952	17691
909.068	17756
909.184	17904
909.3	17836
909.415	17901
909.531	17718
909.647	17642
909.762	17551
909.878	17512
909.993	17425
910.108	17414
910.224	17452
910.339	17501
910.454	17326
910.57	17322
910.685	17193
910.8	17455
910.915	17372
911.03	17170
911.145	17060
911.259	17086
911.374	17124
911.489	16987
911.604	17041
911.718	16862
911.833	16790
911.947	16797
912.062	16550
912.176	16812
912.291	16721
912.405	16850
912.519	16980
912.633	17003
912.748	16748
912.862	16763
912.976	16675
913.09	16558
913.204	16584
913.318	16634
913.431	16615
913.545	16664
913.659	16702
913.772	16580
913.886	16367
914	16405
914.113	16462
914.226	16474
914.34	16455
914.453	16261
914.566	16428
914.68	16268
914.793	16211
914.906	15960
915.019	16032
915.132	15949
915.245	15899
915.358	15869
915.47	15994
915.583	15960
915.696	15975
915.809	16029
915.921	16101
916.034	15789
916.146	15880
916.259	15842
916.371	16036
916.483	15785
916.595	15888
916.708	15728
916.82	15724
916.932	15751
917.044	15747
917.156	15705
917.268	15713
917.38	15694
917.491	15603
917.603	15568
917.715	15648
917.826	15671
917.938	15553
918.049	15382
918.161	15538
918.272	15625
918.384	15610
918.495	15561
918.606	15336
918.717	15176
918.828	15370
918.939	15287
919.05	15233
919.161	15294
919.272	15100
919.383	15131
919.494	15405
919.604	15580
919.715	15294
919.826	15237
919.936	15252
920.047	15351
920.157	15230
920.267	15435
920.378	15317
920.488	15192
920.598	15447
920.708	15549
920.818	15416
920.928	15405
921.038	15534
921.148	15393
921.258	15272
921.368	15260
921.477	15043
921.587	15062
921.697	14933
921.806	15047
921.916	14861
922.025	14788
922.134	14701
922.244	14579
922.353	14754
922.462	14492
922.571	14484
922.68	14370
922.789	14267
922.898	14237
923.007	14237
923.116	14294
923.224	14309
923.333	14218
923.442	14123
923.55	14153
923.659	14115
923.767	14107
923.876	14107
923.984	14134
924.092	13974
924.201	14077
924.309	13986
924.417	14077
924.525	13947
924.633	13776
924.741	14830
924.849	13742
924.956	13776
925.064	13772
925.172	13624
925.279	13651
925.387	13696
925.494	13670
925.602	13723
925.709	13708
925.816	13464
925.924	13559
926.031	13723
926.138	13518
926.245	13586
926.352	13510
926.459	13510
926.566	13651
926.673	13460
926.779	13388
926.886	13327
926.993	13266
927.099	13213
927.206	13149
927.312	13213
927.419	13209
927.525	13209
927.631	13251
927.737	13091
927.843	13046
927.95	12897
928.056	13057
928.162	13019
928.267	13053
928.373	13556
928.479	13053
928.585	12814
928.69	12981
928.796	12932
928.901	12814
929.007	12764
929.112	12817
929.218	12863
929.323	12753
929.428	12665
929.533	12760
929.638	12688
929.743	12684
929.848	12749
929.953	12692
930.058	12604
930.163	12395
930.267	12494
930.372	12506
930.477	12346
930.581	12544
930.685	12471
930.79	12323
930.894	12304
930.998	12216
931.103	12346
931.207	11897
931.311	11874
931.415	11764
931.519	11646
931.623	11570
