Data from test_V78500241_2154.txt Node
Date: Fri Mar 25 15:56:43 CST 2022
User: usil
Spectrometer: V785-0024
Trigger mode: 0
Integration Time (sec): 4.000000E-1
Scans to average: 1
Nonlinearity correction enabled: false
Boxcar width: 0
Storing dark spectrum: false
XAxis mode: Wavelengths
Number of Pixels in Spectrum: 1024
>>>>>Begin Spectral Data<<<<<
801.071	28824
801.214	28744
801.356	28672
801.499	28538
801.641	28508
801.783	28561
801.926	28470
802.068	28573
802.211	28489
802.353	28306
802.496	28192
802.638	28341
802.78	28265
802.923	28048
803.065	28139
803.208	27994
803.35	28074
803.492	28375
803.635	28485
803.777	28177
803.919	28466
804.061	28694
804.204	28470
804.346	28299
804.488	28253
804.63	28303
804.773	28291
804.915	28485
805.057	28615
805.199	28390
805.341	28668
805.483	28596
805.626	28641
805.768	28489
805.91	28535
806.052	28459
806.194	28538
806.336	28622
806.478	28615
806.62	28618
806.762	28725
806.904	28946
807.046	29064
807.188	28904
807.33	28957
807.472	29117
807.614	28980
807.756	28934
807.898	28850
808.04	28717
808.182	29006
808.324	28748
808.465	28930
808.607	29121
808.749	29322
808.891	29322
809.033	29402
809.174	29341
809.316	29337
809.458	29353
809.6	29204
809.741	29440
809.883	29349
810.025	29566
810.166	29699
810.308	29611
810.45	29512
810.591	29421
810.733	29280
810.875	29330
811.016	29079
811.158	29242
811.299	29303
811.441	29471
811.582	29379
811.724	29315
811.865	29231
812.007	29159
812.148	29174
812.29	29311
812.431	29478
812.573	29573
812.714	29756
812.855	29741
812.997	29961
813.138	30125
813.279	30038
813.421	29851
813.562	29726
813.703	29592
813.845	29463
813.986	29235
814.127	29151
814.268	29064
814.41	28957
814.551	28839
814.692	29022
814.833	28915
814.974	28900
815.115	29143
815.256	28930
815.397	28934
815.539	28953
815.68	28866
815.821	28847
815.962	28755
816.103	28805
816.244	28565
816.385	28679
816.526	28710
816.666	28466
816.807	28314
816.948	28375
817.089	28394
817.23	28135
817.371	28341
817.512	28295
817.653	28291
817.793	28276
817.934	28128
818.075	28295
818.216	28253
818.356	28200
818.497	28139
818.638	27968
818.778	28048
818.919	28173
819.06	28200
819.2	28337
819.341	28390
819.481	28257
819.622	28546
819.762	28542
819.903	28675
820.043	28478
820.184	28398
820.324	28455
820.465	28584
820.605	28401
820.746	28500
820.886	28287
821.026	28451
821.167	28436
821.307	28531
821.447	28428
821.588	28169
821.728	28124
821.868	28097
822.008	27739
822.149	27880
822.289	27808
822.429	27595
822.569	27477
822.709	27447
822.849	27306
822.99	27439
823.13	27291
823.27	27176
823.41	27233
823.55	27055
823.69	27245
823.83	27131
823.97	26944
824.11	27081
824.25	26944
824.389	27074
824.529	27055
824.669	26998
824.809	27028
824.949	26940
825.089	26975
825.228	26929
825.368	26819
825.508	26876
825.648	26857
825.787	26849
825.927	26960
826.067	26899
826.206	26914
826.346	26868
826.485	26956
826.625	26800
826.765	27005
826.904	26864
827.044	26621
827.183	26674
827.323	26587
827.462	26731
827.601	26655
827.741	26579
827.88	26670
828.02	26427
828.159	26522
828.298	26651
828.437	26484
828.577	26629
828.716	26541
828.855	26484
828.994	26286
829.134	26377
829.273	26298
829.412	26305
829.551	26233
829.69	26244
829.829	26221
829.968	26355
830.107	26324
830.246	26225
830.385	26351
830.524	26027
830.663	26096
830.802	26005
830.941	25868
831.08	25837
831.219	25814
831.357	25822
831.496	26054
831.635	25780
831.774	25635
831.913	25753
832.051	25677
832.19	25632
832.329	25727
832.467	25643
832.606	25575
832.744	25468
832.883	25426
833.022	25575
833.16	25525
833.299	25719
833.437	25521
833.576	25559
833.714	25658
833.852	25662
833.991	25719
834.129	25578
834.267	25689
834.406	25639
834.544	25578
834.682	25601
834.821	25537
834.959	25784
835.097	25537
835.235	25586
835.373	25548
835.511	25578
835.65	25487
835.788	25434
835.926	25316
836.064	25324
836.202	25316
836.34	25384
836.478	25441
836.615	25487
836.753	25464
836.891	25479
837.029	25479
837.167	25464
837.305	25339
837.443	25388
837.58	25244
837.718	25213
837.856	25293
837.993	25263
838.131	25118
838.269	25034
838.406	25129
838.544	25118
838.681	24863
838.819	24844
838.956	24848
839.094	24760
839.231	24726
839.369	24989
839.506	24985
839.643	24996
839.781	24791
839.918	24593
840.055	24753
840.193	24783
840.33	24639
840.467	24642
840.604	24684
840.742	24871
840.879	24517
841.016	24547
841.153	24456
841.29	24837
841.427	24608
841.564	24585
841.701	24601
841.838	24612
841.975	24426
842.112	24559
842.249	24429
842.385	24388
842.522	24597
842.659	24365
842.796	24323
842.933	24140
843.069	24311
843.206	24304
843.343	24464
843.479	24289
843.616	24353
843.752	24140
843.889	24258
844.025	24270
844.162	24110
844.298	24068
844.435	24171
844.571	24209
844.708	24201
844.844	24285
844.98	24384
845.117	24323
845.253	24186
845.389	23946
845.525	23996
845.661	23996
845.798	23874
845.934	23904
846.07	23790
846.206	23942
846.342	24114
846.478	23794
846.614	23577
846.75	23672
846.886	23604
847.022	23764
847.158	23638
847.294	23649
847.429	23531
847.565	23577
847.701	23840
847.837	23292
847.972	23235
848.108	23398
848.244	23440
848.379	23337
848.515	23025
848.65	23025
848.786	23151
848.921	23296
849.057	23250
849.192	23265
849.328	23220
849.463	23261
849.598	23105
849.734	22972
849.869	23094
850.004	22946
850.14	23117
850.275	22923
850.41	22900
850.545	22908
850.68	22881
850.815	23037
850.95	22961
851.085	23315
851.22	23029
851.355	22923
851.49	22995
851.625	22797
851.76	22915
851.895	22805
852.03	22904
852.165	22972
852.299	23079
852.434	23067
852.569	22923
852.703	22736
852.838	22991
852.973	22980
853.107	22965
853.242	22847
853.376	22801
853.511	22706
853.645	22759
853.78	22790
853.914	22854
854.048	22744
854.183	22729
854.317	22911
854.451	22953
854.585	22664
854.72	22771
854.854	22771
854.988	22733
855.122	22672
855.256	22550
855.39	22752
855.524	22778
855.658	22774
855.792	22786
855.926	22797
856.06	22934
856.194	22790
856.327	22752
856.461	22771
856.595	22736
856.729	22675
856.862	22831
856.996	22805
857.13	22831
857.263	22847
857.397	22915
857.53	22778
857.664	22748
857.797	22843
857.931	22908
858.064	22828
858.197	22763
858.331	22683
858.464	22672
858.597	22713
858.731	22790
858.864	22706
858.997	22748
859.13	22698
859.263	22908
859.396	22828
859.529	22733
859.662	22733
859.795	22793
859.928	22725
860.061	22953
860.194	22949
860.327	22801
860.46	22900
860.592	22820
860.725	22919
860.858	22904
860.99	22869
861.123	22679
861.256	22687
861.388	22809
861.521	23383
861.653	22641
861.786	22618
861.918	22622
862.05	22462
862.183	22645
862.315	22717
862.447	22774
862.58	22664
862.712	22382
862.844	22402
862.976	22557
863.108	22531
863.24	22889
863.372	22367
863.504	22519
863.636	22535
863.768	22478
863.9	22462
864.032	22390
864.164	22394
864.296	22432
864.428	22512
864.559	22516
864.691	22516
864.823	22447
864.954	22455
865.086	22367
865.217	22421
865.349	22356
865.48	22306
865.612	22409
865.743	22379
865.875	22333
866.006	22310
866.137	22360
866.269	22284
866.4	22219
866.531	22363
866.662	22291
866.793	22322
866.924	22265
867.055	22207
867.186	22287
867.317	22360
867.448	22131
867.579	22284
867.71	22074
867.841	22147
867.972	22226
868.103	22226
868.233	22265
868.364	22398
868.495	22215
868.625	22447
868.756	22626
868.886	22398
869.017	22470
869.147	22497
869.278	22687
869.408	22569
869.539	22466
869.669	22519
869.799	22478
869.929	22637
870.06	22485
870.19	22778
870.32	22744
870.45	22896
870.58	22938
870.71	22919
870.84	23025
870.97	22729
871.1	23018
871.23	23064
871.36	23052
871.489	23060
871.619	23025
871.749	23071
871.879	23060
872.008	23212
872.138	23136
872.267	23132
872.397	22930
872.526	22915
872.656	22900
872.785	22972
872.915	23162
873.044	23471
873.173	23071
873.303	23155
873.432	23105
873.561	23235
873.69	23098
873.819	23220
873.948	23121
874.077	23048
874.206	23193
874.335	23090
874.464	23246
874.593	23459
874.722	23223
874.851	23288
874.979	23288
875.108	23372
875.237	23223
875.365	23227
875.494	23341
875.623	23288
875.751	23277
875.88	23395
876.008	23398
876.136	23455
876.265	23585
876.393	23786
876.521	23729
876.65	23847
876.778	23642
876.906	23646
877.034	23695
877.162	23665
877.29	23710
877.418	23554
877.546	23707
877.674	23570
877.802	23729
877.93	23619
878.058	23452
878.185	23539
878.313	23497
878.441	23623
878.568	23376
878.696	23573
878.824	23649
878.951	23642
879.079	23863
879.206	23893
879.333	23779
879.461	23668
879.588	23786
879.715	23855
879.842	23893
879.97	23737
880.097	23455
880.224	23406
880.351	23455
880.478	23478
880.605	23299
880.732	23463
880.859	23619
880.986	23421
881.112	23512
881.239	23372
881.366	23231
881.493	23200
881.619	22927
881.746	23140
881.872	23067
881.999	22934
882.125	22961
882.252	23113
882.378	22942
882.505	23170
882.631	23018
882.757	22824
882.883	22835
883.01	22729
883.136	22645
883.262	22607
883.388	22440
883.514	22744
883.64	22611
883.766	22641
883.892	22424
884.018	22478
884.143	22672
884.269	22637
884.395	22451
884.52	22310
884.646	22371
884.772	22249
884.897	22158
885.023	22272
885.148	22318
885.274	22508
885.399	22451
885.524	22291
885.65	22386
885.775	22360
885.9	22322
886.025	22443
886.15	22299
886.275	22325
886.4	22207
886.525	22284
886.65	22200
886.775	22310
886.9	22356
887.025	22493
887.149	22272
887.274	22070
887.399	22135
887.523	22139
887.648	22010
887.773	22044
887.897	22268
888.021	22090
888.146	21960
888.27	22188
888.395	22131
888.519	22166
888.643	22097
888.767	22131
888.891	21998
889.015	21808
889.139	22021
889.263	21842
889.387	21983
889.511	22044
889.635	21964
889.759	21854
889.883	21857
890.006	21907
890.13	21907
890.254	21846
890.377	21739
890.501	21671
890.624	21542
890.748	21656
890.871	21599
890.995	21443
891.118	21367
891.241	21439
891.364	21405
891.488	21561
891.611	21462
891.734	21386
891.857	21431
891.98	21420
892.103	21405
892.226	21450
892.349	21230
892.471	21241
892.594	21321
892.717	21283
892.839	21302
892.962	21348
893.085	21294
893.207	21203
893.33	21214
893.452	21252
893.575	21207
893.697	21313
893.819	21412
893.941	21488
894.064	21408
894.186	21367
894.308	21260
894.43	21572
894.552	21435
894.674	21321
894.796	21230
894.918	21317
895.04	21306
895.161	21302
895.283	21321
895.405	21287
895.526	21260
895.648	21294
895.769	21199
895.891	21298
896.012	21332
896.134	21241
896.255	21321
896.376	21249
896.498	21310
896.619	21252
896.74	21268
896.861	21401
896.982	21580
897.103	21690
897.224	21443
897.345	21481
897.466	21424
897.587	21583
897.708	21610
897.828	21583
897.949	21496
898.07	21389
898.19	21283
898.311	21477
898.431	21504
898.552	21317
898.672	21568
898.792	21458
898.913	21447
899.033	21344
899.153	21344
899.273	21157
899.393	21272
899.513	21150
899.633	21161
899.753	21294
899.873	21074
899.993	21245
900.113	21211
900.232	21230
900.352	21150
900.472	20925
900.591	20819
900.711	21005
900.83	20906
900.95	21055
901.069	21077
901.189	20872
901.308	20663
901.427	20568
901.546	20404
901.665	20564
901.784	20438
901.904	20522
902.023	20427
902.141	20164
902.26	20008
902.379	20077
902.498	20050
902.617	19925
902.735	20084
902.854	20031
902.973	19837
903.091	19712
903.21	19674
903.328	19830
903.446	19586
903.565	19510
903.683	19487
903.801	19354
903.919	19438
904.038	19426
904.156	19278
904.274	19339
904.392	19255
904.51	19308
904.627	19251
904.745	19312
904.863	19228
904.981	19023
905.098	18966
905.216	18905
905.334	18916
905.451	18787
905.569	18802
905.686	18935
905.803	18935
905.921	18646
906.038	18859
906.155	18703
906.272	18654
906.389	18532
906.506	18494
906.623	18422
906.74	18456
906.857	18292
906.974	18270
907.091	18407
907.208	18502
907.324	18330
907.441	18426
907.557	18129
907.674	18095
907.79	17935
907.907	17980
908.023	18258
908.139	18098
908.256	18098
908.372	17923
908.488	18026
908.604	17843
908.72	17908
908.836	17897
908.952	17722
909.068	17840
909.184	17866
909.3	17817
909.415	17809
909.531	17885
909.647	17524
909.762	17585
909.878	17543
909.993	17695
910.108	17512
910.224	17520
910.339	17509
910.454	17360
910.57	17353
910.685	17261
910.8	17528
910.915	17501
911.03	17330
911.145	17242
911.259	17204
911.374	17143
911.489	17010
911.604	17033
911.718	16809
911.833	16946
911.947	16763
912.062	16679
912.176	16809
912.291	16915
912.405	16873
912.519	16904
912.633	16953
912.748	16877
912.862	16843
912.976	16710
913.09	16588
913.204	16474
913.318	16664
913.431	16672
913.545	16774
913.659	16771
913.772	16569
913.886	16573
914	16485
914.113	16508
914.226	16554
914.34	16500
914.453	16329
914.566	16504
914.68	16306
914.793	16306
914.906	16131
915.019	16040
915.132	15975
915.245	16074
915.358	16109
915.47	15922
915.583	16093
915.696	16059
915.809	16090
915.921	16154
916.034	15991
916.146	15930
916.259	15903
916.371	16032
916.483	15998
916.595	15842
916.708	15873
916.82	15819
916.932	15850
917.044	15709
917.156	15736
917.268	15625
917.38	15667
917.491	15637
917.603	15614
917.715	15656
917.826	15686
917.938	15523
918.049	15386
918.161	15614
918.272	15705
918.384	15736
918.495	15610
918.606	15454
918.717	15397
918.828	15507
918.939	15428
919.05	15291
919.161	15348
919.272	15058
919.383	15226
919.494	15386
919.604	15580
919.715	15382
919.826	15256
919.936	15268
920.047	15454
920.157	15359
920.267	15481
920.378	15233
920.488	15241
920.598	15450
920.708	15690
920.818	15545
920.928	15393
921.038	15511
921.148	15580
921.258	15169
921.368	15169
921.477	15085
921.587	15108
921.697	14887
921.806	15051
921.916	14769
922.025	14727
922.134	14667
922.244	14682
922.353	14727
922.462	14575
922.571	14556
922.68	14195
922.789	14347
922.898	14343
923.007	14271
923.116	14332
923.224	14187
923.333	14309
923.442	14180
923.55	14088
923.659	14054
923.767	14180
923.876	14073
923.984	14111
924.092	14046
924.201	14054
924.309	13986
924.417	13951
924.525	13841
924.633	13944
924.741	14636
924.849	13738
924.956	13890
925.064	13681
925.172	13636
925.279	13636
925.387	13712
925.494	13689
925.602	13780
925.709	13803
925.816	13613
925.924	13586
926.031	13674
926.138	13586
926.245	13685
926.352	13552
926.459	13685
926.566	13696
926.673	13571
926.779	13441
926.886	13449
926.993	13274
927.099	13232
927.206	13183
927.312	13244
927.419	13236
927.525	13221
927.631	13171
927.737	13133
927.843	13118
927.95	12871
928.056	13038
928.162	12958
928.267	13080
928.373	13616
928.479	13084
928.585	12875
928.69	13019
928.796	13027
928.901	12859
929.007	12776
929.112	12932
929.218	12859
929.323	12757
929.428	12734
929.533	12894
929.638	12684
929.743	12703
929.848	12745
929.953	12757
930.058	12506
930.163	12346
930.267	12399
930.372	12544
930.477	12407
930.581	12525
930.685	12350
930.79	12239
930.894	12346
930.998	12285
931.103	12376
931.207	12057
931.311	11961
931.415	11874
931.519	11733
931.623	11608
