Data from test_V78500241_2620.txt Node
Date: Fri Mar 25 15:59:57 CST 2022
User: usil
Spectrometer: V785-0024
Trigger mode: 0
Integration Time (sec): 4.000000E-1
Scans to average: 1
Nonlinearity correction enabled: false
Boxcar width: 0
Storing dark spectrum: false
XAxis mode: Wavelengths
Number of Pixels in Spectrum: 1024
>>>>>Begin Spectral Data<<<<<
801.071	29052
801.214	29022
801.356	28915
801.499	28713
801.641	28596
801.783	28679
801.926	28786
802.068	28660
802.211	28546
802.353	28550
802.496	28356
802.638	28379
802.78	28322
802.923	28287
803.065	28223
803.208	28276
803.35	28504
803.492	28474
803.635	28504
803.777	28535
803.919	28634
804.061	29006
804.204	28561
804.346	28489
804.488	28421
804.63	28599
804.773	28436
804.915	28634
805.057	28866
805.199	28538
805.341	28778
805.483	28812
805.626	28843
805.768	28535
805.91	28850
806.052	28763
806.194	28748
806.336	29025
806.478	28786
806.62	28995
806.762	28736
806.904	29079
807.046	29273
807.188	29258
807.33	29299
807.472	29216
807.614	29079
807.756	29193
807.898	28984
808.04	29037
808.182	28961
808.324	29006
808.465	29048
808.607	29444
808.749	29573
808.891	29482
809.033	29638
809.174	29528
809.316	29410
809.458	29452
809.6	29433
809.741	29630
809.883	29592
810.025	29817
810.166	29653
810.308	29707
810.45	29691
810.591	29611
810.733	29512
810.875	29436
811.016	29398
811.158	29436
811.299	29615
811.441	29611
811.582	29642
811.724	29592
811.865	29467
812.007	29566
812.148	29596
812.29	29505
812.431	29767
812.573	29882
812.714	29866
812.855	30049
812.997	30102
813.138	30201
813.279	30144
813.421	29904
813.562	30095
813.703	29809
813.845	29714
813.986	29528
814.127	29292
814.268	29162
814.41	29117
814.551	29193
814.692	29204
814.833	29117
814.974	29296
815.115	29189
815.256	29162
815.397	29079
815.539	29105
815.68	29128
815.821	28957
815.962	29071
816.103	28957
816.244	28816
816.385	28850
816.526	28687
816.666	28535
816.807	28599
816.948	28653
817.089	28672
817.23	28573
817.371	28569
817.512	28573
817.653	28523
817.793	28409
817.934	28565
818.075	28516
818.216	28451
818.356	28531
818.497	28527
818.638	28219
818.778	28299
818.919	28371
819.06	28424
819.2	28352
819.341	28459
819.481	28557
819.622	28645
819.762	28809
819.903	28896
820.043	28862
820.184	28603
820.324	28626
820.465	28736
820.605	28729
820.746	28668
820.886	28493
821.026	28584
821.167	28618
821.307	28710
821.447	28417
821.588	28375
821.728	28291
821.868	28181
822.008	28040
822.149	28044
822.289	27876
822.429	27641
822.569	27542
822.709	27667
822.849	27595
822.99	27534
823.13	27526
823.27	27504
823.41	27374
823.55	27260
823.69	27203
823.83	27431
823.97	27317
824.11	27176
824.25	27252
824.389	27192
824.529	27241
824.669	27203
824.809	27211
824.949	27207
825.089	27230
825.228	27207
825.368	26975
825.508	27165
825.648	27245
825.787	27017
825.927	27233
826.067	27020
826.206	27081
826.346	27138
826.485	27001
826.625	27055
826.765	27047
826.904	27199
827.044	26769
827.183	26815
827.323	26849
827.462	26754
827.601	26864
827.741	26712
827.88	26781
828.02	26712
828.159	26758
828.298	26845
828.437	26925
828.577	26777
828.716	26739
828.855	26598
828.994	26457
829.134	26450
829.273	26579
829.412	26381
829.551	26415
829.69	26480
829.829	26560
829.968	26568
830.107	26651
830.246	26507
830.385	26263
830.524	26381
830.663	26248
830.802	26157
830.941	26168
831.08	25997
831.219	26062
831.357	26176
831.496	26400
831.635	26100
831.774	26065
831.913	25837
832.051	25856
832.19	25909
832.329	25902
832.467	25731
832.606	25742
832.744	25635
832.883	25780
833.022	25685
833.16	25712
833.299	25761
833.437	25799
833.576	25890
833.714	25765
833.852	25814
833.991	25704
834.129	25860
834.267	25784
834.406	25875
834.544	25890
834.682	25860
834.821	25837
834.959	25986
835.097	25822
835.235	25875
835.373	25852
835.511	25700
835.65	25624
835.788	25681
835.926	25567
836.064	25453
836.202	25571
836.34	25681
836.478	25776
836.615	25708
836.753	25586
836.891	25719
837.029	25685
837.167	25510
837.305	25521
837.443	25483
837.58	25324
837.718	25472
837.856	25430
837.993	25388
838.131	25381
838.269	25331
838.406	25293
838.544	25350
838.681	25129
838.819	25088
838.956	24890
839.094	24939
839.231	24989
839.369	25240
839.506	25396
839.643	25069
839.781	24852
839.918	24894
840.055	24894
840.193	24806
840.33	24871
840.467	24798
840.604	24973
840.742	25065
840.879	24700
841.016	24764
841.153	24597
841.29	24939
841.427	24909
841.564	24886
841.701	24787
841.838	24696
841.975	24871
842.112	24798
842.249	24661
842.385	24631
842.522	24810
842.659	24772
842.796	24658
842.933	24566
843.069	24494
843.206	24536
843.343	24582
843.479	24688
843.616	24528
843.752	24350
843.889	24460
844.025	24456
844.162	24372
844.298	24395
844.435	24388
844.571	24186
844.708	24372
844.844	24460
844.98	24547
845.117	24399
845.253	24410
845.389	24315
845.525	24323
845.661	24098
845.798	24125
845.934	24155
846.07	24152
846.206	24003
846.342	24292
846.478	24060
846.614	23882
846.75	23722
846.886	23745
847.022	23813
847.158	23809
847.294	23843
847.429	23916
847.565	23665
847.701	24038
847.837	23448
847.972	23459
848.108	23509
848.244	23531
848.379	23509
848.515	23379
848.65	23395
848.786	23383
848.921	23364
849.057	23429
849.192	23463
849.328	23531
849.463	23368
849.598	23307
849.734	23231
849.869	23200
850.004	23098
850.14	23330
850.275	23105
850.41	23022
850.545	23166
850.68	23109
850.815	23200
850.95	23159
851.085	23174
851.22	23185
851.355	23197
851.49	23098
851.625	23128
851.76	23185
851.895	23056
852.03	23014
852.165	23178
852.299	23181
852.434	23227
852.569	23208
852.703	23064
852.838	23212
852.973	23231
853.107	23124
853.242	23060
853.376	22980
853.511	22820
853.645	22862
853.78	23029
853.914	22911
854.048	22987
854.183	22850
854.317	23018
854.451	23288
854.585	22919
854.72	22953
854.854	23048
854.988	22953
855.122	22968
855.256	22847
855.39	22919
855.524	23044
855.658	22987
855.792	23010
855.926	22930
856.06	22972
856.194	23048
856.327	22774
856.461	22957
856.595	22847
856.729	22915
856.862	23029
856.996	22968
857.13	22980
857.263	22976
857.397	23029
857.53	22831
857.664	23105
857.797	23014
857.931	23086
858.064	22911
858.197	22957
858.331	22927
858.464	22965
858.597	22774
858.731	23029
858.864	22812
858.997	22877
859.13	22942
859.263	22885
859.396	22999
859.529	22949
859.662	22885
859.795	22908
859.928	22733
860.061	23140
860.194	23102
860.327	22946
860.46	22999
860.592	23025
860.725	23064
860.858	23067
860.99	22877
861.123	22908
861.256	22953
861.388	23094
861.521	23630
861.653	22850
861.786	22683
861.918	22782
862.05	22896
862.183	22847
862.315	23033
862.447	22919
862.58	22790
862.712	22694
862.844	22664
862.976	22835
863.108	22774
863.24	22934
863.372	22618
863.504	22656
863.636	22687
863.768	22755
863.9	22691
864.032	22459
864.164	22550
864.296	22656
864.428	22592
864.559	22820
864.691	22702
864.823	22557
864.954	22607
865.086	22664
865.217	22603
865.349	22405
865.48	22512
865.612	22527
865.743	22687
865.875	22615
866.006	22379
866.137	22447
866.269	22573
866.4	22447
866.531	22409
866.662	22375
866.793	22382
866.924	22550
867.055	22459
867.186	22459
867.317	22459
867.448	22306
867.579	22379
867.71	22318
867.841	22432
867.972	22497
868.103	22470
868.233	22504
868.364	22371
868.495	22584
868.625	22649
868.756	22801
868.886	22592
869.017	22698
869.147	22805
869.278	22767
869.408	22721
869.539	22694
869.669	22790
869.799	22687
869.929	22908
870.06	22725
870.19	22896
870.32	22980
870.45	23025
870.58	23197
870.71	23189
870.84	23174
870.97	23121
871.1	23075
871.23	23200
871.36	23288
871.489	23170
871.619	23242
871.749	23269
871.879	23372
872.008	23288
872.138	23216
872.267	23376
872.397	23105
872.526	23079
872.656	23197
872.785	23155
872.915	23235
873.044	23379
873.173	23216
873.303	23326
873.432	23292
873.561	23349
873.69	23242
873.819	23307
873.948	23360
874.077	23299
874.206	23288
874.335	23360
874.464	23474
874.593	23535
874.722	23482
874.851	23505
874.979	23573
875.108	23535
875.237	23448
875.365	23353
875.494	23467
875.623	23558
875.751	23524
875.88	23554
876.008	23562
876.136	23653
876.265	24030
876.393	24159
876.521	24041
876.65	23931
876.778	23973
876.906	23843
877.034	23847
877.162	23783
877.29	23817
877.418	23863
877.546	23786
877.674	23897
877.802	23889
877.93	23802
878.058	23661
878.185	23752
878.313	23821
878.441	23752
878.568	23760
878.696	23824
878.824	23828
878.951	23824
879.079	24007
879.206	24129
879.333	23988
879.461	23843
879.588	23999
879.715	24015
879.842	24007
879.97	23855
880.097	23748
880.224	23699
880.351	23649
880.478	23630
880.605	23684
880.732	23722
880.859	23771
880.986	23718
881.112	23661
881.239	23554
881.366	23337
881.493	23364
881.619	23250
881.746	23231
881.872	23284
881.999	23216
882.125	23086
882.252	23227
882.378	23121
882.505	23181
882.631	22968
882.757	22953
882.883	22965
883.01	22843
883.136	22854
883.262	22904
883.388	22694
883.514	22953
883.64	23010
883.766	22824
883.892	22687
884.018	22675
884.143	22748
884.269	22866
884.395	22531
884.52	22512
884.646	22493
884.772	22474
884.897	22394
885.023	22546
885.148	22641
885.274	22713
885.399	22542
885.524	22516
885.65	22546
885.775	22519
885.9	22451
886.025	22603
886.15	22649
886.275	22504
886.4	22481
886.525	22421
886.65	22455
886.775	22413
886.9	22615
887.025	22637
887.149	22443
887.274	22272
887.399	22402
887.523	22207
887.648	22223
887.773	22120
887.897	22303
888.021	22158
888.146	22192
888.27	22367
888.395	22261
888.519	22215
888.643	22249
888.767	22310
888.891	22128
889.015	22154
889.139	22154
889.263	22131
889.387	22040
889.511	22280
889.635	22234
889.759	22002
889.883	22116
890.006	22086
890.13	22120
890.254	21899
890.377	21941
890.501	21728
890.624	21903
890.748	21876
890.871	21694
890.995	21606
891.118	21538
891.241	21485
891.364	21496
891.488	21713
891.611	21599
891.734	21618
891.857	21618
891.98	21610
892.103	21679
892.226	21557
892.349	21557
892.471	21348
892.594	21450
892.717	21526
892.839	21526
892.962	21329
893.085	21549
893.207	21488
893.33	21306
893.452	21454
893.575	21515
893.697	21450
893.819	21644
893.941	21679
894.064	21557
894.186	21469
894.308	21412
894.43	21576
894.552	21580
894.674	21534
894.796	21428
894.918	21336
895.04	21420
895.161	21538
895.283	21488
895.405	21310
895.526	21393
895.648	21397
895.769	21519
895.891	21542
896.012	21572
896.134	21534
896.255	21443
896.376	21363
896.498	21553
896.619	21416
896.74	21351
896.861	21424
896.982	21781
897.103	21766
897.224	21709
897.345	21652
897.466	21534
897.587	21884
897.708	21671
897.828	21583
897.949	21507
898.07	21443
898.19	21553
898.311	21682
898.431	21641
898.552	21656
898.672	21736
898.792	21652
898.913	21625
899.033	21443
899.153	21443
899.273	21264
899.393	21348
899.513	21367
899.633	21294
899.753	21389
899.873	21344
899.993	21367
900.113	21283
900.232	21298
900.352	21325
900.472	21226
900.591	21138
900.711	21131
900.83	21085
900.95	21165
901.069	21226
901.189	20872
901.308	20708
901.427	20701
901.546	20629
901.665	20716
901.784	20712
901.904	20545
902.023	20438
902.141	20259
902.26	20214
902.379	20195
902.498	20221
902.617	20164
902.735	20168
902.854	20172
902.973	19986
903.091	19936
903.21	19852
903.328	19780
903.446	19704
903.565	19616
903.683	19575
903.801	19540
903.919	19719
904.038	19563
904.156	19358
904.274	19559
904.392	19457
904.51	19278
904.627	19491
904.745	19331
904.863	19502
904.981	19126
905.098	19099
905.216	18996
905.334	19069
905.451	19065
905.569	19034
905.686	19088
905.803	18996
905.921	18863
906.038	18867
906.155	18993
906.272	18787
906.389	18791
906.506	18582
906.623	18604
906.74	18483
906.857	18464
906.974	18528
907.091	18593
907.208	18703
907.324	18620
907.441	18555
907.557	18346
907.674	18258
907.79	18194
907.907	18273
908.023	18319
908.139	18224
908.256	18254
908.372	18190
908.488	18235
908.604	17996
908.72	17996
908.836	17961
908.952	17904
909.068	17996
909.184	18133
909.3	18019
909.415	18034
909.531	18003
909.647	17722
909.762	17729
909.878	17642
909.993	17722
910.108	17695
910.224	17577
910.339	17535
910.454	17592
910.57	17455
910.685	17452
910.8	17786
910.915	17581
911.03	17524
911.145	17315
911.259	17258
911.374	17193
911.489	17155
911.604	17140
911.718	16987
911.833	17037
911.947	17060
912.062	16953
912.176	16949
912.291	16995
912.405	16927
912.519	17220
912.633	17124
912.748	17109
912.862	16999
912.976	16843
913.09	16683
913.204	16755
913.318	16805
913.431	16866
913.545	16847
913.659	16885
913.772	16687
913.886	16630
914	16626
914.113	16679
914.226	16752
914.34	16721
914.453	16478
914.566	16611
914.68	16478
914.793	16398
914.906	16367
915.019	16173
915.132	16059
915.245	16150
915.358	16101
915.47	16150
915.583	16238
915.696	16234
915.809	16249
915.921	16207
916.034	16086
916.146	16120
916.259	16025
916.371	16147
916.483	16040
916.595	16021
916.708	15979
916.82	15994
916.932	15884
917.044	15831
917.156	15869
917.268	15755
917.38	15812
917.491	15743
917.603	15819
917.715	15766
917.826	15823
917.938	15637
918.049	15656
918.161	15770
918.272	15766
918.384	15781
918.495	15717
918.606	15591
918.717	15424
918.828	15526
918.939	15488
919.05	15408
919.161	15439
919.272	15287
919.383	15317
919.494	15553
919.604	15652
919.715	15481
919.826	15401
919.936	15435
920.047	15523
920.157	15507
920.267	15637
920.378	15462
920.488	15500
920.598	15538
920.708	15652
920.818	15519
920.928	15564
921.038	15800
921.148	15701
921.258	15332
921.368	15370
921.477	15245
921.587	15161
921.697	15005
921.806	15169
921.916	15108
922.025	14864
922.134	14792
922.244	14811
922.353	14857
922.462	14743
922.571	14697
922.68	14484
922.789	14465
922.898	14434
923.007	14396
923.116	14370
923.224	14450
923.333	14419
923.442	14317
923.55	14191
923.659	14237
923.767	14328
923.876	14157
923.984	14290
924.092	14107
924.201	14153
924.309	14191
924.417	14199
924.525	14081
924.633	14115
924.741	15028
924.849	13883
924.956	14020
925.064	13811
925.172	13750
925.279	13811
925.387	13890
925.494	13712
925.602	13978
925.709	13826
925.816	13731
925.924	13708
926.031	13803
926.138	13814
926.245	13826
926.352	13639
926.459	13746
926.566	13765
926.673	13620
926.779	13563
926.886	13468
926.993	13422
927.099	13396
927.206	13324
927.312	13259
927.419	13384
927.525	13350
927.631	13297
927.737	13293
927.843	13122
927.95	13042
928.056	13095
928.162	13141
928.267	13171
928.373	13731
928.479	13247
928.585	12970
928.69	13080
928.796	13126
928.901	12985
929.007	12829
929.112	12932
929.218	12958
929.323	13000
929.428	12848
929.533	12897
929.638	12738
929.743	12764
929.848	12886
929.953	12703
930.058	12669
930.163	12460
930.267	12506
930.372	12650
930.477	12429
930.581	12688
930.685	12445
930.79	12429
930.894	12357
930.998	12498
931.103	12563
931.207	12178
931.311	12064
931.415	12003
931.519	11726
931.623	11798
