Data from test_V78500241_152.txt Node
Date: Fri Mar 25 15:42:51 CST 2022
User: usil
Spectrometer: V785-0024
Trigger mode: 0
Integration Time (sec): 4.000000E-1
Scans to average: 1
Nonlinearity correction enabled: false
Boxcar width: 0
Storing dark spectrum: false
XAxis mode: Wavelengths
Number of Pixels in Spectrum: 1024
>>>>>Begin Spectral Data<<<<<
801.071	29611
801.214	29623
801.356	29280
801.499	29375
801.641	29136
801.783	29261
801.926	29208
802.068	29098
802.211	29124
802.353	29022
802.496	28869
802.638	28744
802.78	28786
802.923	28653
803.065	28694
803.208	28839
803.35	28949
803.492	28972
803.635	29048
803.777	28835
803.919	28968
804.061	29204
804.204	28949
804.346	28858
804.488	28858
804.63	28843
804.773	28835
804.915	28927
805.057	28938
805.199	28892
805.341	28961
805.483	28957
805.626	28965
805.768	28888
805.91	29064
806.052	29140
806.194	28888
806.336	29155
806.478	29037
806.62	28881
806.762	29018
806.904	29459
807.046	29410
807.188	29474
807.33	29471
807.472	29463
807.614	29246
807.756	29383
807.898	29402
808.04	29250
808.182	29025
808.324	29143
808.465	29200
808.607	29368
808.749	29448
808.891	29752
809.033	29741
809.174	29676
809.316	29547
809.458	29676
809.6	29440
809.741	29630
809.883	29695
810.025	29893
810.166	29695
810.308	29836
810.45	29707
810.591	29726
810.733	29668
810.875	29528
811.016	29539
811.158	29364
811.299	29649
811.441	29627
811.582	29490
811.724	29554
811.865	29585
812.007	29596
812.148	29406
812.29	29657
812.431	29611
812.573	29718
812.714	29897
812.855	29977
812.997	30041
813.138	30247
813.279	30121
813.421	29958
813.562	29973
813.703	29714
813.845	29627
813.986	29448
814.127	29132
814.268	29250
814.41	29102
814.551	29189
814.692	29315
814.833	29094
814.974	28999
815.115	29109
815.256	28930
815.397	28968
815.539	28896
815.68	28752
815.821	28812
815.962	28888
816.103	28710
816.244	28797
816.385	28573
816.526	28462
816.666	28436
816.807	28173
816.948	28360
817.089	28344
817.23	28284
817.371	28284
817.512	28295
817.653	28329
817.793	28230
817.934	28249
818.075	28120
818.216	28090
818.356	28242
818.497	28044
818.638	28010
818.778	27922
818.919	27876
819.06	28010
819.2	28090
819.341	28200
819.481	28097
819.622	28390
819.762	28459
819.903	28352
820.043	28371
820.184	28097
820.324	28207
820.465	28246
820.605	28249
820.746	28211
820.886	28147
821.026	28268
821.167	28048
821.307	28230
821.447	28055
821.588	27964
821.728	27914
821.868	27644
822.008	27469
822.149	27610
822.289	27572
822.429	27405
822.569	27283
822.709	27241
822.849	27062
822.99	27058
823.13	27108
823.27	27070
823.41	26895
823.55	26731
823.69	26838
823.83	26796
823.97	26872
824.11	26663
824.25	26648
824.389	26678
824.529	26686
824.669	26648
824.809	26773
824.949	26716
825.089	26693
825.228	26655
825.368	26568
825.508	26412
825.648	26355
825.787	26473
825.927	26602
826.067	26355
826.206	26317
826.346	26568
826.485	26587
826.625	26514
826.765	26552
826.904	26507
827.044	26248
827.183	26237
827.323	26111
827.462	26225
827.601	26199
827.741	26058
827.88	26107
828.02	25959
828.159	26054
828.298	26126
828.437	26122
828.577	25947
828.716	26100
828.855	25940
828.994	25833
829.134	25696
829.273	25986
829.412	25731
829.551	25734
829.69	25780
829.829	25780
829.968	25947
830.107	25704
830.246	25700
830.385	25780
830.524	25795
830.663	25594
830.802	25400
830.941	25274
831.08	25422
831.219	25327
831.357	25327
831.496	25681
831.635	25346
831.774	25179
831.913	25107
832.051	25053
832.19	25099
832.329	25072
832.467	24966
832.606	24856
832.744	24970
832.883	24848
833.022	25000
833.16	25103
833.299	24848
833.437	24958
833.576	25012
833.714	24924
833.852	25034
833.991	24833
834.129	24909
834.267	24981
834.406	24935
834.544	24909
834.682	24890
834.821	24783
834.959	24954
835.097	24890
835.235	24977
835.373	24890
835.511	24947
835.65	24817
835.788	24711
835.926	24551
836.064	24452
836.202	24601
836.34	24688
836.478	24757
836.615	24639
836.753	24779
836.891	24798
837.029	24673
837.167	24627
837.305	24753
837.443	24635
837.58	24582
837.718	24631
837.856	24642
837.993	24479
838.131	24483
838.269	24452
838.406	24388
838.544	24445
838.681	24194
838.819	24190
838.956	23916
839.094	23973
839.231	23935
839.369	24076
839.506	24369
839.643	24182
839.781	23984
839.918	23752
840.055	23950
840.193	23958
840.33	23935
840.467	23805
840.604	23889
840.742	24133
840.879	23760
841.016	23802
841.153	23741
841.29	23904
841.427	23897
841.564	23779
841.701	23718
841.838	23824
841.975	23707
842.112	23672
842.249	23646
842.385	23611
842.522	23824
842.659	23752
842.796	23558
842.933	23551
843.069	23429
843.206	23398
843.343	23524
843.479	23539
843.616	23493
843.752	23337
843.889	23204
844.025	23417
844.162	23239
844.298	23239
844.435	23231
844.571	23242
844.708	23261
844.844	23490
844.98	23258
845.117	23269
845.253	23200
845.389	23022
845.525	23029
845.661	23079
845.798	22927
845.934	22927
846.07	22889
846.206	22984
846.342	23075
846.478	23083
846.614	22683
846.75	22679
846.886	22706
847.022	22656
847.158	22713
847.294	22573
847.429	22679
847.565	22508
847.701	22923
847.837	22428
847.972	22356
848.108	22402
848.244	22466
848.379	22268
848.515	22169
848.65	22177
848.786	22246
848.921	22333
849.057	22413
849.192	22322
849.328	22268
849.463	22230
849.598	22109
849.734	22150
849.869	22048
850.004	21987
850.14	22070
850.275	22010
850.41	21857
850.545	21842
850.68	22013
850.815	21979
850.95	21876
851.085	21998
851.22	21964
851.355	21960
851.49	21892
851.625	21899
851.76	21968
851.895	21895
852.03	21846
852.165	21991
852.299	21945
852.434	21937
852.569	21903
852.703	21774
852.838	21972
852.973	22048
853.107	22070
853.242	21804
853.376	21770
853.511	21618
853.645	21762
853.78	21808
853.914	21762
854.048	21747
854.183	21709
854.317	21660
854.451	21956
854.585	21732
854.72	21713
854.854	21880
854.988	21679
855.122	21732
855.256	21492
855.39	21762
855.524	21873
855.658	21785
855.792	21705
855.926	21827
856.06	21854
856.194	21827
856.327	21686
856.461	21599
856.595	21606
856.729	21747
856.862	21838
856.996	21701
857.13	21808
857.263	21694
857.397	21797
857.53	21698
857.664	21720
857.797	21648
857.931	21869
858.064	21667
858.197	21755
858.331	21614
858.464	21633
858.597	21625
858.731	21591
858.864	21751
858.997	21576
859.13	21778
859.263	21648
859.396	21717
859.529	21523
859.662	21500
859.795	21549
859.928	21595
860.061	21762
860.194	21880
860.327	21682
860.46	21682
860.592	21747
860.725	21698
860.858	21595
860.99	21660
861.123	21428
861.256	21568
861.388	21542
861.521	22276
861.653	21393
861.786	21386
861.918	21515
862.05	21580
862.183	21732
862.315	21770
862.447	21759
862.58	21656
862.712	21317
862.844	21310
862.976	21466
863.108	21382
863.24	21667
863.372	21252
863.504	21389
863.636	21359
863.768	21443
863.9	21302
864.032	21142
864.164	21161
864.296	21321
864.428	21401
864.559	21367
864.691	21454
864.823	21393
864.954	21313
865.086	21287
865.217	21222
865.349	21104
865.48	21241
865.612	21169
865.743	21412
865.875	21218
866.006	21154
866.137	21233
866.269	21207
866.4	21150
866.531	21055
866.662	21157
866.793	21317
866.924	21001
867.055	21085
867.186	21138
867.317	21055
867.448	21173
867.579	21081
867.71	21039
867.841	20971
867.972	21188
868.103	21096
868.233	21089
868.364	21131
868.495	21325
868.625	21321
868.756	21450
868.886	21165
869.017	21363
869.147	21363
869.278	21389
869.408	21424
869.539	21462
869.669	21218
869.799	21466
869.929	21447
870.06	21507
870.19	21732
870.32	21580
870.45	21637
870.58	21835
870.71	21800
870.84	21884
870.97	21667
871.1	21759
871.23	21797
871.36	21907
871.489	21861
871.619	21895
871.749	21915
871.879	21941
872.008	22097
872.138	21979
872.267	21918
872.397	21846
872.526	21850
872.656	21785
872.785	21694
872.915	21892
873.044	22002
873.173	21884
873.303	21972
873.432	22021
873.561	21979
873.69	21835
873.819	22029
873.948	22032
874.077	21956
874.206	21953
874.335	21998
874.464	22097
874.593	22261
874.722	22013
874.851	22196
874.979	22169
875.108	22325
875.237	22192
875.365	22207
875.494	22173
875.623	22291
875.751	22215
875.88	22192
876.008	22421
876.136	22333
876.265	22580
876.393	22767
876.521	22786
876.65	22615
876.778	22634
876.906	22500
877.034	22618
877.162	22584
877.29	22527
877.418	22577
877.546	22554
877.674	22672
877.802	22489
877.93	22546
878.058	22500
878.185	22516
878.313	22535
878.441	22637
878.568	22356
878.696	22546
878.824	22554
878.951	22512
879.079	22698
879.206	22828
879.333	22748
879.461	22565
879.588	22683
879.715	22801
879.842	22934
879.97	22466
880.097	22413
880.224	22314
880.351	22371
880.478	22443
880.605	22272
880.732	22382
880.859	22641
880.986	22432
881.112	22394
881.239	22200
881.366	22120
881.493	21934
881.619	21941
881.746	21998
881.872	21972
881.999	21953
882.125	21766
882.252	21953
882.378	21907
882.505	22124
882.631	21884
882.757	21770
882.883	21835
883.01	21690
883.136	21633
883.262	21595
883.388	21435
883.514	21686
883.64	21690
883.766	21644
883.892	21481
884.018	21473
884.143	21561
884.269	21644
884.395	21511
884.52	21306
884.646	21363
884.772	21188
884.897	21116
885.023	21268
885.148	21370
885.274	21408
885.399	21332
885.524	21199
885.65	21260
885.775	21249
885.9	21348
886.025	21397
886.15	21450
886.275	21214
886.4	21230
886.525	21264
886.65	21161
886.775	21249
886.9	21329
887.025	21496
887.149	21127
887.274	21017
887.399	20990
887.523	21093
887.648	20925
887.773	20834
887.897	21051
888.021	21100
888.146	20982
888.27	21123
888.395	21188
888.519	21055
888.643	21096
888.767	21180
888.891	20994
889.015	20925
889.139	20796
889.263	20785
889.387	20887
889.511	20994
889.635	20956
889.759	20826
889.883	20785
890.006	20864
890.13	20845
890.254	20735
890.377	20743
890.501	20507
890.624	20503
890.748	20598
890.871	20457
890.995	20400
891.118	20278
891.241	20362
891.364	20457
891.488	20488
891.611	20332
891.734	20374
891.857	20473
891.98	20366
892.103	20488
892.226	20294
892.349	20332
892.471	20286
892.594	20366
892.717	20377
892.839	20385
892.962	20290
893.085	20377
893.207	20218
893.33	20252
893.452	20286
893.575	20298
893.697	20259
893.819	20457
893.941	20511
894.064	20358
894.186	20336
894.308	20126
894.43	20492
894.552	20552
894.674	20419
894.796	20267
894.918	20214
895.04	20259
895.161	20267
895.283	20298
895.405	20153
895.526	20115
895.648	20229
895.769	20347
895.891	20339
896.012	20415
896.134	20362
896.255	20244
896.376	20202
896.498	20362
896.619	20427
896.74	20503
896.861	20389
896.982	20651
897.103	20762
897.224	20625
897.345	20549
897.466	20480
897.587	20568
897.708	20670
897.828	20480
897.949	20564
898.07	20282
898.19	20358
898.311	20552
898.431	20492
898.552	20492
898.672	20488
898.792	20556
898.913	20465
899.033	20423
899.153	20271
899.273	20096
899.393	20145
899.513	20256
899.633	20233
899.753	20210
899.873	20221
899.993	20256
900.113	20084
900.232	20176
900.352	20088
900.472	20050
900.591	19890
900.711	19974
900.83	19902
900.95	20077
901.069	20119
901.189	19906
901.308	19795
901.427	19464
901.546	19628
901.665	19487
901.784	19620
901.904	19453
902.023	19411
902.141	19194
902.26	19202
902.379	19137
902.498	19110
902.617	18951
902.735	19053
902.854	18996
902.973	18962
903.091	18684
903.21	18730
903.328	18734
903.446	18684
903.565	18521
903.683	18540
903.801	18445
903.919	18563
904.038	18525
904.156	18289
904.274	18384
904.392	18334
904.51	18247
904.627	18194
904.745	18334
904.863	18365
904.981	18121
905.098	17893
905.216	17977
905.334	17961
905.451	18015
905.569	17836
905.686	17927
905.803	17992
905.921	17805
906.038	17874
906.155	17714
906.272	17608
906.389	17615
906.506	17482
906.623	17368
906.74	17368
906.857	17349
906.974	17402
907.091	17410
907.208	17554
907.324	17440
907.441	17334
907.557	17197
907.674	17235
907.79	17025
907.907	16949
908.023	17140
908.139	17193
908.256	17094
908.372	17029
908.488	16995
908.604	16839
908.72	16755
908.836	16782
908.952	16812
909.068	16801
909.184	16896
909.3	16839
909.415	16889
909.531	16759
909.647	16538
909.762	16363
909.878	16580
909.993	16459
910.108	16348
910.224	16538
910.339	16470
910.454	16363
910.57	16162
910.685	16329
910.8	16485
910.915	16459
911.03	16272
911.145	16093
911.259	16097
911.374	16063
911.489	15922
911.604	15934
911.718	15895
911.833	15892
911.947	15720
912.062	15766
912.176	15812
912.291	15918
912.405	15926
912.519	15926
912.633	16105
912.748	15808
912.862	15835
912.976	15652
913.09	15466
913.204	15667
913.318	15690
913.431	15709
913.545	15755
913.659	15728
913.772	15534
913.886	15492
914	15382
914.113	15504
914.226	15584
914.34	15477
914.453	15317
914.566	15405
914.68	15393
914.793	15302
914.906	15055
915.019	15081
915.132	14998
915.245	15036
915.358	15161
915.47	15116
915.583	15070
915.696	14986
915.809	15214
915.921	15169
916.034	14975
916.146	14906
916.259	14941
916.371	14994
916.483	14971
916.595	14891
916.708	14887
916.82	14933
916.932	14842
917.044	14826
917.156	14758
917.268	14579
917.38	14773
917.491	14697
917.603	14746
917.715	14701
917.826	14762
917.938	14670
918.049	14537
918.161	14602
918.272	14765
918.384	14830
918.495	14629
918.606	14408
918.717	14351
918.828	14450
918.939	14530
919.05	14404
919.161	14404
919.272	14332
919.383	14263
919.494	14514
919.604	14651
919.715	14393
919.826	14336
919.936	14362
920.047	14454
920.157	14320
920.267	14530
920.378	14282
920.488	14370
920.598	14480
920.708	14667
920.818	14507
920.928	14526
921.038	14667
921.148	14625
921.258	14278
921.368	14206
921.477	14123
921.587	14115
921.697	13978
921.806	14107
921.916	13894
922.025	13811
922.134	13856
922.244	13666
922.353	13742
922.462	13578
922.571	13624
922.68	13445
922.789	13453
922.898	13346
923.007	13289
923.116	13411
923.224	13293
923.333	13308
923.442	13171
923.55	13133
923.659	13304
923.767	13175
923.876	13107
923.984	13266
924.092	13091
924.201	13091
924.309	13179
924.417	13213
924.525	13118
924.633	13023
924.741	13715
924.849	12779
924.956	12966
925.064	12817
925.172	12795
925.279	12768
925.387	12783
925.494	12745
925.602	12977
925.709	12840
925.816	12760
925.924	12719
926.031	12817
926.138	12741
926.245	12726
926.352	12646
926.459	12772
926.566	12825
926.673	12642
926.779	12528
926.886	12467
926.993	12448
927.099	12369
927.206	12270
927.312	12300
927.419	12460
927.525	12372
927.631	12323
927.737	12247
927.843	12194
927.95	12110
928.056	12224
928.162	12285
928.267	12254
928.373	12825
928.479	12235
928.585	12079
928.69	12117
928.796	12133
928.901	12011
929.007	11939
929.112	12102
929.218	11931
929.323	11859
929.428	11843
929.533	12068
929.638	11847
929.743	11817
929.848	11824
929.953	11843
930.058	11710
930.163	11642
930.267	11596
930.372	11703
930.477	11543
930.581	11802
930.685	11661
930.79	11490
930.894	11440
930.998	11463
931.103	11558
931.207	11121
931.311	11094
931.415	11113
931.519	10812
931.623	10778
