Data from test_V78500241_275.txt Node
Date: Fri Mar 25 15:43:42 CST 2022
User: usil
Spectrometer: V785-0024
Trigger mode: 0
Integration Time (sec): 4.000000E-1
Scans to average: 1
Nonlinearity correction enabled: false
Boxcar width: 0
Storing dark spectrum: false
XAxis mode: Wavelengths
Number of Pixels in Spectrum: 1024
>>>>>Begin Spectral Data<<<<<
801.071	29756
801.214	29733
801.356	29448
801.499	29452
801.641	29395
801.783	29417
801.926	29375
802.068	29311
802.211	29090
802.353	29162
802.496	28984
802.638	28938
802.78	29052
802.923	28942
803.065	28805
803.208	28984
803.35	28968
803.492	29197
803.635	29151
803.777	29033
803.919	29124
804.061	29528
804.204	29254
804.346	29067
804.488	29014
804.63	29037
804.773	29014
804.915	29170
805.057	29132
805.199	29185
805.341	29360
805.483	29254
805.626	29246
805.768	29121
805.91	29250
806.052	29375
806.194	29162
806.336	29452
806.478	29250
806.62	29197
806.762	29360
806.904	29634
807.046	29733
807.188	29718
807.33	29726
807.472	29714
807.614	29596
807.756	29554
807.898	29395
808.04	29410
808.182	29387
808.324	29448
808.465	29395
808.607	29535
808.749	29859
808.891	29965
809.033	29973
809.174	29840
809.316	29817
809.458	29893
809.6	29866
809.741	30079
809.883	29996
810.025	30117
810.166	30060
810.308	30186
810.45	30216
810.591	30095
810.733	29908
810.875	29946
811.016	29809
811.158	29737
811.299	30129
811.441	30186
811.582	29980
811.724	29870
811.865	29802
812.007	29741
812.148	29722
812.29	29821
812.431	30095
812.573	30095
812.714	30277
812.855	30357
812.997	30509
813.138	30521
813.279	30479
813.421	30414
813.562	30346
813.703	30197
813.845	30049
813.986	29878
814.127	29642
814.268	29444
814.41	29585
814.551	29493
814.692	29596
814.833	29531
814.974	29341
815.115	29501
815.256	29273
815.397	29299
815.539	29307
815.68	29273
815.821	29322
815.962	29330
816.103	29220
816.244	29178
816.385	28961
816.526	28961
816.666	28835
816.807	28679
816.948	28816
817.089	28847
817.23	28782
817.371	28713
817.512	28668
817.653	28759
817.793	28748
817.934	28694
818.075	28850
818.216	28733
818.356	28672
818.497	28675
818.638	28546
818.778	28516
818.919	28554
819.06	28443
819.2	28577
819.341	28645
819.481	28645
819.622	28824
819.762	28866
819.903	28892
820.043	28831
820.184	28774
820.324	28694
820.465	28687
820.605	28702
820.746	28809
820.886	28736
821.026	28698
821.167	28672
821.307	28740
821.447	28755
821.588	28588
821.728	28325
821.868	28253
822.008	28097
822.149	28055
822.289	27979
822.429	27876
822.569	27800
822.709	27808
822.849	27701
822.99	27561
823.13	27667
823.27	27507
823.41	27424
823.55	27211
823.69	27317
823.83	27416
823.97	27386
824.11	27135
824.25	27066
824.389	27195
824.529	27192
824.669	27154
824.809	27351
824.949	27135
825.089	27241
825.228	27237
825.368	26998
825.508	26918
825.648	27005
825.787	27237
825.927	27085
826.067	26979
826.206	26944
826.346	27055
826.485	27036
826.625	27066
826.765	27131
826.904	26982
827.044	26712
827.183	26861
827.323	26651
827.462	26826
827.601	26743
827.741	26689
827.88	26731
828.02	26320
828.159	26560
828.298	26750
828.437	26682
828.577	26708
828.716	26613
828.855	26617
828.994	26339
829.134	26324
829.273	26317
829.412	26370
829.551	26313
829.69	26389
829.829	26396
829.968	26530
830.107	26480
830.246	26301
830.385	26248
830.524	26301
830.663	26187
830.802	26035
830.941	26027
831.08	25856
831.219	25940
831.357	26142
831.496	26237
831.635	25986
831.774	25830
831.913	25811
832.051	25708
832.19	25841
832.329	25723
832.467	25651
832.606	25670
832.744	25567
832.883	25616
833.022	25552
833.16	25571
833.299	25639
833.437	25571
833.576	25830
833.714	25556
833.852	25712
833.991	25791
834.129	25830
834.267	25670
834.406	25514
834.544	25578
834.682	25590
834.821	25472
834.959	25677
835.097	25548
835.235	25620
835.373	25548
835.511	25613
835.65	25369
835.788	25365
835.926	25244
836.064	25175
836.202	25282
836.34	25365
836.478	25571
836.615	25343
836.753	25457
836.891	25388
837.029	25365
837.167	25415
837.305	25148
837.443	25232
837.58	25316
837.718	25327
837.856	25225
837.993	25114
838.131	25217
838.269	25129
838.406	25240
838.544	25065
838.681	24909
838.819	24833
838.956	24528
839.094	24627
839.231	24642
839.369	24867
839.506	25000
839.643	24905
839.781	24570
839.918	24639
840.055	24616
840.193	24646
840.33	24616
840.467	24540
840.604	24665
840.742	24863
840.879	24410
841.016	24505
841.153	24410
841.29	24658
841.427	24479
841.564	24574
841.701	24460
841.838	24441
841.975	24350
842.112	24429
842.249	24369
842.385	24319
842.522	24429
842.659	24353
842.796	24136
842.933	24216
843.069	24258
843.206	24220
843.343	24190
843.479	24174
843.616	24182
843.752	23969
843.889	24007
844.025	24136
844.162	23954
844.298	24022
844.435	23920
844.571	23931
844.708	24007
844.844	24076
844.98	24072
845.117	24072
845.253	23859
845.389	23729
845.525	23870
845.661	23737
845.798	23646
845.934	23794
846.07	23699
846.206	23805
846.342	23756
846.478	23592
846.614	23482
846.75	23341
846.886	23452
847.022	23383
847.158	23501
847.294	23383
847.429	23387
847.565	23337
847.701	23474
847.837	23162
847.972	22976
848.108	23189
848.244	23098
848.379	23037
848.515	23136
848.65	22995
848.786	22961
848.921	22839
849.057	23075
849.192	23025
849.328	22984
849.463	22972
849.598	23006
849.734	22793
849.869	22824
850.004	22618
850.14	22653
850.275	22733
850.41	22622
850.545	22615
850.68	22607
850.815	22801
850.95	22626
851.085	22854
851.22	22824
851.355	22721
851.49	22656
851.625	22535
851.76	22839
851.895	22641
852.03	22622
852.165	22588
852.299	22839
852.434	22752
852.569	22687
852.703	22577
852.838	22713
852.973	22839
853.107	22835
853.242	22580
853.376	22580
853.511	22382
853.645	22379
853.78	22622
853.914	22436
854.048	22554
854.183	22618
854.317	22504
854.451	22702
854.585	22538
854.72	22554
854.854	22561
854.988	22432
855.122	22497
855.256	22211
855.39	22470
855.524	22497
855.658	22569
855.792	22538
855.926	22535
856.06	22497
856.194	22561
856.327	22470
856.461	22466
856.595	22447
856.729	22455
856.862	22622
856.996	22577
857.13	22390
857.263	22493
857.397	22512
857.53	22470
857.664	22268
857.797	22550
857.931	22599
858.064	22390
858.197	22512
858.331	22485
858.464	22398
858.597	22226
858.731	22325
858.864	22455
858.997	22413
859.13	22409
859.263	22344
859.396	22459
859.529	22382
859.662	22557
859.795	22360
859.928	22459
860.061	22622
860.194	22790
860.327	22561
860.46	22379
860.592	22462
860.725	22550
860.858	22592
860.99	22413
861.123	22287
861.256	22352
861.388	22314
861.521	23124
861.653	22470
861.786	22173
861.918	22344
862.05	22249
862.183	22405
862.315	22405
862.447	22451
862.58	22257
862.712	22211
862.844	22070
862.976	22143
863.108	22215
863.24	22584
863.372	22131
863.504	22139
863.636	22067
863.768	22192
863.9	22105
864.032	21998
864.164	22078
864.296	22238
864.428	22124
864.559	22234
864.691	22105
864.823	22055
864.954	22044
865.086	22055
865.217	22059
865.349	21945
865.48	21899
865.612	22059
865.743	22124
865.875	21903
866.006	22070
866.137	22040
866.269	22044
866.4	22010
866.531	21941
866.662	21895
866.793	21903
866.924	21895
867.055	21983
867.186	21937
867.317	22002
867.448	21808
867.579	21918
867.71	21823
867.841	21781
867.972	21915
868.103	21884
868.233	21937
868.364	21911
868.495	21880
868.625	22124
868.756	22291
868.886	22116
869.017	22112
869.147	22181
869.278	22215
869.408	22192
869.539	22124
869.669	22150
869.799	22200
869.929	22318
870.06	22150
870.19	22379
870.32	22417
870.45	22409
870.58	22535
870.71	22584
870.84	22664
870.97	22538
871.1	22436
871.23	22637
871.36	22637
871.489	22573
871.619	22675
871.749	22618
871.879	22755
872.008	22763
872.138	22710
872.267	22725
872.397	22584
872.526	22519
872.656	22550
872.785	22516
872.915	22729
873.044	22809
873.173	22725
873.303	22778
873.432	22733
873.561	22862
873.69	22843
873.819	22675
873.948	22778
874.077	22607
874.206	22710
874.335	22717
874.464	22843
874.593	22942
874.722	22961
874.851	22980
874.979	22987
875.108	23041
875.237	22911
875.365	22824
875.494	22892
875.623	22984
875.751	23064
875.88	22904
876.008	23052
876.136	23071
876.265	23467
876.393	23524
876.521	23493
876.65	23299
876.778	23265
876.906	23322
877.034	23189
877.162	23474
877.29	23181
877.418	23303
877.546	23296
877.674	23185
877.802	23353
877.93	23326
878.058	23254
878.185	23098
878.313	23204
878.441	23360
878.568	23117
878.696	23147
878.824	23360
878.951	23417
879.079	23589
879.206	23562
879.333	23547
879.461	23117
879.588	23387
879.715	23493
879.842	23543
879.97	23372
880.097	23250
880.224	23044
880.351	23200
880.478	23162
880.605	23090
880.732	23102
880.859	23421
880.986	23185
881.112	23155
881.239	22953
881.366	22869
881.493	22946
881.619	22702
881.746	22733
881.872	22694
881.999	22634
882.125	22622
882.252	22683
882.378	22656
882.505	22763
882.631	22592
882.757	22402
882.883	22504
883.01	22497
883.136	22443
883.262	22310
883.388	22200
883.514	22398
883.64	22382
883.766	22219
883.892	22352
884.018	22207
884.143	22265
884.269	22363
884.395	22128
884.52	21953
884.646	21994
884.772	21918
884.897	21857
885.023	22059
885.148	22185
885.274	22002
885.399	22211
885.524	22105
885.65	22044
885.775	22070
885.9	21975
886.025	22116
886.15	22097
886.275	22074
886.4	22044
886.525	22032
886.65	21850
886.775	21865
886.9	22055
887.025	22017
887.149	21873
887.274	21701
887.399	21759
887.523	21861
887.648	21671
887.773	21595
887.897	21774
888.021	21675
888.146	21610
888.27	21838
888.395	21831
888.519	21698
888.643	21850
888.767	21736
888.891	21656
889.015	21568
889.139	21519
889.263	21443
889.387	21656
889.511	21755
889.635	21755
889.759	21523
889.883	21526
890.006	21625
890.13	21523
890.254	21420
890.377	21397
890.501	21329
890.624	21287
890.748	21386
890.871	21150
890.995	21055
891.118	20925
891.241	21066
891.364	21047
891.488	21256
891.611	21104
891.734	21214
891.857	21184
891.98	21005
892.103	21218
892.226	21089
892.349	21119
892.471	20944
892.594	21013
892.717	20986
892.839	21096
892.962	21062
893.085	21066
893.207	20880
893.33	20823
893.452	20880
893.575	21028
893.697	21096
893.819	21116
893.941	21135
894.064	21207
894.186	21013
894.308	20906
894.43	21096
894.552	21173
894.674	21112
894.796	20880
894.918	20975
895.04	20864
895.161	21123
895.283	20952
895.405	20956
895.526	20979
895.648	21024
895.769	20967
895.891	21070
896.012	21055
896.134	21085
896.255	21070
896.376	20876
896.498	21036
896.619	21028
896.74	20979
896.861	21062
896.982	21382
897.103	21504
897.224	21412
897.345	21252
897.466	21165
897.587	21264
897.708	21359
897.828	21203
897.949	21142
898.07	21024
898.19	21138
898.311	21188
898.431	21074
898.552	21218
898.672	21222
898.792	21233
898.913	21150
899.033	21142
899.153	21017
899.273	20891
899.393	20849
899.513	20982
899.633	20899
899.753	20971
899.873	20933
899.993	21028
900.113	20861
900.232	20857
900.352	20895
900.472	20667
900.591	20545
900.711	20735
900.83	20754
900.95	20811
901.069	20815
901.189	20575
901.308	20336
901.427	20214
901.546	20240
901.665	20259
901.784	20233
901.904	20138
902.023	19951
902.141	19788
902.26	19765
902.379	19811
902.498	19807
902.617	19628
902.735	19875
902.854	19670
902.973	19525
903.091	19453
903.21	19430
903.328	19331
903.446	19282
903.565	19202
903.683	19160
903.801	19141
903.919	19095
904.038	19160
904.156	19114
904.274	19053
904.392	18886
904.51	18905
904.627	18905
904.745	18985
904.863	19008
904.981	18806
905.098	18700
905.216	18601
905.334	18711
905.451	18582
905.569	18570
905.686	18654
905.803	18525
905.921	18388
906.038	18422
906.155	18311
906.272	18365
906.389	18304
906.506	18129
906.623	18209
906.74	18019
906.857	17908
906.974	17984
907.091	18129
907.208	18186
907.324	18205
907.441	17927
907.557	17863
907.674	17821
907.79	17718
907.907	17775
908.023	17821
908.139	17824
908.256	17756
908.372	17745
908.488	17619
908.604	17551
908.72	17543
908.836	17512
908.952	17463
909.068	17600
909.184	17604
909.3	17410
909.415	17501
909.531	17551
909.647	17166
909.762	17136
909.878	17242
909.993	17197
910.108	17136
910.224	17098
910.339	17136
910.454	17033
910.57	17010
910.685	16877
910.8	17174
910.915	17162
911.03	16953
911.145	16691
911.259	16721
911.374	16691
911.489	16816
911.604	16603
911.718	16451
911.833	16440
911.947	16390
912.062	16436
912.176	16432
912.291	16546
912.405	16565
912.519	16626
912.633	16634
912.748	16481
912.862	16436
912.976	16246
913.09	16196
913.204	16188
913.318	16348
913.431	16356
913.545	16333
913.659	16329
913.772	16200
913.886	16120
914	16131
914.113	16173
914.226	16322
914.34	16196
914.453	15884
914.566	16192
914.68	16025
914.793	15949
914.906	15720
915.019	15660
915.132	15671
915.245	15759
915.358	15743
915.47	15698
915.583	15751
915.696	15587
915.809	15812
915.921	15793
916.034	15500
916.146	15591
916.259	15564
916.371	15667
916.483	15701
916.595	15511
916.708	15485
916.82	15500
916.932	15374
917.044	15420
917.156	15466
917.268	15256
917.38	15237
917.491	15275
917.603	15340
917.715	15386
917.826	15389
917.938	15138
918.049	15119
918.161	15226
918.272	15428
918.384	15344
918.495	15222
918.606	15028
918.717	15036
918.828	15085
918.939	15001
919.05	14944
919.161	15047
919.272	14727
919.383	14739
919.494	15058
919.604	15184
919.715	15017
919.826	14887
919.936	14933
920.047	15108
920.157	14956
920.267	15173
920.378	15097
920.488	14986
920.598	15077
920.708	15294
920.818	15161
920.928	15013
921.038	15195
921.148	15184
921.258	14921
921.368	14708
921.477	14670
921.587	14659
921.697	14564
921.806	14663
921.916	14488
922.025	14389
922.134	14358
922.244	14324
922.353	14400
922.462	14187
922.571	14172
922.68	13947
922.789	13940
922.898	13986
923.007	13906
923.116	13982
923.224	13860
923.333	13906
923.442	13868
923.55	13795
923.659	13818
923.767	13761
923.876	13643
923.984	13799
924.092	13670
924.201	13670
924.309	13715
924.417	13670
924.525	13662
924.633	13685
924.741	14518
924.849	13464
924.956	13491
925.064	13422
925.172	13225
925.279	13362
925.387	13335
925.494	13285
925.602	13441
925.709	13362
925.816	13236
925.924	13232
926.031	13301
926.138	13202
926.245	13422
926.352	13198
926.459	13343
926.566	13304
926.673	13251
926.779	13069
926.886	13095
926.993	12894
927.099	12833
927.206	12814
927.312	12837
927.419	12913
927.525	12856
927.631	12810
927.737	12749
927.843	12749
927.95	12681
928.056	12662
928.162	12719
928.267	12688
928.373	13343
928.479	12703
928.585	12574
928.69	12593
928.796	12700
928.901	12566
929.007	12353
929.112	12509
929.218	12563
929.323	12433
929.428	12353
929.533	12479
929.638	12304
929.743	12311
929.848	12445
929.953	12399
930.058	12258
930.163	12034
930.267	12034
930.372	12201
930.477	12026
930.581	12270
930.685	12098
930.79	12026
930.894	11927
930.998	11912
931.103	12106
931.207	11737
931.311	11551
931.415	11448
931.519	11284
931.623	11315
