Data from test_V78500241_920.txt Node
Date: Fri Mar 25 15:48:10 CST 2022
User: usil
Spectrometer: V785-0024
Trigger mode: 0
Integration Time (sec): 4.000000E-1
Scans to average: 1
Nonlinearity correction enabled: false
Boxcar width: 0
Storing dark spectrum: false
XAxis mode: Wavelengths
Number of Pixels in Spectrum: 1024
>>>>>Begin Spectral Data<<<<<
801.071	28021
801.214	27812
801.356	27454
801.499	27568
801.641	27351
801.783	27439
801.926	27344
802.068	27351
802.211	27306
802.353	27165
802.496	27230
802.638	27020
802.78	26960
802.923	27024
803.065	26940
803.208	27032
803.35	27017
803.492	27241
803.635	27180
803.777	27173
803.919	27192
804.061	27458
804.204	27287
804.346	27108
804.488	27138
804.63	27184
804.773	27096
804.915	27146
805.057	27306
805.199	27291
805.341	27329
805.483	27348
805.626	27329
805.768	27127
805.91	27458
806.052	27492
806.194	27268
806.336	27492
806.478	27249
806.62	27496
806.762	27431
806.904	27675
807.046	27835
807.188	27793
807.33	27747
807.472	27804
807.614	27838
807.756	27816
807.898	27564
808.04	27633
808.182	27675
808.324	27838
808.465	27713
808.607	27926
808.749	28162
808.891	28192
809.033	28306
809.174	28147
809.316	28021
809.458	28013
809.6	27907
809.741	28101
809.883	28173
810.025	28478
810.166	28310
810.308	28242
810.45	28280
810.591	28215
810.733	28124
810.875	28082
811.016	28128
811.158	27842
811.299	28162
811.441	28223
811.582	28124
811.724	28082
811.865	27964
812.007	28055
812.148	28002
812.29	28070
812.431	28249
812.573	28367
812.714	28527
812.855	28569
812.997	28611
813.138	28675
813.279	28668
813.421	28645
813.562	28466
813.703	28481
813.845	28246
813.986	27983
814.127	27747
814.268	27682
814.41	27766
814.551	27709
814.692	27739
814.833	27732
814.974	27709
815.115	27698
815.256	27542
815.397	27583
815.539	27534
815.68	27431
815.821	27329
815.962	27500
816.103	27348
816.244	27401
816.385	27256
816.526	27245
816.666	27093
816.807	27013
816.948	26918
817.089	27135
817.23	27100
817.371	27055
817.512	26986
817.653	27074
817.793	26971
817.934	26982
818.075	27009
818.216	27043
818.356	26929
818.497	26891
818.638	26724
818.778	26750
818.919	26842
819.06	26857
819.2	26963
819.341	26982
819.481	26902
819.622	27272
819.762	27344
819.903	27245
820.043	27150
820.184	27180
820.324	27074
820.465	27154
820.605	27074
820.746	27093
820.886	27017
821.026	27112
821.167	27070
821.307	27226
821.447	27100
821.588	26910
821.728	26849
821.868	26689
822.008	26541
822.149	26469
822.289	26488
822.429	26115
822.569	26199
822.709	26149
822.849	26020
822.99	26107
823.13	26012
823.27	25860
823.41	25731
823.55	25833
823.69	25928
823.83	25883
823.97	25590
824.11	25571
824.25	25556
824.389	25685
824.529	25757
824.669	25605
824.809	25799
824.949	25776
825.089	25727
825.228	25719
825.368	25506
825.508	25411
825.648	25422
825.787	25677
825.927	25620
826.067	25449
826.206	25609
826.346	25540
826.485	25479
826.625	25540
826.765	25670
826.904	25491
827.044	25259
827.183	25274
827.323	25145
827.462	25304
827.601	25236
827.741	25232
827.88	25308
828.02	25099
828.159	25179
828.298	25217
828.437	25274
828.577	25297
828.716	25320
828.855	25129
828.994	24928
829.134	24905
829.273	24985
829.412	24913
829.551	24776
829.69	24989
829.829	24920
829.968	24943
830.107	24992
830.246	24943
830.385	24825
830.524	24802
830.663	24608
830.802	24654
830.941	24585
831.08	24521
831.219	24665
831.357	24532
831.496	24753
831.635	24578
831.774	24407
831.913	24369
832.051	24426
832.19	24239
832.329	24380
832.467	24182
832.606	24106
832.744	24273
832.883	24205
833.022	24148
833.16	24232
833.299	24254
833.437	24163
833.576	24247
833.714	24304
833.852	24380
833.991	24311
834.129	24410
834.267	24350
834.406	24270
834.544	24365
834.682	24251
834.821	24239
834.959	24467
835.097	24186
835.235	24357
835.373	24216
835.511	24228
835.65	24003
835.788	24144
835.926	24053
836.064	23878
836.202	23942
836.34	24129
836.478	24140
836.615	24114
836.753	24159
836.891	24007
837.029	24053
837.167	24026
837.305	24003
837.443	23992
837.58	23923
837.718	24007
837.856	23904
837.993	23863
838.131	24011
838.269	23741
838.406	23748
838.544	23741
838.681	23562
838.819	23539
838.956	23368
839.094	23459
839.231	23429
839.369	23528
839.506	23748
839.643	23714
839.781	23497
839.918	23341
840.055	23417
840.193	23330
840.33	23349
840.467	23444
840.604	23356
840.742	23630
840.879	23155
841.016	23246
841.153	23311
841.29	23463
841.427	23345
841.564	23299
841.701	23280
841.838	23284
841.975	23132
842.112	23151
842.249	23155
842.385	22980
842.522	23341
842.659	23140
842.796	23155
842.933	23136
843.069	22957
843.206	23018
843.343	23048
843.479	23014
843.616	23079
843.752	22843
843.889	22786
844.025	22908
844.162	22793
844.298	22965
844.435	22797
844.571	22873
844.708	22809
844.844	23003
844.98	22987
845.117	22831
845.253	22763
845.389	22675
845.525	22763
845.661	22744
845.798	22557
845.934	22626
846.07	22489
846.206	22649
846.342	22729
846.478	22485
846.614	22284
846.75	22253
846.886	22341
847.022	22367
847.158	22303
847.294	22325
847.429	22249
847.565	22261
847.701	22694
847.837	22006
847.972	22013
848.108	22025
848.244	22070
848.379	22013
848.515	21918
848.65	21983
848.786	21899
848.921	21922
849.057	21911
849.192	21903
849.328	21892
849.463	21953
849.598	21861
849.734	21717
849.869	21759
850.004	21698
850.14	21622
850.275	21652
850.41	21633
850.545	21576
850.68	21633
850.815	21648
850.95	21583
851.085	21823
851.22	21778
851.355	21610
851.49	21667
851.625	21576
851.76	21572
851.895	21488
852.03	21667
852.165	21652
852.299	21751
852.434	21793
852.569	21656
852.703	21629
852.838	21724
852.973	21728
853.107	21899
853.242	21633
853.376	21591
853.511	21306
853.645	21443
853.78	21477
853.914	21450
854.048	21580
854.183	21431
854.317	21473
854.451	21603
854.585	21469
854.72	21435
854.854	21644
854.988	21344
855.122	21454
855.256	21351
855.39	21488
855.524	21447
855.658	21515
855.792	21511
855.926	21538
856.06	21488
856.194	21500
856.327	21386
856.461	21462
856.595	21458
856.729	21526
856.862	21652
856.996	21336
857.13	21557
857.263	21481
857.397	21561
857.53	21545
857.664	21549
857.797	21454
857.931	21625
858.064	21557
858.197	21595
858.331	21450
858.464	21389
858.597	21454
858.731	21351
858.864	21488
858.997	21462
859.13	21534
859.263	21424
859.396	21633
859.529	21481
859.662	21507
859.795	21306
859.928	21439
860.061	21618
860.194	21686
860.327	21534
860.46	21526
860.592	21622
860.725	21690
860.858	21553
860.99	21435
861.123	21340
861.256	21389
861.388	21462
861.521	22128
861.653	21397
861.786	21203
861.918	21317
862.05	21466
862.183	21389
862.315	21382
862.447	21393
862.58	21374
862.712	21218
862.844	21123
862.976	21135
863.108	21218
863.24	21641
863.372	21104
863.504	21222
863.636	21131
863.768	21180
863.9	21119
864.032	21188
864.164	21142
864.296	21055
864.428	21313
864.559	21275
864.691	21260
864.823	21096
864.954	21142
865.086	21173
865.217	21116
865.349	20979
865.48	21119
865.612	21085
865.743	21127
865.875	21123
866.006	21043
866.137	21062
866.269	21085
866.4	21093
866.531	20948
866.662	21039
866.793	20902
866.924	20948
867.055	20990
867.186	21116
867.317	20914
867.448	20975
867.579	21043
867.71	20880
867.841	20864
867.972	21013
868.103	20956
868.233	21081
868.364	21081
868.495	21108
868.625	21230
868.756	21348
868.886	21192
869.017	21199
869.147	21298
869.278	21310
869.408	21252
869.539	21161
869.669	21294
869.799	21313
869.929	21485
870.06	21504
870.19	21576
870.32	21397
870.45	21644
870.58	21728
870.71	21789
870.84	21793
870.97	21488
871.1	21698
871.23	21747
871.36	21827
871.489	21724
871.619	21846
871.749	21835
871.879	21781
872.008	22013
872.138	21831
872.267	21918
872.397	21686
872.526	21690
872.656	21724
872.785	21713
872.915	21835
873.044	21865
873.173	21884
873.303	21899
873.432	21903
873.561	22051
873.69	21800
873.819	21915
873.948	21918
874.077	21911
874.206	21857
874.335	21873
874.464	22097
874.593	22181
874.722	22059
874.851	22128
874.979	22101
875.108	22150
875.237	22032
875.365	22109
875.494	22246
875.623	22158
875.751	22063
875.88	22166
876.008	22204
876.136	22341
876.265	22531
876.393	22653
876.521	22683
876.65	22485
876.778	22440
876.906	22428
877.034	22413
877.162	22424
877.29	22489
877.418	22443
877.546	22428
877.674	22443
877.802	22462
877.93	22474
878.058	22322
878.185	22356
878.313	22280
878.441	22322
878.568	22272
878.696	22367
878.824	22569
878.951	22569
879.079	22599
879.206	22733
879.333	22607
879.461	22542
879.588	22592
879.715	22630
879.842	22694
879.97	22546
880.097	22295
880.224	22207
880.351	22276
880.478	22287
880.605	22207
880.732	22268
880.859	22561
880.986	22295
881.112	22268
881.239	22196
881.366	22048
881.493	21823
881.619	21865
881.746	21975
881.872	21808
881.999	21747
882.125	21781
882.252	21838
882.378	21793
882.505	21956
882.631	21637
882.757	21587
882.883	21614
883.01	21633
883.136	21439
883.262	21374
883.388	21340
883.514	21561
883.64	21583
883.766	21481
883.892	21359
884.018	21199
884.143	21496
884.269	21515
884.395	21230
884.52	21199
884.646	21146
884.772	21123
884.897	21070
885.023	21157
885.148	21268
885.274	21275
885.399	21211
885.524	21180
885.65	21237
885.775	21138
885.9	21161
886.025	21321
886.15	21317
886.275	21199
886.4	21055
886.525	21173
886.65	21112
886.775	21036
886.9	21176
887.025	21416
887.149	21146
887.274	21032
887.399	21020
887.523	20963
887.648	20918
887.773	20979
887.897	20994
888.021	20861
888.146	20891
888.27	21058
888.395	21017
888.519	20952
888.643	20868
888.767	20857
888.891	20864
889.015	20762
889.139	20819
889.263	20724
889.387	20864
889.511	20918
889.635	20899
889.759	20686
889.883	20743
890.006	20727
890.13	20880
890.254	20716
890.377	20678
890.501	20469
890.624	20503
890.748	20492
890.871	20259
890.995	20320
891.118	20233
891.241	20396
891.364	20278
891.488	20389
891.611	20313
891.734	20259
891.857	20267
891.98	20298
892.103	20396
892.226	20366
892.349	20336
892.471	20096
892.594	20191
892.717	20301
892.839	20149
892.962	20210
893.085	20256
893.207	20244
893.33	20153
893.452	20016
893.575	20252
893.697	20237
893.819	20381
893.941	20427
894.064	20355
894.186	20233
894.308	20199
894.43	20282
894.552	20404
894.674	20370
894.796	20054
894.918	20145
895.04	20119
895.161	20294
895.283	20168
895.405	20115
895.526	20149
895.648	20336
895.769	20298
895.891	20187
896.012	20225
896.134	20309
896.255	20252
896.376	20221
896.498	20218
896.619	20275
896.74	20221
896.861	20275
896.982	20499
897.103	20617
897.224	20488
897.345	20347
897.466	20320
897.587	20404
897.708	20560
897.828	20465
897.949	20400
898.07	20362
898.19	20305
898.311	20457
898.431	20324
898.552	20454
898.672	20556
898.792	20552
898.913	20518
899.033	20412
899.153	20142
899.273	20145
899.393	20225
899.513	20145
899.633	20111
899.753	20138
899.873	20180
899.993	20145
900.113	20096
900.232	20130
900.352	20157
900.472	20088
900.591	19947
900.711	20046
900.83	19959
900.95	20020
901.069	20062
901.189	19921
901.308	19563
901.427	19571
901.546	19613
901.665	19533
901.784	19559
901.904	19362
902.023	19350
902.141	19061
902.26	19179
902.379	19072
902.498	18981
902.617	18962
902.735	19050
902.854	19015
902.973	19027
903.091	18749
903.21	18654
903.328	18734
903.446	18525
903.565	18456
903.683	18517
903.801	18441
903.919	18403
904.038	18578
904.156	18296
904.274	18414
904.392	18254
904.51	18201
904.627	18182
904.745	18357
904.863	18323
904.981	17984
905.098	17965
905.216	17931
905.334	17969
905.451	17923
905.569	17923
905.686	18019
905.803	17980
905.921	17707
906.038	17802
906.155	17809
906.272	17684
906.389	17714
906.506	17478
906.623	17672
906.74	17505
906.857	17303
906.974	17395
907.091	17562
907.208	17589
907.324	17493
907.441	17410
907.557	17280
907.674	17239
907.79	17079
907.907	17162
908.023	17277
908.139	17113
908.256	17109
908.372	17060
908.488	16980
908.604	16839
908.72	16812
908.836	16820
908.952	16965
909.068	16885
909.184	16991
909.3	16908
909.415	17003
909.531	16839
909.647	16634
909.762	16626
909.878	16641
909.993	16653
910.108	16637
910.224	16618
910.339	16565
910.454	16577
910.57	16489
910.685	16428
910.8	16649
910.915	16615
911.03	16390
911.145	16223
911.259	16261
911.374	16265
911.489	16109
911.604	16181
911.718	15915
911.833	15979
911.947	15888
912.062	15816
912.176	16051
912.291	15972
912.405	16010
912.519	16086
912.633	16120
912.748	15983
912.862	15968
912.976	15827
913.09	15648
913.204	15762
913.318	15705
913.431	15842
913.545	15819
913.659	15888
913.772	15785
913.886	15530
914	15618
914.113	15637
914.226	15778
914.34	15644
914.453	15538
914.566	15530
914.68	15469
914.793	15504
914.906	15321
915.019	15165
915.132	15226
915.245	15237
915.358	15150
915.47	15199
915.583	15222
915.696	15119
915.809	15260
915.921	15325
916.034	15161
916.146	15085
916.259	15055
916.371	15241
916.483	15039
916.595	14994
916.708	15039
916.82	15028
916.932	14986
917.044	15017
917.156	14948
917.268	14845
917.38	14895
917.491	14754
917.603	14872
917.715	14941
917.826	14963
917.938	14864
918.049	14693
918.161	14663
918.272	14853
918.384	14952
918.495	14773
918.606	14564
918.717	14549
918.828	14629
918.939	14693
919.05	14469
919.161	14541
919.272	14526
919.383	14454
919.494	14590
919.604	14674
919.715	14587
919.826	14412
919.936	14442
920.047	14689
920.157	14606
920.267	14762
920.378	14568
920.488	14431
920.598	14739
920.708	14914
920.818	14636
920.928	14678
921.038	14815
921.148	14842
921.258	14575
921.368	14412
921.477	14317
921.587	14294
921.697	14107
921.806	14248
921.916	14107
922.025	13963
922.134	13925
922.244	13890
922.353	13989
922.462	13837
922.571	13860
922.68	13655
922.789	13605
922.898	13613
923.007	13491
923.116	13563
923.224	13525
923.333	13647
923.442	13422
923.55	13400
923.659	13392
923.767	13495
923.876	13343
923.984	13403
924.092	13316
924.201	13377
924.309	13358
924.417	13331
924.525	13190
924.633	13190
924.741	14164
924.849	13031
924.956	13221
925.064	13000
925.172	12951
925.279	12935
925.387	12989
925.494	12916
925.602	13171
925.709	13057
925.816	13050
925.924	12924
926.031	13050
926.138	12924
926.245	13008
926.352	12875
926.459	13012
926.566	13050
926.673	12932
926.779	12856
926.886	12787
926.993	12631
927.099	12502
927.206	12574
927.312	12525
927.419	12673
927.525	12559
927.631	12669
927.737	12479
927.843	12445
927.95	12346
928.056	12395
928.162	12506
928.267	12521
928.373	13015
928.479	12464
928.585	12258
928.69	12471
928.796	12372
928.901	12266
929.007	12125
929.112	12243
929.218	12247
929.323	12133
929.428	12186
929.533	12277
929.638	12129
929.743	12182
929.848	12182
929.953	12106
930.058	12057
930.163	11824
930.267	11866
930.372	12030
930.477	11745
930.581	11988
930.685	11824
930.79	11726
930.894	11767
930.998	11695
931.103	11859
931.207	11516
931.311	11376
931.415	11360
931.519	11079
931.623	11052
