Data from test_V78500241_123.txt Node
Date: Fri Mar 25 15:42:39 CST 2022
User: usil
Spectrometer: V785-0024
Trigger mode: 0
Integration Time (sec): 4.000000E-1
Scans to average: 1
Nonlinearity correction enabled: false
Boxcar width: 0
Storing dark spectrum: false
XAxis mode: Wavelengths
Number of Pixels in Spectrum: 1024
>>>>>Begin Spectral Data<<<<<
801.071	30022
801.214	30114
801.356	29737
801.499	29745
801.641	29737
801.783	29516
801.926	29547
802.068	29665
802.211	29433
802.353	29531
802.496	29330
802.638	29265
802.78	29288
802.923	29113
803.065	29006
803.208	29204
803.35	29140
803.492	29174
803.635	29406
803.777	29235
803.919	29455
804.061	29703
804.204	29543
804.346	29349
804.488	29185
804.63	29360
804.773	29117
804.915	29372
805.057	29417
805.199	29364
805.341	29318
805.483	29436
805.626	29341
805.768	29360
805.91	29509
806.052	29551
806.194	29444
806.336	29638
806.478	29531
806.62	29459
806.762	29531
806.904	29638
807.046	29927
807.188	29851
807.33	29783
807.472	29756
807.614	29699
807.756	29786
807.898	29714
808.04	29482
808.182	29680
808.324	29619
808.465	29547
808.607	29927
808.749	30038
808.891	30034
809.033	30034
809.174	30045
809.316	29931
809.458	29961
809.6	30034
809.741	30125
809.883	30114
810.025	30292
810.166	30163
810.308	30281
810.45	30323
810.591	30201
810.733	30129
810.875	29885
811.016	29912
811.158	29923
811.299	30121
811.441	30098
811.582	29988
811.724	30007
811.865	29786
812.007	29882
812.148	29878
812.29	29908
812.431	30034
812.573	30270
812.714	30334
812.855	30498
812.997	30429
813.138	30566
813.279	30460
813.421	30380
813.562	30334
813.703	30057
813.845	30152
813.986	29783
814.127	29703
814.268	29551
814.41	29600
814.551	29486
814.692	29653
814.833	29467
814.974	29459
815.115	29505
815.256	29315
815.397	29368
815.539	29406
815.68	29349
815.821	29250
815.962	29204
816.103	29220
816.244	29086
816.385	29048
816.526	29083
816.666	28938
816.807	28805
816.948	28858
817.089	28809
817.23	28816
817.371	28561
817.512	28740
817.653	28615
817.793	28729
817.934	28634
818.075	28683
818.216	28641
818.356	28584
818.497	28656
818.638	28287
818.778	28318
818.919	28531
819.06	28497
819.2	28474
819.341	28516
819.481	28630
819.622	28729
819.762	28980
819.903	28873
820.043	28740
820.184	28877
820.324	28748
820.465	28736
820.605	28736
820.746	28721
820.886	28588
821.026	28641
821.167	28744
821.307	28683
821.447	28451
821.588	28516
821.728	28462
821.868	28078
822.008	28139
822.149	28112
822.289	28006
822.429	27800
822.569	27530
822.709	27667
822.849	27264
822.99	27557
823.13	27466
823.27	27370
823.41	27268
823.55	27351
823.69	27230
823.83	27241
823.97	27165
824.11	27039
824.25	27062
824.389	27119
824.529	27028
824.669	27066
824.809	27089
824.949	27157
825.089	27233
825.228	27116
825.368	27070
825.508	26929
825.648	26925
825.787	26788
825.927	26940
826.067	27009
826.206	26796
826.346	26819
826.485	26743
826.625	27070
826.765	26880
826.904	27028
827.044	26594
827.183	26632
827.323	26621
827.462	26579
827.601	26644
827.741	26495
827.88	26518
828.02	26377
828.159	26415
828.298	26488
828.437	26530
828.577	26412
828.716	26488
828.855	26374
828.994	26161
829.134	26206
829.273	26252
829.412	26039
829.551	26031
829.69	26073
829.829	26126
829.968	26187
830.107	26081
830.246	26191
830.385	26153
830.524	25986
830.663	25902
830.802	25826
830.941	25632
831.08	25693
831.219	25784
831.357	25757
831.496	25890
831.635	25723
831.774	25518
831.913	25514
832.051	25441
832.19	25419
832.329	25457
832.467	25384
832.606	25278
832.744	25187
832.883	25339
833.022	25209
833.16	25278
833.299	25327
833.437	25266
833.576	25312
833.714	25346
833.852	25331
833.991	25324
834.129	25510
834.267	25392
834.406	25327
834.544	25293
834.682	25384
834.821	25293
834.959	25510
835.097	25388
835.235	25384
835.373	25259
835.511	25354
835.65	25126
835.788	25042
835.926	25107
836.064	24939
836.202	24916
836.34	25050
836.478	25297
836.615	25061
836.753	25202
836.891	25251
837.029	25107
837.167	25057
837.305	25038
837.443	24840
837.58	24966
837.718	24989
837.856	24973
837.993	24848
838.131	24814
838.269	24817
838.406	24760
838.544	24768
838.681	24525
838.819	24513
838.956	24441
839.094	24247
839.231	24380
839.369	24441
839.506	24734
839.643	24566
839.781	24338
839.918	24338
840.055	24300
840.193	24292
840.33	24220
840.467	24239
840.604	24311
840.742	24513
840.879	24053
841.016	24182
841.153	24076
841.29	24273
841.427	24114
841.564	24243
841.701	24186
841.838	24110
841.975	24114
842.112	24095
842.249	24038
842.385	23927
842.522	24155
842.659	23855
842.796	23786
842.933	23958
843.069	23935
843.206	23718
843.343	23859
843.479	23828
843.616	23836
843.752	23535
843.889	23665
844.025	23634
844.162	23665
844.298	23535
844.435	23547
844.571	23448
844.708	23703
844.844	23802
844.98	23764
845.117	23695
845.253	23444
845.389	23421
845.525	23577
845.661	23444
845.798	23299
845.934	23242
846.07	23349
846.206	23311
846.342	23391
846.478	23337
846.614	23003
846.75	23048
846.886	23037
847.022	23162
847.158	22972
847.294	22930
847.429	23033
847.565	22957
847.701	23197
847.837	22675
847.972	22622
848.108	22759
848.244	22694
848.379	22710
848.515	22500
848.65	22584
848.786	22557
848.921	22561
849.057	22645
849.192	22596
849.328	22569
849.463	22500
849.598	22481
849.734	22451
849.869	22314
850.004	22284
850.14	22432
850.275	22333
850.41	22135
850.545	22230
850.68	22211
850.815	22276
850.95	22234
851.085	22394
851.22	22230
851.355	22291
851.49	22246
851.625	22238
851.76	22363
851.895	22196
852.03	22166
852.165	22154
852.299	22371
852.434	22265
852.569	22371
852.703	22211
852.838	22379
852.973	22306
853.107	22424
853.242	22261
853.376	22128
853.511	21915
853.645	21983
853.78	22276
853.914	22120
854.048	22025
854.183	22101
854.317	21956
854.451	22192
854.585	22040
854.72	22097
854.854	22131
854.988	21975
855.122	22040
855.256	21945
855.39	21899
855.524	22200
855.658	22040
855.792	21945
855.926	22032
856.06	22040
856.194	22055
856.327	22029
856.461	22002
856.595	21895
856.729	22044
856.862	22120
856.996	21956
857.13	22109
857.263	22067
857.397	22040
857.53	22105
857.664	21953
857.797	22139
857.931	22101
858.064	22032
858.197	22185
858.331	22067
858.464	21960
858.597	21880
858.731	21831
858.864	21934
858.997	21842
859.13	21854
859.263	22021
859.396	22063
859.529	21991
859.662	21926
859.795	21861
859.928	21873
860.061	22082
860.194	22025
860.327	21934
860.46	22112
860.592	22013
860.725	22078
860.858	22128
860.99	21956
861.123	21892
861.256	21968
861.388	22010
861.521	22580
861.653	21930
861.786	21739
861.918	21831
862.05	21926
862.183	22055
862.315	22067
862.447	22116
862.58	21972
862.712	21652
862.844	21713
862.976	21800
863.108	21679
863.24	22116
863.372	21583
863.504	21736
863.636	21587
863.768	21770
863.9	21804
864.032	21542
864.164	21511
864.296	21671
864.428	21690
864.559	21728
864.691	21766
864.823	21648
864.954	21591
865.086	21572
865.217	21511
865.349	21488
865.48	21500
865.612	21530
865.743	21599
865.875	21591
866.006	21561
866.137	21576
866.269	21492
866.4	21420
866.531	21408
866.662	21329
866.793	21481
866.924	21504
867.055	21500
867.186	21408
867.317	21367
867.448	21382
867.579	21431
867.71	21336
867.841	21397
867.972	21397
868.103	21561
868.233	21408
868.364	21462
868.495	21561
868.625	21583
868.756	21720
868.886	21507
869.017	21698
869.147	21667
869.278	21816
869.408	21667
869.539	21652
869.669	21709
869.799	21686
869.929	21850
870.06	21804
870.19	22055
870.32	22002
870.45	21949
870.58	22036
870.71	22173
870.84	22185
870.97	22147
871.1	22078
871.23	22207
871.36	22207
871.489	22185
871.619	22166
871.749	22200
871.879	22249
872.008	22417
872.138	22169
872.267	22185
872.397	22188
872.526	22169
872.656	22154
872.785	22006
872.915	22249
873.044	22367
873.173	22223
873.303	22284
873.432	22249
873.561	22375
873.69	22379
873.819	22261
873.948	22352
874.077	22272
874.206	22268
874.335	22242
874.464	22474
874.593	22561
874.722	22413
874.851	22550
874.979	22542
875.108	22500
875.237	22516
875.365	22455
875.494	22516
875.623	22542
875.751	22424
875.88	22538
876.008	22702
876.136	22752
876.265	22961
876.393	23094
876.521	23022
876.65	23044
876.778	23006
876.906	22797
877.034	22828
877.162	22816
877.29	22793
877.418	22908
877.546	22759
877.674	22862
877.802	22824
877.93	22809
878.058	22835
878.185	22744
878.313	22831
878.441	22972
878.568	22694
878.696	22847
878.824	22889
878.951	23037
879.079	22984
879.206	23136
879.333	22934
879.461	22908
879.588	22869
879.715	22991
879.842	23124
879.97	22995
880.097	22729
880.224	22664
880.351	22694
880.478	22664
880.605	22607
880.732	22759
880.859	22824
880.986	22675
881.112	22713
881.239	22535
881.366	22272
881.493	22299
881.619	22169
881.746	22291
881.872	22200
881.999	22162
882.125	22101
882.252	22306
882.378	22238
882.505	22329
882.631	22147
882.757	21869
882.883	22131
883.01	22010
883.136	21979
883.262	21861
883.388	21759
883.514	22002
883.64	22116
883.766	21819
883.892	21876
884.018	21766
884.143	21911
884.269	22013
884.395	21660
884.52	21488
884.646	21625
884.772	21538
884.897	21458
885.023	21625
885.148	21641
885.274	21762
885.399	21720
885.524	21606
885.65	21637
885.775	21583
885.9	21561
886.025	21583
886.15	21644
886.275	21439
886.4	21481
886.525	21477
886.65	21500
886.775	21564
886.9	21682
887.025	21759
887.149	21477
887.274	21321
887.399	21363
887.523	21397
887.648	21214
887.773	21116
887.897	21348
888.021	21477
888.146	21165
888.27	21405
888.395	21420
888.519	21237
888.643	21207
888.767	21393
888.891	21077
889.015	21104
889.139	21207
889.263	21119
889.387	21093
889.511	21321
889.635	21154
889.759	21112
889.883	21154
890.006	20982
890.13	21138
890.254	21055
890.377	21154
890.501	20929
890.624	20815
890.748	20857
890.871	20754
890.995	20716
891.118	20613
891.241	20670
891.364	20682
891.488	20735
891.611	20670
891.734	20712
891.857	20727
891.98	20632
892.103	20746
892.226	20629
892.349	20629
892.471	20400
892.594	20537
892.717	20530
892.839	20667
892.962	20708
893.085	20625
893.207	20518
893.33	20469
893.452	20522
893.575	20533
893.697	20541
893.819	20648
893.941	20769
894.064	20727
894.186	20598
894.308	20514
894.43	20541
894.552	20754
894.674	20530
894.796	20355
894.918	20533
895.04	20484
895.161	20549
895.283	20465
895.405	20629
895.526	20434
895.648	20575
895.769	20571
895.891	20556
896.012	20750
896.134	20724
896.255	20609
896.376	20617
896.498	20602
896.619	20670
896.74	20594
896.861	20568
896.982	21032
897.103	20990
897.224	20853
897.345	20830
897.466	20792
897.587	20872
897.708	20895
897.828	20762
897.949	20712
898.07	20693
898.19	20743
898.311	20750
898.431	20670
898.552	20788
898.672	20800
898.792	20857
898.913	20765
899.033	20640
899.153	20408
899.273	20400
899.393	20609
899.513	20511
899.633	20465
899.753	20434
899.873	20446
899.993	20507
900.113	20419
900.232	20419
900.352	20332
900.472	20294
900.591	20115
900.711	20275
900.83	20176
900.95	20385
901.069	20256
901.189	20024
901.308	19830
901.427	19856
901.546	19845
901.665	19921
901.784	19928
901.904	19704
902.023	19434
902.141	19384
902.26	19472
902.379	19441
902.498	19270
902.617	19198
902.735	19331
902.854	19282
902.973	19213
903.091	18935
903.21	18920
903.328	18966
903.446	18795
903.565	18726
903.683	18867
903.801	18661
903.919	18776
904.038	18764
904.156	18551
904.274	18570
904.392	18544
904.51	18452
904.627	18486
904.745	18544
904.863	18559
904.981	18300
905.098	18281
905.216	18186
905.334	18281
905.451	18197
905.569	18163
905.686	18182
905.803	18213
905.921	17988
906.038	18003
906.155	18030
906.272	17863
906.389	17942
906.506	17665
906.623	17726
906.74	17649
906.857	17509
906.974	17642
907.091	17661
907.208	17821
907.324	17634
907.441	17608
907.557	17429
907.674	17459
907.79	17315
907.907	17379
908.023	17421
908.139	17356
908.256	17284
908.372	17216
908.488	17140
908.604	17136
908.72	17117
908.836	17056
908.952	17086
909.068	17094
909.184	17132
909.3	17010
909.415	17010
909.531	16984
909.647	16691
909.762	16672
909.878	16725
909.993	16698
910.108	16805
910.224	16729
910.339	16698
910.454	16596
910.57	16603
910.685	16497
910.8	16729
910.915	16805
911.03	16421
911.145	16322
911.259	16249
911.374	16246
911.489	16246
911.604	16116
911.718	15987
911.833	16063
911.947	16090
912.062	15854
912.176	16181
912.291	16185
912.405	16097
912.519	16234
912.633	16162
912.748	16074
912.862	16048
912.976	15835
913.09	15739
913.204	15819
913.318	15751
913.431	15835
913.545	15842
913.659	15930
913.772	15770
913.886	15739
914	15637
914.113	15759
914.226	15781
914.34	15736
914.453	15530
914.566	15648
914.68	15591
914.793	15511
914.906	15370
915.019	15260
915.132	15154
915.245	15203
915.358	15173
915.47	15332
915.583	15230
915.696	15340
915.809	15431
915.921	15355
916.034	15222
916.146	15245
916.259	15074
916.371	15173
916.483	15169
916.595	15055
916.708	15127
916.82	15093
916.932	15051
917.044	15017
917.156	14979
917.268	14857
917.38	14914
917.491	14857
917.603	14792
917.715	14971
917.826	15013
917.938	14815
918.049	14613
918.161	14914
918.272	14952
918.384	15020
918.495	14750
918.606	14754
918.717	14587
918.828	14682
918.939	14674
919.05	14587
919.161	14659
919.272	14419
919.383	14537
919.494	14575
919.604	14727
919.715	14549
919.826	14598
919.936	14545
920.047	14552
920.157	14655
920.267	14800
920.378	14465
920.488	14469
920.598	14765
920.708	14914
920.818	14743
920.928	14701
921.038	14876
921.148	14838
921.258	14518
921.368	14355
921.477	14290
921.587	14240
921.697	14092
921.806	14237
921.916	14176
922.025	14005
922.134	13955
922.244	13894
922.353	13982
922.462	13712
922.571	13757
922.68	13556
922.789	13544
922.898	13597
923.007	13480
923.116	13609
923.224	13441
923.333	13525
923.442	13415
923.55	13278
923.659	13365
923.767	13384
923.876	13270
923.984	13480
924.092	13266
924.201	13301
924.309	13312
924.417	13213
924.525	13194
924.633	13244
924.741	13986
924.849	12981
924.956	13080
925.064	13019
925.172	12951
925.279	12939
925.387	12981
925.494	13008
925.602	13175
925.709	13023
925.816	12829
925.924	12928
926.031	13061
926.138	12878
926.245	12962
926.352	12825
926.459	12905
926.566	12973
926.673	12928
926.779	12787
926.886	12673
926.993	12559
927.099	12525
927.206	12399
927.312	12445
927.419	12540
927.525	12532
927.631	12555
927.737	12365
927.843	12395
927.95	12121
928.056	12338
928.162	12289
928.267	12334
928.373	13015
928.479	12391
928.585	12125
928.69	12220
928.796	12319
928.901	12216
929.007	11977
929.112	12163
929.218	12155
929.323	12072
929.428	12053
929.533	12197
929.638	11946
929.743	11996
929.848	12049
929.953	11958
930.058	11870
930.163	11794
930.267	11722
930.372	11828
930.477	11790
930.581	11904
930.685	11707
930.79	11615
930.894	11630
930.998	11589
931.103	11699
931.207	11330
931.311	11322
931.415	11136
931.519	10949
931.623	10961
