Data from test_V78500241_1226.txt Node
Date: Fri Mar 25 15:50:17 CST 2022
User: usil
Spectrometer: V785-0024
Trigger mode: 0
Integration Time (sec): 4.000000E-1
Scans to average: 1
Nonlinearity correction enabled: false
Boxcar width: 0
Storing dark spectrum: false
XAxis mode: Wavelengths
Number of Pixels in Spectrum: 1024
>>>>>Begin Spectral Data<<<<<
801.071	28405
801.214	28474
801.356	28185
801.499	28242
801.641	27930
801.783	28044
801.926	28032
802.068	28048
802.211	27964
802.353	27895
802.496	27701
802.638	27797
802.78	27622
802.923	27713
803.065	27629
803.208	27751
803.35	27724
803.492	27785
803.635	27987
803.777	27819
803.919	27945
804.061	28124
804.204	27930
804.346	28010
804.488	27827
804.63	28006
804.773	27770
804.915	27934
805.057	28059
805.199	27835
805.341	28040
805.483	28036
805.626	28055
805.768	27922
805.91	28044
806.052	28192
806.194	28040
806.336	28413
806.478	28295
806.62	28215
806.762	28265
806.904	28242
807.046	28531
807.188	28417
807.33	28565
807.472	28622
807.614	28424
807.756	28577
807.898	28459
808.04	28379
808.182	28306
808.324	28325
808.465	28527
808.607	28694
808.749	28896
808.891	28934
809.033	28930
809.174	28850
809.316	28816
809.458	28797
809.6	28790
809.741	28915
809.883	28942
810.025	29083
810.166	29235
810.308	29048
810.45	28953
810.591	28930
810.733	28877
810.875	28831
811.016	28778
811.158	28691
811.299	28816
811.441	29003
811.582	28869
811.724	28911
811.865	28885
812.007	28721
812.148	28771
812.29	28873
812.431	28995
812.573	29071
812.714	29208
812.855	29436
812.997	29288
813.138	29547
813.279	29524
813.421	29478
813.562	29204
813.703	29204
813.845	28957
813.986	28740
814.127	28611
814.268	28527
814.41	28523
814.551	28554
814.692	28523
814.833	28432
814.974	28538
815.115	28512
815.256	28337
815.397	28265
815.539	28371
815.68	28337
815.821	28215
815.962	28253
816.103	28223
816.244	28341
816.385	28074
816.526	28090
816.666	27922
816.807	27789
816.948	27774
817.089	28002
817.23	27899
817.371	27728
817.512	27785
817.653	27739
817.793	27808
817.934	27888
818.075	27884
818.216	27759
818.356	27724
818.497	27587
818.638	27545
818.778	27587
818.919	27515
819.06	27587
819.2	27736
819.341	27835
819.481	27785
819.622	28021
819.762	28253
819.903	28048
820.043	27991
820.184	27899
820.324	27835
820.465	27956
820.605	27937
820.746	27892
820.886	27747
821.026	27945
821.167	27797
821.307	27903
821.447	27774
821.588	27675
821.728	27637
821.868	27424
822.008	27260
822.149	27294
822.289	27218
822.429	27070
822.569	26895
822.709	27039
822.849	26823
822.99	26773
823.13	26762
823.27	26651
823.41	26625
823.55	26537
823.69	26697
823.83	26606
823.97	26488
824.11	26381
824.25	26442
824.389	26446
824.529	26533
824.669	26450
824.809	26533
824.949	26518
825.089	26613
825.228	26587
825.368	26282
825.508	26309
825.648	26317
825.787	26248
825.927	26286
826.067	26225
826.206	26256
826.346	26332
826.485	26374
826.625	26301
826.765	26507
826.904	26324
827.044	26039
827.183	26126
827.323	25966
827.462	26138
827.601	25955
827.741	26138
827.88	26062
828.02	25883
828.159	25997
828.298	26016
828.437	26138
828.577	25997
828.716	26001
828.855	25909
828.994	25841
829.134	25776
829.273	25799
829.412	25632
829.551	25700
829.69	25635
829.829	25784
829.968	25594
830.107	25879
830.246	25772
830.385	25681
830.524	25639
830.663	25575
830.802	25460
830.941	25285
831.08	25377
831.219	25434
831.357	25377
831.496	25533
831.635	25293
831.774	25266
831.913	25107
832.051	25152
832.19	25152
832.329	25065
832.467	25065
832.606	24962
832.744	24932
832.883	25000
833.022	24886
833.16	24943
833.299	25061
833.437	25084
833.576	25023
833.714	24966
833.852	25050
833.991	25137
834.129	25053
834.267	25084
834.406	25088
834.544	24973
834.682	25042
834.821	25004
834.959	25137
835.097	25095
835.235	25126
835.373	25057
835.511	24833
835.65	24913
835.788	24962
835.926	24764
836.064	24783
836.202	24612
836.34	24817
836.478	24859
836.615	24913
836.753	24840
836.891	24871
837.029	25012
837.167	24745
837.305	24837
837.443	24806
837.58	24620
837.718	24768
837.856	24688
837.993	24681
838.131	24498
838.269	24582
838.406	24623
838.544	24551
838.681	24369
838.819	24315
838.956	24136
839.094	24163
839.231	24148
839.369	24441
839.506	24593
839.643	24395
839.781	24148
839.918	24057
840.055	24087
840.193	24087
840.33	24117
840.467	24110
840.604	24072
840.742	24357
840.879	24018
841.016	24038
841.153	24068
841.29	24121
841.427	24026
841.564	24129
841.701	24163
841.838	24076
841.975	23942
842.112	23965
842.249	23973
842.385	23893
842.522	24076
842.659	23863
842.796	23764
842.933	23824
843.069	23904
843.206	23767
843.343	23893
843.479	23851
843.616	23901
843.752	23585
843.889	23756
844.025	23813
844.162	23608
844.298	23741
844.435	23646
844.571	23505
844.708	23737
844.844	23707
844.98	23882
845.117	23668
845.253	23585
845.389	23448
845.525	23528
845.661	23436
845.798	23372
845.934	23330
846.07	23368
846.206	23356
846.342	23493
846.478	23315
846.614	23079
846.75	23052
846.886	23052
847.022	23102
847.158	23029
847.294	23204
847.429	23041
847.565	23079
847.701	23235
847.837	22904
847.972	22790
848.108	22809
848.244	22847
848.379	22820
848.515	22774
848.65	22580
848.786	22706
848.921	22725
849.057	22793
849.192	22656
849.328	22641
849.463	22778
849.598	22580
849.734	22542
849.869	22535
850.004	22440
850.14	22379
850.275	22428
850.41	22390
850.545	22276
850.68	22375
850.815	22382
850.95	22341
851.085	22561
851.22	22466
851.355	22493
851.49	22360
851.625	22287
851.76	22348
851.895	22337
852.03	22436
852.165	22440
852.299	22481
852.434	22523
852.569	22462
852.703	22440
852.838	22485
852.973	22554
853.107	22634
853.242	22352
853.376	22249
853.511	22006
853.645	22185
853.78	22295
853.914	22253
854.048	22169
854.183	22211
854.317	22215
854.451	22470
854.585	22200
854.72	22265
854.854	22398
854.988	22120
855.122	22253
855.256	22109
855.39	22272
855.524	22295
855.658	22303
855.792	22226
855.926	22166
856.06	22131
856.194	22177
856.327	22272
856.461	22185
856.595	22169
856.729	22128
856.862	22333
856.996	22314
857.13	22230
857.263	22272
857.397	22261
857.53	22242
857.664	22147
857.797	22272
857.931	22337
858.064	22249
858.197	22295
858.331	22280
858.464	22162
858.597	22070
858.731	22200
858.864	22055
858.997	22120
859.13	22287
859.263	22299
859.396	22299
859.529	22162
859.662	22272
859.795	22181
859.928	22169
860.061	22363
860.194	22421
860.327	22284
860.46	22356
860.592	22352
860.725	22356
860.858	22265
860.99	22314
861.123	22112
861.256	22048
861.388	22272
861.521	23071
861.653	22097
861.786	21937
861.918	22112
862.05	22112
862.183	22185
862.315	22173
862.447	22200
862.58	22295
862.712	21975
862.844	21869
862.976	21949
863.108	22029
863.24	22322
863.372	21755
863.504	21880
863.636	21926
863.768	21915
863.9	21915
864.032	21953
864.164	21892
864.296	21937
864.428	22002
864.559	22128
864.691	21972
864.823	21934
864.954	21899
865.086	21998
865.217	21964
865.349	21778
865.48	21869
865.612	21823
865.743	21880
865.875	21846
866.006	21720
866.137	21884
866.269	21846
866.4	21724
866.531	21739
866.662	21759
866.793	21694
866.924	21865
867.055	21747
867.186	21793
867.317	21724
867.448	21682
867.579	21713
867.71	21770
867.841	21637
867.972	21747
868.103	21804
868.233	21793
868.364	21701
868.495	21831
868.625	21983
868.756	22040
868.886	21956
869.017	21888
869.147	22055
869.278	22051
869.408	21987
869.539	22036
869.669	22097
869.799	21975
869.929	22147
870.06	22044
870.19	22325
870.32	22337
870.45	22303
870.58	22356
870.71	22500
870.84	22363
870.97	22379
871.1	22226
871.23	22481
871.36	22531
871.489	22462
871.619	22584
871.749	22554
871.879	22527
872.008	22607
872.138	22554
872.267	22565
872.397	22493
872.526	22371
872.656	22440
872.785	22333
872.915	22592
873.044	22660
873.173	22645
873.303	22615
873.432	22717
873.561	22637
873.69	22653
873.819	22546
873.948	22679
874.077	22622
874.206	22554
874.335	22630
874.464	22683
874.593	22801
874.722	22790
874.851	22809
874.979	22835
875.108	22809
875.237	22755
875.365	22637
875.494	22675
875.623	22862
875.751	22778
875.88	22828
876.008	22881
876.136	22923
876.265	23170
876.393	23440
876.521	23318
876.65	23258
876.778	23189
876.906	23178
877.034	23124
877.162	23227
877.29	23086
877.418	23090
877.546	23121
877.674	23193
877.802	23174
877.93	23200
878.058	23064
878.185	22984
878.313	23079
878.441	23151
878.568	23003
878.696	23121
878.824	23315
878.951	23269
879.079	23303
879.206	23410
879.333	23421
879.461	23223
879.588	23334
879.715	23296
879.842	23440
879.97	23162
880.097	23048
880.224	22900
880.351	22877
880.478	22991
880.605	23083
880.732	22972
880.859	23181
880.986	23037
881.112	22953
881.239	22790
881.366	22679
881.493	22577
881.619	22618
881.746	22599
881.872	22500
881.999	22360
882.125	22451
882.252	22615
882.378	22428
882.505	22557
882.631	22462
882.757	22272
882.883	22405
883.01	22196
883.136	22382
883.262	21987
883.388	22002
883.514	22211
883.64	22112
883.766	22181
883.892	21831
884.018	21907
884.143	22162
884.269	22173
884.395	21937
884.52	21732
884.646	21827
884.772	21774
884.897	21766
885.023	21789
885.148	21991
885.274	21998
885.399	21827
885.524	21804
885.65	21751
885.775	21945
885.9	21739
886.025	21926
886.15	21926
886.275	21876
886.4	21698
886.525	21728
886.65	21880
886.775	21778
886.9	21911
887.025	22169
887.149	21823
887.274	21778
887.399	21671
887.523	21542
887.648	21583
887.773	21477
887.897	21641
888.021	21595
888.146	21511
888.27	21625
888.395	21656
888.519	21583
888.643	21629
888.767	21663
888.891	21466
889.015	21424
889.139	21367
889.263	21344
889.387	21420
889.511	21572
889.635	21572
889.759	21412
889.883	21367
890.006	21302
890.13	21454
890.254	21260
890.377	21367
890.501	21207
890.624	21070
890.748	21032
890.871	20963
890.995	21036
891.118	20910
891.241	20986
891.364	20933
891.488	21157
891.611	20990
891.734	21005
891.857	21017
891.98	20906
892.103	21024
892.226	20842
892.349	20971
892.471	20769
892.594	20933
892.717	20758
892.839	20815
892.962	20937
893.085	20921
893.207	20845
893.33	20670
893.452	20823
893.575	20834
893.697	20724
893.819	20986
893.941	21017
894.064	21108
894.186	20785
894.308	20765
894.43	20925
894.552	21020
894.674	20849
894.796	20750
894.918	20762
895.04	20781
895.161	20872
895.283	20971
895.405	20777
895.526	20853
895.648	20796
895.769	20872
895.891	20834
896.012	20921
896.134	20868
896.255	20811
896.376	20670
896.498	20773
896.619	20807
896.74	20914
896.861	20838
896.982	21146
897.103	21294
897.224	21085
897.345	21096
897.466	20883
897.587	21169
897.708	21184
897.828	21070
897.949	21062
898.07	20807
898.19	20971
898.311	21199
898.431	20990
898.552	21085
898.672	21051
898.792	21207
898.913	20994
899.033	20895
899.153	20807
899.273	20625
899.393	20842
899.513	20792
899.633	20792
899.753	20781
899.873	20769
899.993	20712
900.113	20708
900.232	20720
900.352	20579
900.472	20579
900.591	20488
900.711	20492
900.83	20533
900.95	20568
901.069	20621
901.189	20317
901.308	20218
901.427	20142
901.546	20077
901.665	20122
901.784	20202
901.904	20024
902.023	19928
902.141	19677
902.26	19624
902.379	19685
902.498	19590
902.617	19601
902.735	19715
902.854	19578
902.973	19521
903.091	19293
903.21	19236
903.328	19312
903.446	19190
903.565	19114
903.683	19099
903.801	18882
903.919	19057
904.038	18863
904.156	18791
904.274	18916
904.392	18779
904.51	18795
904.627	18856
904.745	18787
904.863	18859
904.981	18620
905.098	18517
905.216	18452
905.334	18475
905.451	18593
905.569	18490
905.686	18452
905.803	18460
905.921	18232
906.038	18327
906.155	18384
906.272	18277
906.389	18296
906.506	18064
906.623	18034
906.74	18041
906.857	17847
906.974	17901
907.091	18060
907.208	18045
907.324	18159
907.441	17866
907.557	17813
907.674	17729
907.79	17642
907.907	17691
908.023	17783
908.139	17798
908.256	17756
908.372	17638
908.488	17634
908.604	17554
908.72	17455
908.836	17509
908.952	17440
909.068	17490
909.184	17581
909.3	17516
909.415	17558
909.531	17596
909.647	17216
909.762	17216
909.878	17246
909.993	17280
910.108	17140
910.224	17174
910.339	17113
910.454	16957
910.57	16957
910.685	16866
910.8	17052
910.915	17090
911.03	16999
911.145	16763
911.259	16782
911.374	16744
911.489	16664
911.604	16592
911.718	16481
911.833	16478
911.947	16428
912.062	16325
912.176	16421
912.291	16516
912.405	16550
912.519	16675
912.633	16622
912.748	16546
912.862	16398
912.976	16314
913.09	16158
913.204	16253
913.318	16215
913.431	16226
913.545	16402
913.659	16386
913.772	16223
913.886	16124
914	16147
914.113	16246
914.226	16207
914.34	16177
914.453	16036
914.566	15975
914.68	15972
914.793	15987
914.906	15766
915.019	15610
915.132	15641
915.245	15580
915.358	15667
915.47	15629
915.583	15576
915.696	15549
915.809	15747
915.921	15739
916.034	15660
916.146	15515
916.259	15530
916.371	15732
916.483	15511
916.595	15519
916.708	15515
916.82	15545
916.932	15458
917.044	15386
917.156	15416
917.268	15287
917.38	15306
917.491	15329
917.603	15336
917.715	15313
917.826	15378
917.938	15119
918.049	15104
918.161	15256
918.272	15264
918.384	15291
918.495	15222
918.606	14979
918.717	14960
918.828	15150
918.939	15131
919.05	14941
919.161	15028
919.272	14902
919.383	14857
919.494	15104
919.604	15180
919.715	15119
919.826	14963
919.936	14960
920.047	15017
920.157	15104
920.267	15226
920.378	14895
920.488	14982
920.598	15104
920.708	15283
920.818	15028
920.928	15104
921.038	15291
921.148	15192
921.258	14910
921.368	14842
921.477	14693
921.587	14727
921.697	14613
921.806	14644
921.916	14495
922.025	14442
922.134	14393
922.244	14301
922.353	14431
922.462	14233
922.571	14275
922.68	14100
922.789	13970
922.898	14115
923.007	13932
923.116	14119
923.224	14005
923.333	13921
923.442	13860
923.55	13826
923.659	13807
923.767	13883
923.876	13822
923.984	13849
924.092	13674
924.201	13784
924.309	13696
924.417	13731
924.525	13616
924.633	13674
924.741	14320
924.849	13384
924.956	13563
925.064	13499
925.172	13327
925.279	13354
925.387	13339
925.494	13362
925.602	13506
925.709	13434
925.816	13285
925.924	13358
926.031	13529
926.138	13324
926.245	13373
926.352	13282
926.459	13419
926.566	13460
926.673	13266
926.779	13042
926.886	13126
926.993	12996
927.099	12996
927.206	12848
927.312	12837
927.419	12977
927.525	12993
927.631	12901
927.737	12810
927.843	12764
927.95	12707
928.056	12730
928.162	12707
928.267	12776
928.373	13453
928.479	12890
928.585	12582
928.69	12741
928.796	12673
928.901	12623
929.007	12479
929.112	12646
929.218	12582
929.323	12532
929.428	12445
929.533	12559
929.638	12376
929.743	12502
929.848	12452
929.953	12376
930.058	12311
930.163	12159
930.267	12296
930.372	12285
930.477	12110
930.581	12353
930.685	12197
930.79	12064
930.894	12060
930.998	11958
931.103	12159
931.207	11798
931.311	11646
931.415	11623
931.519	11395
931.623	11376
