Data from test_V78500241_723.txt Node
Date: Fri Mar 25 15:46:48 CST 2022
User: usil
Spectrometer: V785-0024
Trigger mode: 0
Integration Time (sec): 4.000000E-1
Scans to average: 1
Nonlinearity correction enabled: false
Boxcar width: 0
Storing dark spectrum: false
XAxis mode: Wavelengths
Number of Pixels in Spectrum: 1024
>>>>>Begin Spectral Data<<<<<
801.071	27504
801.214	27325
801.356	27192
801.499	27150
801.641	27058
801.783	27062
801.926	27058
802.068	27009
802.211	26750
802.353	26697
802.496	26587
802.638	26609
802.78	26606
802.923	26598
803.065	26450
803.208	26564
803.35	26667
803.492	26697
803.635	26686
803.777	26629
803.919	26724
804.061	27074
804.204	26811
804.346	26640
804.488	26636
804.63	26583
804.773	26670
804.915	26788
805.057	26982
805.199	26720
805.341	26864
805.483	26864
805.626	26986
805.768	26819
805.91	26872
806.052	26815
806.194	26765
806.336	26944
806.478	26918
806.62	26952
806.762	26963
806.904	27108
807.046	27393
807.188	27302
807.33	27298
807.472	27275
807.614	27233
807.756	27237
807.898	27096
808.04	27074
808.182	27077
808.324	27074
808.465	27146
808.607	27351
808.749	27488
808.891	27629
809.033	27724
809.174	27629
809.316	27420
809.458	27496
809.6	27542
809.741	27473
809.883	27720
810.025	27690
810.166	27800
810.308	27827
810.45	27675
810.591	27732
810.733	27481
810.875	27447
811.016	27462
811.158	27348
811.299	27606
811.441	27747
811.582	27800
811.724	27564
811.865	27439
812.007	27526
812.148	27523
812.29	27587
812.431	27797
812.573	27888
812.714	28025
812.855	28029
812.997	28101
813.138	28367
813.279	28105
813.421	27991
813.562	27964
813.703	27827
813.845	27751
813.986	27462
814.127	27424
814.268	27195
814.41	27306
814.551	27241
814.692	27230
814.833	27195
814.974	27207
815.115	27302
815.256	26849
815.397	26982
815.539	27070
815.68	26845
815.821	26921
815.962	26975
816.103	26796
816.244	27032
816.385	26811
816.526	26727
816.666	26511
816.807	26632
816.948	26533
817.089	26617
817.23	26537
817.371	26442
817.512	26438
817.653	26393
817.793	26370
817.934	26438
818.075	26446
818.216	26473
818.356	26351
818.497	26336
818.638	26278
818.778	26271
818.919	26275
819.06	26240
819.2	26370
819.341	26484
819.481	26571
819.622	26613
819.762	26720
819.903	26644
820.043	26678
820.184	26697
820.324	26590
820.465	26587
820.605	26636
820.746	26598
820.886	26374
821.026	26488
821.167	26507
821.307	26670
821.447	26442
821.588	26461
821.728	26290
821.868	26119
822.008	26012
822.149	26054
822.289	25982
822.429	25791
822.569	25677
822.709	25833
822.849	25422
822.99	25502
823.13	25441
823.27	25407
823.41	25400
823.55	25255
823.69	25343
823.83	25263
823.97	25369
824.11	25099
824.25	25107
824.389	25034
824.529	25187
824.669	25194
824.809	25194
824.949	25274
825.089	25282
825.228	25133
825.368	24958
825.508	25118
825.648	24996
825.787	24954
825.927	25088
826.067	24962
826.206	25019
826.346	25152
826.485	24890
826.625	25023
826.765	24943
826.904	24867
827.044	24722
827.183	24741
827.323	24787
827.462	24696
827.601	24741
827.741	24570
827.88	24658
828.02	24494
828.159	24585
828.298	24745
828.437	24673
828.577	24631
828.716	24677
828.855	24730
828.994	24448
829.134	24365
829.273	24414
829.412	24342
829.551	24353
829.69	24346
829.829	24418
829.968	24490
830.107	24433
830.246	24384
830.385	24247
830.524	24327
830.663	24117
830.802	24152
830.941	24030
831.08	23961
831.219	24045
831.357	23996
831.496	24270
831.635	23977
831.774	23954
831.913	23843
832.051	23836
832.19	23817
832.329	23832
832.467	23691
832.606	23653
832.744	23592
832.883	23596
833.022	23661
833.16	23623
833.299	23680
833.437	23745
833.576	23707
833.714	23752
833.852	23707
833.991	23779
834.129	23805
834.267	23821
834.406	23657
834.544	23752
834.682	23786
834.821	23851
834.959	23828
835.097	23589
835.235	23748
835.373	23703
835.511	23722
835.65	23592
835.788	23604
835.926	23318
836.064	23356
836.202	23376
836.34	23596
836.478	23672
836.615	23482
836.753	23589
836.891	23570
837.029	23543
837.167	23501
837.305	23497
837.443	23493
837.58	23410
837.718	23406
837.856	23379
837.993	23436
838.131	23372
838.269	23280
838.406	23296
838.544	23162
838.681	23022
838.819	22927
838.956	22938
839.094	22877
839.231	22980
839.369	23041
839.506	23254
839.643	23102
839.781	22942
839.918	22889
840.055	22854
840.193	22797
840.33	22816
840.467	22733
840.604	22896
840.742	23075
840.879	22645
841.016	22725
841.153	22744
841.29	22820
841.427	22805
841.564	22885
841.701	22691
841.838	22649
841.975	22550
842.112	22573
842.249	22546
842.385	22531
842.522	22774
842.659	22565
842.796	22417
842.933	22630
843.069	22474
843.206	22474
843.343	22493
843.479	22478
843.616	22531
843.752	22226
843.889	22363
844.025	22466
844.162	22169
844.298	22341
844.435	22177
844.571	22162
844.708	22405
844.844	22409
844.98	22459
845.117	22447
845.253	22242
845.389	22200
845.525	22070
845.661	22253
845.798	22082
845.934	22188
846.07	22036
846.206	22040
846.342	22215
846.478	22090
846.614	21835
846.75	21770
846.886	21675
847.022	21854
847.158	21800
847.294	21884
847.429	21861
847.565	21656
847.701	22029
847.837	21542
847.972	21412
848.108	21545
848.244	21564
848.379	21393
848.515	21481
848.65	21226
848.786	21332
848.921	21359
849.057	21435
849.192	21462
849.328	21435
849.463	21351
849.598	21370
849.734	21230
849.869	21279
850.004	21127
850.14	21165
850.275	21180
850.41	21089
850.545	21085
850.68	21100
850.815	21116
850.95	21058
851.085	21256
851.22	21321
851.355	21135
851.49	21165
851.625	21085
851.76	21093
851.895	21039
852.03	21062
852.165	21028
852.299	21108
852.434	21260
852.569	21157
852.703	21146
852.838	21085
852.973	21180
853.107	21188
853.242	21074
853.376	20952
853.511	20800
853.645	20864
853.78	21089
853.914	20967
854.048	20944
854.183	21028
854.317	21001
854.451	21199
854.585	20963
854.72	20944
854.854	20956
854.988	20876
855.122	20868
855.256	20845
855.39	20918
855.524	20937
855.658	21036
855.792	20891
855.926	21146
856.06	20990
856.194	21047
856.327	20891
856.461	20876
856.595	20887
856.729	20963
856.862	21005
856.996	20963
857.13	20891
857.263	21127
857.397	21096
857.53	20963
857.664	21123
857.797	21039
857.931	20986
858.064	20960
858.197	21020
858.331	20933
858.464	20956
858.597	20815
858.731	20956
858.864	20872
858.997	20842
859.13	20941
859.263	20857
859.396	21036
859.529	20876
859.662	20872
859.795	20899
859.928	20963
860.061	21161
860.194	21199
860.327	20910
860.46	21024
860.592	21024
860.725	21146
860.858	21108
860.99	20956
861.123	20872
861.256	20921
861.388	20967
861.521	21439
861.653	20880
861.786	20853
861.918	20807
862.05	20872
862.183	20819
862.315	20864
862.447	20883
862.58	20842
862.712	20686
862.844	20632
862.976	20712
863.108	20708
863.24	21127
863.372	20716
863.504	20587
863.636	20663
863.768	20678
863.9	20708
864.032	20716
864.164	20556
864.296	20765
864.428	20705
864.559	20765
864.691	20686
864.823	20632
864.954	20568
865.086	20663
865.217	20629
865.349	20480
865.48	20454
865.612	20537
865.743	20659
865.875	20533
866.006	20659
866.137	20629
866.269	20571
866.4	20598
866.531	20377
866.662	20587
866.793	20465
866.924	20450
867.055	20469
867.186	20469
867.317	20419
867.448	20442
867.579	20389
867.71	20404
867.841	20454
867.972	20484
868.103	20495
868.233	20450
868.364	20602
868.495	20659
868.625	20731
868.756	20823
868.886	20640
869.017	20727
869.147	20891
869.278	20910
869.408	20731
869.539	20705
869.669	20861
869.799	20678
869.929	20876
870.06	20914
870.19	21001
870.32	21150
870.45	21058
870.58	21089
870.71	21298
870.84	21214
870.97	21207
871.1	21043
871.23	21397
871.36	21310
871.489	21245
871.619	21401
871.749	21386
871.879	21348
872.008	21504
872.138	21344
872.267	21351
872.397	21241
872.526	21146
872.656	21116
872.785	21214
872.915	21310
873.044	21408
873.173	21325
873.303	21500
873.432	21454
873.561	21454
873.69	21294
873.819	21332
873.948	21355
874.077	21252
874.206	21344
874.335	21359
874.464	21534
874.593	21606
874.722	21545
874.851	21637
874.979	21679
875.108	21580
875.237	21545
875.365	21511
875.494	21572
875.623	21667
875.751	21511
875.88	21603
876.008	21804
876.136	21732
876.265	21998
876.393	22082
876.521	22048
876.65	22048
876.778	21926
876.906	22002
877.034	21915
877.162	21888
877.29	21998
877.418	21876
877.546	21949
877.674	22040
877.802	21880
877.93	21960
878.058	21983
878.185	21846
878.313	21918
878.441	21873
878.568	21717
878.696	21789
878.824	21937
878.951	21941
879.079	22078
879.206	22211
879.333	22078
879.461	21850
879.588	22013
879.715	22101
879.842	22185
879.97	22078
880.097	21743
880.224	21781
880.351	21751
880.478	21797
880.605	21599
880.732	21595
880.859	22059
880.986	21835
881.112	21812
881.239	21747
881.366	21511
881.493	21488
881.619	21447
881.746	21382
881.872	21363
881.999	21264
882.125	21287
882.252	21275
882.378	21367
882.505	21401
882.631	21252
882.757	21180
882.883	21157
883.01	21096
883.136	21085
883.262	20956
883.388	20883
883.514	21028
883.64	21001
883.766	20975
883.892	20804
884.018	20857
884.143	20861
884.269	21161
884.395	20735
884.52	20644
884.646	20762
884.772	20648
884.897	20648
885.023	20648
885.148	20785
885.274	20807
885.399	20800
885.524	20617
885.65	20682
885.775	20705
885.9	20743
886.025	20724
886.15	20708
886.275	20727
886.4	20545
886.525	20644
886.65	20659
886.775	20571
886.9	20788
887.025	20887
887.149	20617
887.274	20503
887.399	20461
887.523	20427
887.648	20374
887.773	20404
887.897	20613
888.021	20564
888.146	20419
888.27	20522
888.395	20590
888.519	20571
888.643	20415
888.767	20438
888.891	20415
889.015	20248
889.139	20225
889.263	20294
889.387	20358
889.511	20469
889.635	20389
889.759	20199
889.883	20111
890.006	20244
890.13	20301
890.254	20157
890.377	20233
890.501	20031
890.624	19993
890.748	20058
890.871	19940
890.995	19772
891.118	19814
891.241	19807
891.364	19959
891.488	19947
891.611	19811
891.734	19807
891.857	19883
891.98	19902
892.103	19807
892.226	19765
892.349	19807
892.471	19616
892.594	19696
892.717	19742
892.839	19788
892.962	19685
893.085	19799
893.207	19719
893.33	19597
893.452	19715
893.575	19753
893.697	19734
893.819	19852
893.941	19932
894.064	19811
894.186	19784
894.308	19708
894.43	19765
894.552	19932
894.674	19761
894.796	19696
894.918	19788
895.04	19719
895.161	19772
895.283	19830
895.405	19651
895.526	19750
895.648	19712
895.769	19757
895.891	19830
896.012	19814
896.134	19894
896.255	19772
896.376	19776
896.498	19765
896.619	19795
896.74	19837
896.861	19837
896.982	20134
897.103	20237
897.224	19970
897.345	20008
897.466	19894
897.587	19967
897.708	20142
897.828	20001
897.949	19989
898.07	19898
898.19	19894
898.311	20035
898.431	19951
898.552	20111
898.672	19940
898.792	20005
898.913	20081
899.033	19928
899.153	19830
899.273	19590
899.393	19742
899.513	19727
899.633	19811
899.753	19811
899.873	19666
899.993	19609
900.113	19708
900.232	19719
900.352	19681
900.472	19521
900.591	19521
900.711	19578
900.83	19460
900.95	19742
901.069	19540
901.189	19369
901.308	19251
901.427	19114
901.546	19198
901.665	19175
901.784	19187
901.904	18973
902.023	18901
902.141	18749
902.26	18650
902.379	18616
902.498	18635
902.617	18612
902.735	18696
902.854	18669
902.973	18475
903.091	18414
903.21	18308
903.328	18251
903.446	18148
903.565	18220
903.683	18091
903.801	17980
903.919	18076
904.038	17942
904.156	17927
904.274	18045
904.392	17824
904.51	17805
904.627	17851
904.745	17878
904.863	17942
904.981	17687
905.098	17516
905.216	17558
905.334	17585
905.451	17528
905.569	17543
905.686	17680
905.803	17520
905.921	17414
906.038	17410
906.155	17337
906.272	17265
906.389	17296
906.506	17155
906.623	17079
906.74	17029
906.857	16946
906.974	17056
907.091	17083
907.208	17189
907.324	17105
907.441	17010
907.557	16900
907.674	16904
907.79	16733
907.907	16740
908.023	16900
908.139	16809
908.256	16790
908.372	16759
908.488	16698
908.604	16558
908.72	16535
908.836	16634
908.952	16580
909.068	16523
909.184	16660
909.3	16390
909.415	16531
909.531	16531
909.647	16257
909.762	16196
909.878	16215
909.993	16097
910.108	16143
910.224	16173
910.339	16234
910.454	16055
910.57	16185
910.685	16032
910.8	16280
910.915	16150
911.03	16074
911.145	15899
911.259	15793
911.374	15842
911.489	15823
911.604	15663
911.718	15504
911.833	15625
911.947	15557
912.062	15507
912.176	15671
912.291	15606
912.405	15599
912.519	15804
912.633	15698
912.748	15732
912.862	15542
912.976	15488
913.09	15252
913.204	15348
913.318	15477
913.431	15572
913.545	15481
913.659	15595
913.772	15401
913.886	15275
914	15188
914.113	15317
914.226	15348
914.34	15264
914.453	15135
914.566	15256
914.68	15173
914.793	15032
914.906	14895
915.019	14769
915.132	14792
915.245	14823
915.358	14815
915.47	14743
915.583	14785
915.696	14788
915.809	14914
915.921	14883
916.034	14735
916.146	14762
916.259	14712
916.371	14819
916.483	14773
916.595	14678
916.708	14686
916.82	14674
916.932	14560
917.044	14587
917.156	14514
917.268	14480
917.38	14545
917.491	14537
917.603	14560
917.715	14621
917.826	14545
917.938	14431
918.049	14305
918.161	14434
918.272	14632
918.384	14492
918.495	14457
918.606	14332
918.717	14233
918.828	14343
918.939	14332
919.05	14100
919.161	14210
919.272	14062
919.383	14058
919.494	14275
919.604	14415
919.715	14286
919.826	14161
919.936	14237
920.047	14366
920.157	14298
920.267	14381
920.378	14290
920.488	14195
920.598	14290
920.708	14522
920.818	14442
920.928	14419
921.038	14533
921.148	14473
921.258	14252
921.368	14073
921.477	13989
921.587	14020
921.697	13856
921.806	13989
921.916	13883
922.025	13693
922.134	13658
922.244	13533
922.353	13700
922.462	13575
922.571	13430
922.68	13308
922.789	13259
922.898	13327
923.007	13175
923.116	13320
923.224	13270
923.333	13270
923.442	13099
923.55	13110
923.659	13149
923.767	13118
923.876	13126
923.984	13133
924.092	12928
924.201	13034
924.309	13046
924.417	13008
924.525	12848
924.633	13015
924.741	13894
924.849	12772
924.956	12833
925.064	12802
925.172	12570
925.279	12658
925.387	12673
925.494	12715
925.602	12802
925.709	12642
925.816	12551
925.924	12658
926.031	12760
926.138	12669
926.245	12688
926.352	12555
926.459	12722
926.566	12677
926.673	12517
926.779	12445
926.886	12460
926.993	12300
927.099	12239
927.206	12254
927.312	12216
927.419	12361
927.525	12319
927.631	12357
927.737	12163
927.843	12163
927.95	11984
928.056	12117
928.162	12106
928.267	12117
928.373	12772
928.479	12197
928.585	11977
928.69	12022
928.796	12117
928.901	12034
929.007	11756
929.112	12053
929.218	11958
929.323	11809
929.428	11866
929.533	11916
929.638	11745
929.743	11874
929.848	11786
929.953	11874
930.058	11729
930.163	11615
930.267	11520
930.372	11665
930.477	11486
930.581	11767
930.685	11611
930.79	11474
930.894	11387
930.998	11459
931.103	11562
931.207	11143
931.311	11124
931.415	10976
931.519	10885
931.623	10892
