Data from test_V78500241_267.txt Node
Date: Fri Mar 25 15:43:39 CST 2022
User: usil
Spectrometer: V785-0024
Trigger mode: 0
Integration Time (sec): 4.000000E-1
Scans to average: 1
Nonlinearity correction enabled: false
Boxcar width: 0
Storing dark spectrum: false
XAxis mode: Wavelengths
Number of Pixels in Spectrum: 1024
>>>>>Begin Spectral Data<<<<<
801.071	29996
801.214	30045
801.356	29794
801.499	29775
801.641	29493
801.783	29680
801.926	29611
802.068	29573
802.211	29478
802.353	29444
802.496	29417
802.638	29292
802.78	29174
802.923	29334
803.065	29242
803.208	29296
803.35	29273
803.492	29467
803.635	29490
803.777	29406
803.919	29467
804.061	29828
804.204	29463
804.346	29375
804.488	29402
804.63	29406
804.773	29204
804.915	29433
805.057	29505
805.199	29433
805.341	29448
805.483	29543
805.626	29543
805.768	29379
805.91	29653
806.052	29535
806.194	29471
806.336	29737
806.478	29505
806.62	29505
806.762	29741
806.904	29805
807.046	30038
807.188	29965
807.33	29950
807.472	29958
807.614	30083
807.756	29828
807.898	29786
808.04	29710
808.182	29752
808.324	29733
808.465	29665
808.607	29885
808.749	30125
808.891	30209
809.033	30327
809.174	30197
809.316	30243
809.458	30213
809.6	30159
809.741	30102
809.883	30300
810.025	30391
810.166	30407
810.308	30551
810.45	30372
810.591	30361
810.733	30133
810.875	30205
811.016	29992
811.158	30030
811.299	30194
811.441	30357
811.582	30258
811.724	30011
811.865	30041
812.007	30057
812.148	30159
812.29	30174
812.431	30319
812.573	30555
812.714	30475
812.855	30757
812.997	30677
813.138	30909
813.279	30776
813.421	30673
813.562	30623
813.703	30525
813.845	30388
813.986	29996
814.127	29912
814.268	29836
814.41	29885
814.551	29790
814.692	29927
814.833	29771
814.974	29786
815.115	29779
815.256	29589
815.397	29684
815.539	29783
815.68	29630
815.821	29577
815.962	29608
816.103	29535
816.244	29429
816.385	29318
816.526	29539
816.666	29231
816.807	29098
816.948	29109
817.089	29117
817.23	29102
817.371	29113
817.512	29189
817.653	29037
817.793	28892
817.934	29067
818.075	29090
818.216	28938
818.356	28930
818.497	28968
818.638	28580
818.778	28698
818.919	28767
819.06	28702
819.2	28858
819.341	28877
819.481	28938
819.622	29208
819.762	29280
819.903	29277
820.043	29132
820.184	29102
820.324	29014
820.465	29052
820.605	29033
820.746	29155
820.886	28908
821.026	29033
821.167	29060
821.307	29105
821.447	29094
821.588	28835
821.728	28717
821.868	28550
822.008	28489
822.149	28424
822.289	28284
822.429	28128
822.569	28147
822.709	27991
822.849	27808
822.99	27827
823.13	27793
823.27	27850
823.41	27759
823.55	27526
823.69	27755
823.83	27618
823.97	27641
824.11	27466
824.25	27439
824.389	27427
824.529	27545
824.669	27599
824.809	27637
824.949	27603
825.089	27656
825.228	27656
825.368	27279
825.508	27355
825.648	27378
825.787	27359
825.927	27435
826.067	27317
826.206	27268
826.346	27507
826.485	27439
826.625	27268
826.765	27405
826.904	27294
827.044	27131
827.183	27184
827.323	27070
827.462	27116
827.601	27036
827.741	26933
827.88	27020
828.02	26971
828.159	26979
828.298	27096
828.437	27032
828.577	26857
828.716	27093
828.855	26819
828.994	26716
829.134	26777
829.273	26769
829.412	26712
829.551	26609
829.69	26735
829.829	26712
829.968	26724
830.107	26754
830.246	26743
830.385	26526
830.524	26453
830.663	26461
830.802	26484
830.941	26301
831.08	26237
831.219	26278
831.357	26267
831.496	26469
831.635	26187
831.774	26130
831.913	26107
832.051	25951
832.19	25978
832.329	26031
832.467	25955
832.606	25879
832.744	25932
832.883	25978
833.022	25909
833.16	25936
833.299	26073
833.437	26046
833.576	25811
833.714	25913
833.852	25898
833.991	25928
834.129	25887
834.267	25997
834.406	25947
834.544	26069
834.682	25811
834.821	25776
834.959	26084
835.097	25909
835.235	25833
835.373	25871
835.511	25944
835.65	25871
835.788	25742
835.926	25693
836.064	25491
836.202	25460
836.34	25712
836.478	25772
836.615	25651
836.753	25700
836.891	25753
837.029	25674
837.167	25571
837.305	25529
837.443	25537
837.58	25556
837.718	25658
837.856	25594
837.993	25358
838.131	25571
838.269	25331
838.406	25362
838.544	25213
838.681	25251
838.819	24977
838.956	24867
839.094	24825
839.231	24878
839.369	24985
839.506	25403
839.643	25095
839.781	24840
839.918	24798
840.055	24810
840.193	24810
840.33	24985
840.467	24810
840.604	24871
840.742	25072
840.879	24711
841.016	24730
841.153	24719
841.29	24951
841.427	24806
841.564	24878
841.701	24749
841.838	24806
841.975	24673
842.112	24806
842.249	24726
842.385	24475
842.522	24707
842.659	24601
842.796	24490
842.933	24574
843.069	24460
843.206	24426
843.343	24528
843.479	24460
843.616	24521
843.752	24270
843.889	24235
844.025	24350
844.162	24300
844.298	24308
844.435	24266
844.571	24182
844.708	24323
844.844	24357
844.98	24296
845.117	24327
845.253	24114
845.389	24163
845.525	24220
845.661	23977
845.798	23965
845.934	24079
846.07	23935
846.206	23969
846.342	24171
846.478	23946
846.614	23756
846.75	23760
846.886	23745
847.022	23843
847.158	23699
847.294	23737
847.429	23611
847.565	23577
847.701	23756
847.837	23471
847.972	23326
848.108	23493
848.244	23436
848.379	23227
848.515	23250
848.65	23220
848.786	23220
848.921	23223
849.057	23391
849.192	23337
849.328	23258
849.463	23189
849.598	23193
849.734	23083
849.869	22984
850.004	23003
850.14	23064
850.275	22957
850.41	22881
850.545	22809
850.68	22862
850.815	22972
850.95	22927
851.085	23147
851.22	23060
851.355	22991
851.49	22919
851.625	22949
851.76	22999
851.895	22847
852.03	22896
852.165	22915
852.299	23079
852.434	23029
852.569	22896
852.703	22908
852.838	23090
852.973	22976
853.107	23041
853.242	22942
853.376	22854
853.511	22660
853.645	22717
853.78	22748
853.914	22850
854.048	22710
854.183	22641
854.317	22717
854.451	22965
854.585	22828
854.72	22858
854.854	22885
854.988	22710
855.122	22710
855.256	22599
855.39	22626
855.524	22869
855.658	22740
855.792	22679
855.926	22812
856.06	22740
856.194	22915
856.327	22729
856.461	22706
856.595	22736
856.729	22645
856.862	22885
856.996	22752
857.13	22801
857.263	22797
857.397	22828
857.53	22710
857.664	22858
857.797	22736
857.931	22736
858.064	22660
858.197	22831
858.331	22626
858.464	22634
858.597	22557
858.731	22771
858.864	22679
858.997	22710
859.13	22763
859.263	22645
859.396	22778
859.529	22733
859.662	22561
859.795	22641
859.928	22812
860.061	22778
860.194	22862
860.327	22683
860.46	22618
860.592	22702
860.725	22877
860.858	22850
860.99	22713
861.123	22580
861.256	22508
861.388	22793
861.521	23334
861.653	22630
861.786	22443
861.918	22573
862.05	22641
862.183	22573
862.315	22748
862.447	22717
862.58	22512
862.712	22436
862.844	22459
862.976	22500
863.108	22447
863.24	22759
863.372	22424
863.504	22379
863.636	22485
863.768	22329
863.9	22398
864.032	22348
864.164	22424
864.296	22238
864.428	22478
864.559	22462
864.691	22348
864.823	22451
864.954	22280
865.086	22360
865.217	22344
865.349	22093
865.48	22409
865.612	22158
865.743	22352
865.875	22329
866.006	22215
866.137	22299
866.269	22230
866.4	22268
866.531	22249
866.662	22192
866.793	22131
866.924	22261
867.055	22131
867.186	22215
867.317	22219
867.448	22063
867.579	22105
867.71	22086
867.841	22120
867.972	22211
868.103	22070
868.233	22082
868.364	22223
868.495	22265
868.625	22455
868.756	22447
868.886	22424
869.017	22398
869.147	22493
869.278	22626
869.408	22504
869.539	22417
869.669	22356
869.799	22398
869.929	22440
870.06	22527
870.19	22721
870.32	22641
870.45	22733
870.58	22717
870.71	22866
870.84	22835
870.97	22831
871.1	22759
871.23	23037
871.36	22942
871.489	22949
871.619	22896
871.749	22881
871.879	22995
872.008	23067
872.138	22953
872.267	22904
872.397	22847
872.526	22812
872.656	22854
872.785	22858
872.915	23018
873.044	23075
873.173	23056
873.303	23193
873.432	23136
873.561	23037
873.69	22995
873.819	23022
873.948	23029
874.077	23052
874.206	23060
874.335	23029
874.464	23216
874.593	23166
874.722	23246
874.851	23273
874.979	23178
875.108	23277
875.237	23159
875.365	23136
875.494	23075
875.623	23235
875.751	23318
875.88	23254
876.008	23421
876.136	23326
876.265	23566
876.393	23722
876.521	23600
876.65	23722
876.778	23615
876.906	23634
877.034	23452
877.162	23592
877.29	23528
877.418	23592
877.546	23600
877.674	23653
877.802	23600
877.93	23490
878.058	23417
878.185	23406
878.313	23524
878.441	23539
878.568	23474
878.696	23497
878.824	23585
878.951	23558
879.079	23710
879.206	23828
879.333	23737
879.461	23516
879.588	23668
879.715	23707
879.842	23794
879.97	23604
880.097	23478
880.224	23288
880.351	23433
880.478	23448
880.605	23299
880.732	23387
880.859	23642
880.986	23471
881.112	23452
881.239	23185
881.366	22980
881.493	23006
881.619	23086
881.746	23102
881.872	22984
881.999	22995
882.125	22793
882.252	23048
882.378	22881
882.505	23086
882.631	22717
882.757	22717
882.883	22744
883.01	22744
883.136	22599
883.262	22592
883.388	22516
883.514	22588
883.64	22470
883.766	22546
883.892	22493
884.018	22405
884.143	22561
884.269	22790
884.395	22337
884.52	22253
884.646	22242
884.772	22242
884.897	22169
885.023	22371
885.148	22306
885.274	22497
885.399	22333
885.524	22093
885.65	22268
885.775	22257
885.9	22261
886.025	22375
886.15	22295
886.275	22192
886.4	22177
886.525	22249
886.65	22078
886.775	22181
886.9	22489
887.025	22390
887.149	22070
887.274	22010
887.399	22070
887.523	21994
887.648	21991
887.773	21766
887.897	22128
888.021	21979
888.146	21991
888.27	22078
888.395	22109
888.519	21937
888.643	21899
888.767	21998
888.891	21762
889.015	21682
889.139	21736
889.263	21759
889.387	21895
889.511	21857
889.635	21793
889.759	21762
889.883	21671
890.006	21732
890.13	21739
890.254	21690
890.377	21698
890.501	21458
890.624	21431
890.748	21595
890.871	21382
890.995	21329
891.118	21260
891.241	21351
891.364	21291
891.488	21485
891.611	21329
891.734	21226
891.857	21279
891.98	21298
892.103	21310
892.226	21272
892.349	21332
892.471	21096
892.594	21226
892.717	21203
892.839	21112
892.962	21332
893.085	21294
893.207	21218
893.33	21093
893.452	21104
893.575	21222
893.697	21180
893.819	21336
893.941	21511
894.064	21359
894.186	21123
894.308	21074
894.43	21275
894.552	21393
894.674	21214
894.796	21169
894.918	21112
895.04	21104
895.161	21116
895.283	21233
895.405	21138
895.526	21104
895.648	21169
895.769	21252
895.891	21310
896.012	21260
896.134	21294
896.255	21245
896.376	21275
896.498	21214
896.619	21211
896.74	21199
896.861	21272
896.982	21428
897.103	21663
897.224	21492
897.345	21477
897.466	21283
897.587	21374
897.708	21443
897.828	21549
897.949	21332
898.07	21249
898.19	21310
898.311	21439
898.431	21241
898.552	21355
898.672	21370
898.792	21348
898.913	21313
899.033	21169
899.153	21043
899.273	21001
899.393	21100
899.513	21081
899.633	21142
899.753	21062
899.873	20990
899.993	21070
900.113	21104
900.232	21032
900.352	21017
900.472	20986
900.591	20853
900.711	20796
900.83	20735
900.95	20925
901.069	20902
901.189	20743
901.308	20495
901.427	20389
901.546	20454
901.665	20374
901.784	20431
901.904	20355
902.023	20206
902.141	19978
902.26	19963
902.379	20050
902.498	19833
902.617	19906
902.735	19940
902.854	19852
902.973	19677
903.091	19582
903.21	19552
903.328	19518
903.446	19400
903.565	19388
903.683	19327
903.801	19331
903.919	19270
904.038	19419
904.156	19133
904.274	19122
904.392	18989
904.51	19088
904.627	19099
904.745	19034
904.863	19065
904.981	19038
905.098	18772
905.216	18719
905.334	18700
905.451	18814
905.569	18696
905.686	18795
905.803	18627
905.921	18551
906.038	18601
906.155	18620
906.272	18555
906.389	18528
906.506	18296
906.623	18285
906.74	18277
906.857	18167
906.974	18144
907.091	18292
907.208	18342
907.324	18171
907.441	18129
907.557	18041
907.674	17988
907.79	17923
907.907	17927
908.023	17973
908.139	17973
908.256	17832
908.372	17840
908.488	17851
908.604	17752
908.72	17630
908.836	17589
908.952	17653
909.068	17657
909.184	17600
909.3	17691
909.415	17676
909.531	17646
909.647	17421
909.762	17280
909.878	17292
909.993	17326
910.108	17239
910.224	17280
910.339	17216
910.454	17223
910.57	17098
910.685	16991
910.8	17391
910.915	17296
911.03	17022
911.145	16972
911.259	16771
911.374	16938
911.489	16797
911.604	16710
911.718	16675
911.833	16763
911.947	16588
912.062	16470
912.176	16793
912.291	16653
912.405	16733
912.519	16866
912.633	16778
912.748	16675
912.862	16694
912.976	16325
913.09	16398
913.204	16265
913.318	16413
913.431	16527
913.545	16508
913.659	16474
913.772	16390
913.886	16246
914	16131
914.113	16139
914.226	16268
914.34	16303
914.453	16074
914.566	16295
914.68	16196
914.793	16071
914.906	15964
915.019	15755
915.132	15869
915.245	15842
915.358	15876
915.47	15827
915.583	15751
915.696	15736
915.809	15895
915.921	15945
916.034	15732
916.146	15690
916.259	15625
916.371	15816
916.483	15622
916.595	15564
916.708	15526
916.82	15603
916.932	15572
917.044	15587
917.156	15523
917.268	15450
917.38	15367
917.491	15424
917.603	15420
917.715	15462
917.826	15485
917.938	15351
918.049	15275
918.161	15378
918.272	15511
918.384	15587
918.495	15359
918.606	15237
918.717	15081
918.828	15294
918.939	15146
919.05	15146
919.161	15123
919.272	14979
919.383	15001
919.494	15222
919.604	15340
919.715	15058
919.826	15009
919.936	15051
920.047	15119
920.157	15173
920.267	15256
920.378	15112
920.488	14998
920.598	15226
920.708	15351
920.818	15275
920.928	15176
921.038	15344
921.148	15268
921.258	14956
921.368	14853
921.477	14746
921.587	14785
921.697	14670
921.806	14777
921.916	14598
922.025	14518
922.134	14454
922.244	14366
922.353	14454
922.462	14351
922.571	14256
922.68	14096
922.789	14088
922.898	14031
923.007	14046
923.116	14020
923.224	14077
923.333	14050
923.442	13833
923.55	13814
923.659	13890
923.767	13967
923.876	13852
923.984	13906
924.092	13807
924.201	13814
924.309	13769
924.417	13769
924.525	13662
924.633	13803
924.741	14530
924.849	13514
924.956	13586
925.064	13464
925.172	13400
925.279	13411
925.387	13525
925.494	13358
925.602	13567
925.709	13430
925.816	13308
925.924	13483
926.031	13537
926.138	13350
926.245	13407
926.352	13339
926.459	13426
926.566	13533
926.673	13362
926.779	13171
926.886	13152
926.993	13114
927.099	12970
927.206	12863
927.312	12996
927.419	13038
927.525	12875
927.631	13008
927.737	12829
927.843	12890
927.95	12738
928.056	12825
928.162	12867
928.267	12829
928.373	13559
928.479	12859
928.585	12719
928.69	12844
928.796	12757
928.901	12589
929.007	12509
929.112	12597
929.218	12593
929.323	12532
929.428	12494
929.533	12684
929.638	12460
929.743	12467
929.848	12483
929.953	12490
930.058	12410
930.163	12197
930.267	12251
930.372	12380
930.477	12083
930.581	12365
930.685	12178
930.79	12022
930.894	12022
930.998	11969
931.103	12102
931.207	11745
931.311	11653
931.415	11589
931.519	11395
931.623	11429
