Data from test_V78500241_3603.txt Node
Date: Fri Mar 25 16:06:45 CST 2022
User: usil
Spectrometer: V785-0024
Trigger mode: 0
Integration Time (sec): 4.000000E-1
Scans to average: 1
Nonlinearity correction enabled: false
Boxcar width: 0
Storing dark spectrum: false
XAxis mode: Wavelengths
Number of Pixels in Spectrum: 1024
>>>>>Begin Spectral Data<<<<<
801.071	28287
801.214	28219
801.356	28070
801.499	28006
801.641	27983
801.783	27895
801.926	27926
802.068	27850
802.211	27888
802.353	27816
802.496	27827
802.638	27667
802.78	27523
802.923	27477
803.065	27412
803.208	27504
803.35	27568
803.492	27823
803.635	27857
803.777	27743
803.919	27895
804.061	28200
804.204	27953
804.346	27682
804.488	27694
804.63	27945
804.773	27835
804.915	27922
805.057	28006
805.199	27850
805.341	28055
805.483	27865
805.626	28036
805.768	27956
805.91	28158
806.052	27975
806.194	27960
806.336	28128
806.478	27907
806.62	27930
806.762	28078
806.904	28417
807.046	28394
807.188	28299
807.33	28462
807.472	28500
807.614	28409
807.756	28417
807.898	28299
808.04	28204
808.182	28211
808.324	28253
808.465	28436
808.607	28596
808.749	28759
808.891	28877
809.033	28782
809.174	28694
809.316	28618
809.458	28611
809.6	28603
809.741	28759
809.883	28881
810.025	28934
810.166	28980
810.308	28908
810.45	28942
810.591	28850
810.733	28744
810.875	28725
811.016	28569
811.158	28698
811.299	28759
811.441	28733
811.582	28694
811.724	28668
811.865	28618
812.007	28782
812.148	28645
812.29	28622
812.431	28850
812.573	29044
812.714	29052
812.855	29231
812.997	29223
813.138	29573
813.279	29421
813.421	29083
813.562	29181
813.703	28881
813.845	28839
813.986	28748
814.127	28470
814.268	28356
814.41	28466
814.551	28440
814.692	28470
814.833	28268
814.974	28291
815.115	28443
815.256	28238
815.397	28181
815.539	28303
815.68	28158
815.821	28029
815.962	28181
816.103	28128
816.244	28029
816.385	27960
816.526	27956
816.666	27808
816.807	27587
816.948	27656
817.089	27751
817.23	27698
817.371	27747
817.512	27625
817.653	27705
817.793	27572
817.934	27739
818.075	27713
818.216	27667
818.356	27793
818.497	27553
818.638	27332
818.778	27538
818.919	27427
819.06	27538
819.2	27549
819.341	27682
819.481	27599
819.622	27941
819.762	28082
819.903	27972
820.043	27880
820.184	27808
820.324	27793
820.465	27880
820.605	27930
820.746	27770
820.886	27667
821.026	27778
821.167	27679
821.307	27747
821.447	27652
821.588	27705
821.728	27454
821.868	27294
822.008	27184
822.149	27138
822.289	27096
822.429	26800
822.569	26667
822.709	26769
822.849	26830
822.99	26644
823.13	26720
823.27	26522
823.41	26431
823.55	26370
823.69	26511
823.83	26575
823.97	26404
824.11	26305
824.25	26294
824.389	26431
824.529	26305
824.669	26332
824.809	26393
824.949	26320
825.089	26431
825.228	26309
825.368	26240
825.508	26225
825.648	26157
825.787	26347
825.927	26202
826.067	26130
826.206	26278
826.346	26362
826.485	26210
826.625	26206
826.765	26309
826.904	26271
827.044	26100
827.183	25982
827.323	25940
827.462	25936
827.601	25974
827.741	25871
827.88	25856
828.02	25856
828.159	25898
828.298	25906
828.437	25974
828.577	25951
828.716	25811
828.855	25822
828.994	25696
829.134	25586
829.273	25715
829.412	25529
829.551	25597
829.69	25651
829.829	25609
829.968	25666
830.107	25662
830.246	25518
830.385	25586
830.524	25476
830.663	25263
830.802	25377
830.941	25232
831.08	25206
831.219	25244
831.357	25225
831.496	25453
831.635	25240
831.774	25160
831.913	25061
832.051	25012
832.19	24924
832.329	25053
832.467	24966
832.606	24859
832.744	24977
832.883	24783
833.022	24700
833.16	24928
833.299	24947
833.437	24894
833.576	24943
833.714	24928
833.852	25080
833.991	25012
834.129	25031
834.267	25000
834.406	24863
834.544	24962
834.682	24943
834.821	24894
834.959	25141
835.097	24878
835.235	24970
835.373	24916
835.511	24935
835.65	24833
835.788	24726
835.926	24783
836.064	24578
836.202	24726
836.34	24711
836.478	24932
836.615	24734
836.753	24764
836.891	24802
837.029	24852
837.167	24749
837.305	24654
837.443	24544
837.58	24547
837.718	24601
837.856	24563
837.993	24597
838.131	24582
838.269	24350
838.406	24429
838.544	24429
838.681	24235
838.819	24258
838.956	24121
839.094	24026
839.231	24072
839.369	24136
839.506	24422
839.643	24262
839.781	24091
839.918	24041
840.055	24190
840.193	23950
840.33	23946
840.467	23923
840.604	23988
840.742	24281
840.879	23767
841.016	23855
841.153	23920
841.29	23999
841.427	24018
841.564	23958
841.701	24049
841.838	23977
841.975	23775
842.112	23874
842.249	23851
842.385	23684
842.522	24007
842.659	23840
842.796	23726
842.933	23642
843.069	23745
843.206	23657
843.343	23764
843.479	23646
843.616	23714
843.752	23455
843.889	23505
844.025	23570
844.162	23505
844.298	23615
844.435	23562
844.571	23486
844.708	23512
844.844	23653
844.98	23429
845.117	23623
845.253	23455
845.389	23433
845.525	23440
845.661	23425
845.798	23254
845.934	23303
846.07	23117
846.206	23254
846.342	23311
846.478	23254
846.614	23060
846.75	22892
846.886	23075
847.022	23117
847.158	23025
847.294	22904
847.429	23052
847.565	22885
847.701	23174
847.837	22786
847.972	22694
848.108	22824
848.244	22828
848.379	22687
848.515	22565
848.65	22561
848.786	22542
848.921	22626
849.057	22694
849.192	22588
849.328	22611
849.463	22641
849.598	22535
849.734	22512
849.869	22447
850.004	22246
850.14	22242
850.275	22333
850.41	22238
850.545	22318
850.68	22280
850.815	22253
850.95	22310
851.085	22485
851.22	22421
851.355	22265
851.49	22249
851.625	22192
851.76	22382
851.895	22162
852.03	22169
852.165	22242
852.299	22436
852.434	22333
852.569	22409
852.703	22402
852.838	22230
852.973	22485
853.107	22417
853.242	22242
853.376	22116
853.511	22070
853.645	22120
853.78	22200
853.914	22177
854.048	22177
854.183	22109
854.317	22207
854.451	22306
854.585	22196
854.72	22166
854.854	22207
854.988	22044
855.122	22044
855.256	22029
855.39	22040
855.524	22105
855.658	22204
855.792	22166
855.926	22166
856.06	22219
856.194	22211
856.327	22238
856.461	22109
856.595	22109
856.729	22188
856.862	22348
856.996	22150
857.13	22204
857.263	22219
857.397	22211
857.53	22055
857.664	22181
857.797	22257
857.931	22333
858.064	22188
858.197	22192
858.331	22078
858.464	22173
858.597	22036
858.731	22097
858.864	22169
858.997	21994
859.13	22097
859.263	22021
859.396	22265
859.529	22215
859.662	22017
859.795	22101
859.928	22086
860.061	22382
860.194	22215
860.327	22215
860.46	22246
860.592	22226
860.725	22226
860.858	22268
860.99	22135
861.123	22112
861.256	21987
861.388	22082
861.521	22831
861.653	21937
861.786	21972
861.918	21884
862.05	22059
862.183	22063
862.315	22188
862.447	22215
862.58	22029
862.712	21770
862.844	21854
862.976	22032
863.108	21835
863.24	22440
863.372	21739
863.504	21831
863.636	21850
863.768	21880
863.9	21812
864.032	21823
864.164	21838
864.296	21922
864.428	21907
864.559	22006
864.691	21869
864.823	21899
864.954	21800
865.086	21804
865.217	21850
865.349	21789
865.48	21679
865.612	21728
865.743	21823
865.875	21705
866.006	21603
866.137	21789
866.269	21728
866.4	21720
866.531	21728
866.662	21625
866.793	21682
866.924	21637
867.055	21633
867.186	21633
867.317	21660
867.448	21633
867.579	21603
867.71	21618
867.841	21515
867.972	21755
868.103	21671
868.233	21671
868.364	21739
868.495	21869
868.625	21759
868.756	22147
868.886	21800
869.017	21903
869.147	22051
869.278	22055
869.408	21911
869.539	21945
869.669	21915
869.799	21953
869.929	21991
870.06	21960
870.19	22200
870.32	22196
870.45	22280
870.58	22295
870.71	22478
870.84	22333
870.97	22287
871.1	22295
871.23	22466
871.36	22424
871.489	22409
871.619	22516
871.749	22554
871.879	22618
872.008	22573
872.138	22527
872.267	22535
872.397	22367
872.526	22287
872.656	22360
872.785	22371
872.915	22603
873.044	22611
873.173	22561
873.303	22653
873.432	22679
873.561	22516
873.69	22641
873.819	22527
873.948	22424
874.077	22535
874.206	22417
874.335	22557
874.464	22721
874.593	22706
874.722	22694
874.851	22752
874.979	22805
875.108	22824
875.237	22679
875.365	22630
875.494	22683
875.623	22854
875.751	22675
875.88	22675
876.008	22946
876.136	22900
876.265	23098
876.393	23269
876.521	23250
876.65	23143
876.778	23075
876.906	23227
877.034	22999
877.162	23265
877.29	22999
877.418	23277
877.546	23117
877.674	23124
877.802	22904
877.93	23136
878.058	23025
878.185	22991
878.313	23044
878.441	23098
878.568	22752
878.696	22934
878.824	23197
878.951	23227
879.079	23223
879.206	23414
879.333	23204
879.461	23185
879.588	23174
879.715	23227
879.842	23356
879.97	23185
880.097	22984
880.224	22972
880.351	23033
880.478	22942
880.605	22911
880.732	22927
880.859	23174
880.986	22919
881.112	22904
881.239	22835
881.366	22603
881.493	22637
881.619	22531
881.746	22603
881.872	22497
881.999	22485
882.125	22421
882.252	22542
882.378	22493
882.505	22584
882.631	22394
882.757	22120
882.883	22253
883.01	22196
883.136	22139
883.262	22116
883.388	21994
883.514	22173
883.64	22173
883.766	22070
883.892	21861
884.018	21884
884.143	22059
884.269	22238
884.395	21895
884.52	21736
884.646	21854
884.772	21682
884.897	21629
885.023	21789
885.148	21846
885.274	21964
885.399	21964
885.524	21846
885.65	21812
885.775	21850
885.9	21785
886.025	22048
886.15	21892
886.275	21606
886.4	21622
886.525	21854
886.65	21880
886.775	21580
886.9	21915
887.025	21903
887.149	21759
887.274	21580
887.399	21625
887.523	21580
887.648	21561
887.773	21496
887.897	21656
888.021	21603
888.146	21428
888.27	21557
888.395	21698
888.519	21580
888.643	21564
888.767	21583
888.891	21454
889.015	21363
889.139	21370
889.263	21317
889.387	21553
889.511	21564
889.635	21568
889.759	21359
889.883	21378
890.006	21325
890.13	21321
890.254	21184
890.377	21237
890.501	21142
890.624	21077
890.748	21146
890.871	20990
890.995	20868
891.118	20842
891.241	20826
891.364	21005
891.488	20925
891.611	20982
891.734	20857
891.857	20876
891.98	20963
892.103	20971
892.226	20826
892.349	20845
892.471	20648
892.594	20845
892.717	20902
892.839	20792
892.962	20857
893.085	20838
893.207	20830
893.33	20651
893.452	20800
893.575	20834
893.697	20807
893.819	20887
893.941	21074
894.064	20906
894.186	20697
894.308	20511
894.43	20956
894.552	20914
894.674	20883
894.796	20659
894.918	20788
895.04	20670
895.161	20861
895.283	20697
895.405	20621
895.526	20765
895.648	20788
895.769	20849
895.891	20682
896.012	20891
896.134	20864
896.255	20823
896.376	20804
896.498	20777
896.619	20796
896.74	20815
896.861	20773
896.982	21093
897.103	21192
897.224	21131
897.345	20933
897.466	20872
897.587	20994
897.708	21058
897.828	21051
897.949	20921
898.07	20861
898.19	20994
898.311	21070
898.431	20967
898.552	20948
898.672	21058
898.792	21150
898.913	21058
899.033	20876
899.153	20682
899.273	20655
899.393	20765
899.513	20777
899.633	20781
899.753	20746
899.873	20686
899.993	20750
900.113	20648
900.232	20682
900.352	20640
900.472	20632
900.591	20511
900.711	20556
900.83	20514
900.95	20644
901.069	20549
901.189	20351
901.308	20240
901.427	19989
901.546	20027
901.665	20199
901.784	20100
901.904	19879
902.023	19826
902.141	19681
902.26	19731
902.379	19689
902.498	19712
902.617	19506
902.735	19601
902.854	19495
902.973	19544
903.091	19266
903.21	19244
903.328	19308
903.446	19141
903.565	19072
903.683	19015
903.801	18909
903.919	18837
904.038	19034
904.156	18875
904.274	18806
904.392	18806
904.51	18654
904.627	18802
904.745	18749
904.863	18817
904.981	18677
905.098	18399
905.216	18464
905.334	18479
905.451	18403
905.569	18452
905.686	18525
905.803	18407
905.921	18247
906.038	18422
906.155	18327
906.272	18205
906.389	18289
906.506	17950
906.623	18011
906.74	17973
906.857	17855
906.974	17950
907.091	18015
907.208	18022
907.324	17988
907.441	17843
907.557	17794
907.674	17741
907.79	17649
907.907	17653
908.023	17676
908.139	17722
908.256	17687
908.372	17608
908.488	17551
908.604	17566
908.72	17414
908.836	17474
908.952	17421
909.068	17474
909.184	17528
909.3	17360
909.415	17395
909.531	17376
909.647	17102
909.762	17048
909.878	17064
909.993	17200
910.108	16999
910.224	17037
910.339	17003
910.454	17052
910.57	16908
910.685	16892
910.8	17151
910.915	17033
911.03	16831
911.145	16778
911.259	16729
911.374	16717
911.489	16710
911.604	16577
911.718	16489
911.833	16455
911.947	16424
912.062	16299
912.176	16386
912.291	16455
912.405	16466
912.519	16588
912.633	16584
912.748	16516
912.862	16413
912.976	16238
913.09	16204
913.204	16246
913.318	16242
913.431	16390
913.545	16211
913.659	16272
913.772	16120
913.886	16154
914	16032
914.113	16135
914.226	16116
914.34	16063
914.453	15994
914.566	16040
914.68	15876
914.793	15941
914.906	15675
915.019	15671
915.132	15713
915.245	15622
915.358	15618
915.47	15625
915.583	15644
915.696	15629
915.809	15720
915.921	15755
916.034	15561
916.146	15507
916.259	15580
916.371	15561
916.483	15534
916.595	15473
916.708	15447
916.82	15363
916.932	15447
917.044	15405
917.156	15272
917.268	15226
917.38	15325
917.491	15218
917.603	15241
917.715	15367
917.826	15336
917.938	15218
918.049	15108
918.161	15199
918.272	15321
918.384	15405
918.495	15093
918.606	14971
918.717	14895
918.828	15093
918.939	15089
919.05	14948
919.161	14925
919.272	14758
919.383	14941
919.494	14990
919.604	15214
919.715	15062
919.826	14914
919.936	14899
920.047	15112
920.157	14979
920.267	15123
920.378	14937
920.488	14861
920.598	15176
920.708	15310
920.818	15108
920.928	15001
921.038	15275
921.148	15169
921.258	14963
921.368	14849
921.477	14720
921.587	14708
921.697	14571
921.806	14724
921.916	14541
922.025	14419
922.134	14294
922.244	14278
922.353	14332
922.462	14161
922.571	14142
922.68	14016
922.789	14005
922.898	13947
923.007	13890
923.116	14001
923.224	13978
923.333	13845
923.442	13856
923.55	13772
923.659	13799
923.767	13868
923.876	13742
923.984	13917
924.092	13738
924.201	13715
924.309	13734
924.417	13727
924.525	13624
924.633	13605
924.741	14518
924.849	13419
924.956	13434
925.064	13377
925.172	13346
925.279	13441
925.387	13377
925.494	13354
925.602	13449
925.709	13316
925.816	13346
925.924	13327
926.031	13369
926.138	13293
926.245	13282
926.352	13213
926.459	13297
926.566	13419
926.673	13156
926.779	13031
926.886	13141
926.993	13023
927.099	12935
927.206	12905
927.312	12901
927.419	12973
927.525	12844
927.631	12935
927.737	12852
927.843	12779
927.95	12715
928.056	12783
928.162	12764
928.267	12768
928.373	13358
928.479	12787
928.585	12517
928.69	12684
928.796	12734
928.901	12673
929.007	12289
929.112	12559
929.218	12563
929.323	12437
929.428	12460
929.533	12582
929.638	12384
929.743	12376
929.848	12391
929.953	12342
930.058	12410
930.163	12133
930.267	12144
930.372	12232
930.477	12053
930.581	12342
930.685	12110
930.79	11950
930.894	12136
930.998	11931
931.103	12049
931.207	11771
931.311	11760
931.415	11589
931.519	11376
931.623	11387
