Data from test_V78500241_3352.txt Node
Date: Fri Mar 25 16:05:01 CST 2022
User: usil
Spectrometer: V785-0024
Trigger mode: 0
Integration Time (sec): 4.000000E-1
Scans to average: 1
Nonlinearity correction enabled: false
Boxcar width: 0
Storing dark spectrum: false
XAxis mode: Wavelengths
Number of Pixels in Spectrum: 1024
>>>>>Begin Spectral Data<<<<<
801.071	28972
801.214	28927
801.356	28706
801.499	28542
801.641	28451
801.783	28512
801.926	28618
802.068	28401
802.211	28390
802.353	28341
802.496	28322
802.638	28265
802.78	28147
802.923	28051
803.065	28029
803.208	28173
803.35	28234
803.492	28436
803.635	28363
803.777	28401
803.919	28432
804.061	28790
804.204	28512
804.346	28485
804.488	28447
804.63	28390
804.773	28329
804.915	28523
805.057	28733
805.199	28409
805.341	28379
805.483	28637
805.626	28649
805.768	28512
805.91	28717
806.052	28641
806.194	28641
806.336	28672
806.478	28641
806.62	28767
806.762	28755
806.904	28957
807.046	29162
807.188	29064
807.33	29147
807.472	29239
807.614	29162
807.756	29181
807.898	28942
808.04	28873
808.182	28866
808.324	28927
808.465	29052
808.607	29162
808.749	29436
808.891	29444
809.033	29562
809.174	29368
809.316	29280
809.458	29463
809.6	29337
809.741	29467
809.883	29657
810.025	29619
810.166	29661
810.308	29756
810.45	29539
810.591	29421
810.733	29387
810.875	29288
811.016	29379
811.158	29273
811.299	29467
811.441	29452
811.582	29627
811.724	29448
811.865	29528
812.007	29433
812.148	29497
812.29	29448
812.431	29482
812.573	29798
812.714	29851
812.855	29802
812.997	29882
813.138	30133
813.279	29996
813.421	29882
813.562	29950
813.703	29699
813.845	29539
813.986	29349
814.127	29288
814.268	29037
814.41	29025
814.551	29200
814.692	29200
814.833	29029
814.974	29105
815.115	29159
815.256	29041
815.397	28885
815.539	28911
815.68	28904
815.821	28885
815.962	28957
816.103	28900
816.244	28721
816.385	28672
816.526	28679
816.666	28474
816.807	28424
816.948	28550
817.089	28634
817.23	28405
817.371	28409
817.512	28409
817.653	28432
817.793	28352
817.934	28360
818.075	28344
818.216	28401
818.356	28348
818.497	28242
818.638	28188
818.778	28051
818.919	28329
819.06	28234
819.2	28398
819.341	28462
819.481	28535
819.622	28546
819.762	28786
819.903	28694
820.043	28721
820.184	28596
820.324	28561
820.465	28641
820.605	28588
820.746	28561
820.886	28401
821.026	28481
821.167	28478
821.307	28500
821.447	28481
821.588	28375
821.728	28147
821.868	28013
822.008	28078
822.149	27861
822.289	27835
822.429	27591
822.569	27477
822.709	27720
822.849	27481
822.99	27424
823.13	27485
823.27	27367
823.41	27252
823.55	27161
823.69	27321
823.83	27241
823.97	27142
824.11	27058
824.25	27028
824.389	27093
824.529	27154
824.669	27085
824.809	27294
824.949	27283
825.089	27233
825.228	27104
825.368	26940
825.508	26971
825.648	26971
825.787	26914
825.927	26986
826.067	26971
826.206	26876
826.346	26998
826.485	27157
826.625	26986
826.765	26914
826.904	26994
827.044	26705
827.183	26731
827.323	26754
827.462	26701
827.601	26735
827.741	26701
827.88	26716
828.02	26625
828.159	26514
828.298	26670
828.437	26792
828.577	26697
828.716	26682
828.855	26522
828.994	26377
829.134	26370
829.273	26476
829.412	26446
829.551	26313
829.69	26271
829.829	26313
829.968	26511
830.107	26450
830.246	26495
830.385	26263
830.524	26248
830.663	26111
830.802	26069
830.941	25913
831.08	26005
831.219	26107
831.357	26073
831.496	26259
831.635	26016
831.774	25715
831.913	25871
832.051	25772
832.19	25776
832.329	25772
832.467	25639
832.606	25525
832.744	25601
832.883	25529
833.022	25666
833.16	25597
833.299	25643
833.437	25655
833.576	25712
833.714	25753
833.852	25666
833.991	25776
834.129	25772
834.267	25921
834.406	25563
834.544	25791
834.682	25704
834.821	25643
834.959	25704
835.097	25632
835.235	25738
835.373	25590
835.511	25734
835.65	25586
835.788	25647
835.926	25312
836.064	25369
836.202	25438
836.34	25567
836.478	25757
836.615	25487
836.753	25502
836.891	25476
837.029	25620
837.167	25468
837.305	25445
837.443	25324
837.58	25419
837.718	25438
837.856	25445
837.993	25445
838.131	25324
838.269	25126
838.406	25266
838.544	25156
838.681	25008
838.819	25000
838.956	24791
839.094	24764
839.231	24848
839.369	24989
839.506	25213
839.643	24985
839.781	24821
839.918	24719
840.055	24878
840.193	24814
840.33	24559
840.467	24787
840.604	24776
840.742	24992
840.879	24544
841.016	24738
841.153	24654
841.29	24738
841.427	24810
841.564	24787
841.701	24726
841.838	24639
841.975	24620
842.112	24650
842.249	24688
842.385	24433
842.522	24783
842.659	24494
842.796	24502
842.933	24407
843.069	24323
843.206	24528
843.343	24327
843.479	24623
843.616	24498
843.752	24251
843.889	24224
844.025	24410
844.162	24133
844.298	24403
844.435	24201
844.571	24311
844.708	24159
844.844	24426
844.98	24456
845.117	24369
845.253	24205
845.389	24072
845.525	24155
845.661	24098
845.798	24018
845.934	23935
846.07	23999
846.206	23999
846.342	24091
846.478	23954
846.614	23748
846.75	23516
846.886	23790
847.022	23707
847.158	23691
847.294	23604
847.429	23764
847.565	23638
847.701	23988
847.837	23410
847.972	23364
848.108	23531
848.244	23429
848.379	23299
848.515	23322
848.65	23189
848.786	23414
848.921	23273
849.057	23349
849.192	23410
849.328	23235
849.463	23296
849.598	23254
849.734	23060
849.869	23090
850.004	23109
850.14	23022
850.275	23067
850.41	23041
850.545	22995
850.68	23048
850.815	23003
850.95	23014
851.085	23254
851.22	23178
851.355	23128
851.49	23109
851.625	23052
851.76	23079
851.895	22866
852.03	23064
852.165	23067
852.299	23079
852.434	23121
852.569	23105
852.703	22866
852.838	23132
852.973	23044
853.107	23151
853.242	22942
853.376	22885
853.511	22752
853.645	22866
853.78	22911
853.914	22942
854.048	22729
854.183	22824
854.317	22820
854.451	23037
854.585	22911
854.72	22968
854.854	23083
854.988	22778
855.122	22862
855.256	22801
855.39	22824
855.524	23060
855.658	22816
855.792	22900
855.926	22862
856.06	22854
856.194	22938
856.327	22854
856.461	22824
856.595	22744
856.729	22755
856.862	22999
856.996	22984
857.13	22869
857.263	22961
857.397	22816
857.53	22938
857.664	22904
857.797	22892
857.931	22938
858.064	22930
858.197	22930
858.331	22889
858.464	22702
858.597	22725
858.731	22858
858.864	22885
858.997	22793
859.13	22828
859.263	22820
859.396	22934
859.529	22687
859.662	22774
859.795	22858
859.928	22854
860.061	23022
860.194	23003
860.327	22927
860.46	22850
860.592	23048
860.725	23003
860.858	22953
860.99	22896
861.123	22809
861.256	22774
861.388	22782
861.521	23493
861.653	22767
861.786	22649
861.918	22660
862.05	22740
862.183	22858
862.315	22729
862.447	22858
862.58	22786
862.712	22656
862.844	22565
862.976	22687
863.108	22675
863.24	23056
863.372	22535
863.504	22660
863.636	22497
863.768	22592
863.9	22622
864.032	22603
864.164	22649
864.296	22618
864.428	22675
864.559	22557
864.691	22599
864.823	22596
864.954	22592
865.086	22500
865.217	22443
865.349	22341
865.48	22436
865.612	22504
865.743	22569
865.875	22485
866.006	22390
866.137	22451
866.269	22371
866.4	22508
866.531	22409
866.662	22375
866.793	22375
866.924	22436
867.055	22363
867.186	22413
867.317	22322
867.448	22162
867.579	22402
867.71	22219
867.841	22257
867.972	22379
868.103	22413
868.233	22352
868.364	22253
868.495	22470
868.625	22653
868.756	22786
868.886	22573
869.017	22577
869.147	22713
869.278	22889
869.408	22561
869.539	22653
869.669	22672
869.799	22736
869.929	22767
870.06	22755
870.19	22805
870.32	22812
870.45	22995
870.58	23029
870.71	23159
870.84	23113
870.97	23048
871.1	22987
871.23	23159
871.36	23178
871.489	23090
871.619	23143
871.749	23170
871.879	23292
872.008	23341
872.138	23296
872.267	23299
872.397	23060
872.526	23079
872.656	23079
872.785	22961
872.915	23200
873.044	23406
873.173	23254
873.303	23223
873.432	23337
873.561	23391
873.69	23345
873.819	23261
873.948	23330
874.077	23322
874.206	23075
874.335	23181
874.464	23284
874.593	23368
874.722	23509
874.851	23459
874.979	23497
875.108	23417
875.237	23334
875.365	23315
875.494	23444
875.623	23577
875.751	23440
875.88	23436
876.008	23474
876.136	23634
876.265	23813
876.393	24018
876.521	23916
876.65	23859
876.778	23946
876.906	23790
877.034	23805
877.162	23737
877.29	23737
877.418	23863
877.546	23824
877.674	23684
877.802	23828
877.93	23794
878.058	23794
878.185	23653
878.313	23687
878.441	23866
878.568	23543
878.696	23748
878.824	23817
878.951	23866
879.079	23965
879.206	24068
879.333	24064
879.461	23779
879.588	23931
879.715	23893
879.842	24178
879.97	23783
880.097	23657
880.224	23627
880.351	23630
880.478	23585
880.605	23505
880.732	23528
880.859	23855
880.986	23672
881.112	23676
881.239	23528
881.366	23376
881.493	23284
881.619	23212
881.746	23079
881.872	23277
881.999	22961
882.125	23071
882.252	23193
882.378	23071
882.505	23280
882.631	22980
882.757	22869
882.883	22957
883.01	22892
883.136	22908
883.262	22774
883.388	22790
883.514	22744
883.64	22831
883.766	22786
883.892	22546
884.018	22664
884.143	22691
884.269	22927
884.395	22588
884.52	22394
884.646	22451
884.772	22443
884.897	22409
885.023	22478
885.148	22557
885.274	22546
885.399	22561
885.524	22485
885.65	22592
885.775	22592
885.9	22413
886.025	22485
886.15	22512
886.275	22375
886.4	22379
886.525	22451
886.65	22291
886.775	22451
886.9	22599
887.025	22683
887.149	22409
887.274	22196
887.399	22238
887.523	22139
887.648	22238
887.773	22059
887.897	22382
888.021	22162
888.146	22177
888.27	22356
888.395	22188
888.519	22306
888.643	22188
888.767	22200
888.891	22105
889.015	21975
889.139	22059
889.263	21804
889.387	22124
889.511	22017
889.635	22086
889.759	22032
889.883	22021
890.006	22074
890.13	22063
890.254	21808
890.377	21960
890.501	21717
890.624	21755
890.748	21682
890.871	21690
890.995	21477
891.118	21591
891.241	21545
891.364	21515
891.488	21656
891.611	21557
891.734	21599
891.857	21431
891.98	21667
892.103	21625
892.226	21496
892.349	21515
892.471	21332
892.594	21469
892.717	21428
892.839	21412
892.962	21500
893.085	21492
893.207	21367
893.33	21332
893.452	21370
893.575	21500
893.697	21408
893.819	21553
893.941	21701
894.064	21477
894.186	21386
894.308	21412
894.43	21462
894.552	21507
894.674	21492
894.796	21351
894.918	21332
895.04	21424
895.161	21382
895.283	21435
895.405	21386
895.526	21325
895.648	21367
895.769	21412
895.891	21511
896.012	21405
896.134	21389
896.255	21374
896.376	21443
896.498	21355
896.619	21386
896.74	21351
896.861	21431
896.982	21747
897.103	21895
897.224	21553
897.345	21561
897.466	21557
897.587	21591
897.708	21705
897.828	21694
897.949	21466
898.07	21553
898.19	21534
898.311	21603
898.431	21557
898.552	21561
898.672	21606
898.792	21641
898.913	21534
899.033	21477
899.153	21378
899.273	21260
899.393	21332
899.513	21268
899.633	21260
899.753	21256
899.873	21203
899.993	21408
900.113	21298
900.232	21291
900.352	21180
900.472	21161
900.591	21100
900.711	21043
900.83	20941
900.95	21043
901.069	21157
901.189	20994
901.308	20826
901.427	20621
901.546	20743
901.665	20533
901.784	20621
901.904	20499
902.023	20309
902.141	20221
902.26	20157
902.379	20191
902.498	20153
902.617	20107
902.735	20122
902.854	20084
902.973	20081
903.091	19928
903.21	19712
903.328	19860
903.446	19719
903.565	19628
903.683	19544
903.801	19460
903.919	19548
904.038	19578
904.156	19396
904.274	19373
904.392	19293
904.51	19365
904.627	19282
904.745	19430
904.863	19407
904.981	19179
905.098	19065
905.216	18996
905.334	19027
905.451	18977
905.569	18966
905.686	19057
905.803	18894
905.921	18783
906.038	18894
906.155	18745
906.272	18726
906.389	18711
906.506	18585
906.623	18506
906.74	18566
906.857	18422
906.974	18426
907.091	18597
907.208	18650
907.324	18506
907.441	18429
907.557	18235
907.674	18270
907.79	18285
907.907	18243
908.023	18213
908.139	18209
908.256	18178
908.372	17999
908.488	18076
908.604	18053
908.72	17923
908.836	18057
908.952	17916
909.068	17935
909.184	18068
909.3	17988
909.415	17946
909.531	17984
909.647	17718
909.762	17672
909.878	17562
909.993	17634
910.108	17570
910.224	17627
910.339	17512
910.454	17379
910.57	17414
910.685	17433
910.8	17665
910.915	17570
911.03	17391
911.145	17277
911.259	17231
911.374	17235
911.489	17113
911.604	17064
911.718	17010
911.833	16934
911.947	16809
912.062	16805
912.176	16847
912.291	16980
912.405	16965
912.519	17033
912.633	17181
912.748	17067
912.862	16881
912.976	16778
913.09	16607
913.204	16790
913.318	16850
913.431	16786
913.545	16767
913.659	16946
913.772	16679
913.886	16607
914	16580
914.113	16615
914.226	16660
914.34	16554
914.453	16386
914.566	16489
914.68	16379
914.793	16341
914.906	16173
915.019	16109
915.132	16120
915.245	16211
915.358	16169
915.47	16158
915.583	16147
915.696	16181
915.809	16139
915.921	16131
916.034	15945
916.146	15953
916.259	15941
916.371	16143
916.483	16067
916.595	15934
916.708	15918
916.82	15895
916.932	15907
917.044	15857
917.156	15827
917.268	15747
917.38	15736
917.491	15713
917.603	15709
917.715	15865
917.826	15800
917.938	15675
918.049	15519
918.161	15648
918.272	15770
918.384	15789
918.495	15644
918.606	15557
918.717	15401
918.828	15450
918.939	15492
919.05	15367
919.161	15504
919.272	15275
919.383	15310
919.494	15424
919.604	15698
919.715	15526
919.826	15348
919.936	15481
920.047	15534
920.157	15268
920.267	15587
920.378	15431
920.488	15359
920.598	15549
920.708	15747
920.818	15572
920.928	15568
921.038	15694
921.148	15557
921.258	15325
921.368	15195
921.477	15097
921.587	15180
921.697	14990
921.806	15047
921.916	15074
922.025	14785
922.134	14705
922.244	14640
922.353	14807
922.462	14613
922.571	14617
922.68	14415
922.789	14434
922.898	14427
923.007	14259
923.116	14431
923.224	14393
923.333	14317
923.442	14256
923.55	14130
923.659	14240
923.767	14248
923.876	14172
923.984	14218
924.092	14065
924.201	14210
924.309	14107
924.417	14081
924.525	14020
924.633	14016
924.741	14998
924.849	13814
924.956	13963
925.064	13818
925.172	13811
925.279	13803
925.387	13818
925.494	13742
925.602	13974
925.709	13868
925.816	13750
925.924	13731
926.031	13734
926.138	13700
926.245	13613
926.352	13476
926.459	13670
926.566	13704
926.673	13632
926.779	13506
926.886	13403
926.993	13350
927.099	13392
927.206	13301
927.312	13274
927.419	13316
927.525	13285
927.631	13327
927.737	13301
927.843	13110
927.95	13042
928.056	13141
928.162	13122
928.267	13156
928.373	13643
928.479	13198
928.585	12989
928.69	13050
928.796	13050
928.901	12962
929.007	12760
929.112	13042
929.218	12928
929.323	12867
929.428	12779
929.533	12882
929.638	12707
929.743	12757
929.848	12776
929.953	12692
930.058	12646
930.163	12429
930.267	12475
930.372	12623
930.477	12513
930.581	12612
930.685	12517
930.79	12346
930.894	12334
930.998	12388
931.103	12441
931.207	12121
931.311	12003
931.415	11969
931.519	11688
931.623	11714
