Data from test_V78500241_3218.txt Node
Date: Fri Mar 25 16:04:05 CST 2022
User: usil
Spectrometer: V785-0024
Trigger mode: 0
Integration Time (sec): 4.000000E-1
Scans to average: 1
Nonlinearity correction enabled: false
Boxcar width: 0
Storing dark spectrum: false
XAxis mode: Wavelengths
Number of Pixels in Spectrum: 1024
>>>>>Begin Spectral Data<<<<<
801.071	28786
801.214	28736
801.356	28478
801.499	28363
801.641	28455
801.783	28394
801.926	28401
802.068	28424
802.211	28367
802.353	28249
802.496	28070
802.638	28139
802.78	28017
802.923	27998
803.065	27823
803.208	27956
803.35	28204
803.492	28086
803.635	28432
803.777	28246
803.919	28280
804.061	28561
804.204	28379
804.346	28303
804.488	28223
804.63	28375
804.773	28070
804.915	28284
805.057	28493
805.199	28261
805.341	28432
805.483	28333
805.626	28436
805.768	28352
805.91	28531
806.052	28360
806.194	28382
806.336	28542
806.478	28500
806.62	28341
806.762	28573
806.904	28645
807.046	29075
807.188	28976
807.33	28904
807.472	28888
807.614	28809
807.756	28938
807.898	28888
808.04	28733
808.182	28630
808.324	28908
808.465	28892
808.607	29056
808.749	29128
808.891	29250
809.033	29273
809.174	29117
809.316	29162
809.458	29140
809.6	29025
809.741	29204
809.883	29246
810.025	29421
810.166	29448
810.308	29467
810.45	29296
810.591	29391
810.733	29311
810.875	29235
811.016	29197
811.158	29086
811.299	29174
811.441	29265
811.582	29322
811.724	29261
811.865	29204
812.007	29315
812.148	29098
812.29	29132
812.431	29375
812.573	29592
812.714	29543
812.855	29729
812.997	29741
813.138	29870
813.279	29920
813.421	29627
813.562	29649
813.703	29471
813.845	29368
813.986	29117
814.127	28987
814.268	28885
814.41	28942
814.551	28984
814.692	28896
814.833	28896
814.974	29010
815.115	28885
815.256	28725
815.397	28664
815.539	28611
815.68	28755
815.821	28706
815.962	28805
816.103	28660
816.244	28672
816.385	28542
816.526	28478
816.666	28238
816.807	28192
816.948	28185
817.089	28207
817.23	28246
817.371	28173
817.512	28090
817.653	28272
817.793	28226
817.934	28238
818.075	28200
818.216	28276
818.356	28082
818.497	28101
818.638	27876
818.778	28017
818.919	27831
819.06	28067
819.2	28074
819.341	28268
819.481	28215
819.622	28318
819.762	28580
819.903	28618
820.043	28440
820.184	28272
820.324	28424
820.465	28409
820.605	28485
820.746	28246
820.886	28181
821.026	28367
821.167	28211
821.307	28322
821.447	28181
821.588	28116
821.728	27918
821.868	27793
822.008	27698
822.149	27641
822.289	27610
822.429	27374
822.569	27416
822.709	27401
822.849	27367
822.99	27260
823.13	27127
823.27	27188
823.41	26929
823.55	26971
823.69	27096
823.83	27055
823.97	27020
824.11	26800
824.25	26796
824.389	26800
824.529	26971
824.669	26899
824.809	26929
824.949	26895
825.089	27032
825.228	26944
825.368	26602
825.508	26792
825.648	26712
825.787	26940
825.927	26739
826.067	26689
826.206	26868
826.346	26762
826.485	26735
826.625	26724
826.765	26807
826.904	26792
827.044	26473
827.183	26682
827.323	26552
827.462	26374
827.601	26465
827.741	26240
827.88	26423
828.02	26229
828.159	26499
828.298	26484
828.437	26450
828.577	26396
828.716	26564
828.855	26480
828.994	26218
829.134	26039
829.273	26259
829.412	26237
829.551	26050
829.69	26149
829.829	26240
829.968	26278
830.107	26225
830.246	26157
830.385	26122
830.524	25963
830.663	25936
830.802	25883
830.941	25704
831.08	25727
831.219	25765
831.357	25966
831.496	25955
831.635	25651
831.774	25651
831.913	25586
832.051	25658
832.19	25559
832.329	25578
832.467	25274
832.606	25358
832.744	25282
832.883	25419
833.022	25449
833.16	25403
833.299	25415
833.437	25499
833.576	25529
833.714	25445
833.852	25521
833.991	25434
834.129	25491
834.267	25381
834.406	25548
834.544	25552
834.682	25449
834.821	25476
834.959	25723
835.097	25400
835.235	25510
835.373	25392
835.511	25400
835.65	25365
835.788	25407
835.926	25240
836.064	25023
836.202	25225
836.34	25339
836.478	25324
836.615	25278
836.753	25183
836.891	25407
837.029	25350
837.167	25240
837.305	25171
837.443	25274
837.58	25076
837.718	25164
837.856	25072
837.993	25019
838.131	25057
838.269	24894
838.406	25050
838.544	24932
838.681	24642
838.819	24665
838.956	24623
839.094	24582
839.231	24608
839.369	24779
839.506	24916
839.643	24753
839.781	24555
839.918	24566
840.055	24574
840.193	24452
840.33	24486
840.467	24551
840.604	24612
840.742	24715
840.879	24376
841.016	24483
841.153	24350
841.29	24593
841.427	24437
841.564	24540
841.701	24467
841.838	24559
841.975	24239
842.112	24448
842.249	24277
842.385	24232
842.522	24475
842.659	24311
842.796	24273
842.933	24296
843.069	24220
843.206	24194
843.343	24357
843.479	24262
843.616	24277
843.752	24049
843.889	24045
844.025	24201
844.162	23999
844.298	24110
844.435	24041
844.571	23965
844.708	24011
844.844	24190
844.98	24232
845.117	24194
845.253	23927
845.389	23923
845.525	23901
845.661	23851
845.798	23722
845.934	23874
846.07	23722
846.206	23771
846.342	23878
846.478	23657
846.614	23581
846.75	23433
846.886	23471
847.022	23554
847.158	23516
847.294	23566
847.429	23566
847.565	23383
847.701	23589
847.837	23235
847.972	23170
848.108	23299
848.244	23269
848.379	23159
848.515	23010
848.65	23136
848.786	23044
848.921	23064
849.057	23181
849.192	23121
849.328	22987
849.463	23056
849.598	23052
849.734	23025
849.869	22900
850.004	22862
850.14	22984
850.275	22881
850.41	22679
850.545	22736
850.68	22752
850.815	22854
850.95	22889
851.085	22961
851.22	22995
851.355	22831
851.49	22831
851.625	22782
851.76	22774
851.895	22717
852.03	22767
852.165	22862
852.299	22980
852.434	22968
852.569	22778
852.703	22774
852.838	22866
852.973	22946
853.107	22976
853.242	22854
853.376	22691
853.511	22519
853.645	22596
853.78	22710
853.914	22725
854.048	22675
854.183	22565
854.317	22672
854.451	22889
854.585	22691
854.72	22588
854.854	22763
854.988	22618
855.122	22748
855.256	22546
855.39	22607
855.524	22733
855.658	22717
855.792	22615
855.926	22786
856.06	22717
856.194	22656
856.327	22626
856.461	22596
856.595	22596
856.729	22618
856.862	22786
856.996	22710
857.13	22645
857.263	22740
857.397	22706
857.53	22615
857.664	22771
857.797	22687
857.931	22858
858.064	22580
858.197	22725
858.331	22729
858.464	22554
858.597	22618
858.731	22649
858.864	22637
858.997	22569
859.13	22641
859.263	22664
859.396	22653
859.529	22523
859.662	22508
859.795	22630
859.928	22584
860.061	22752
860.194	22930
860.327	22668
860.46	22790
860.592	22790
860.725	22828
860.858	22683
860.99	22599
861.123	22588
861.256	22607
861.388	22713
861.521	23406
861.653	22527
861.786	22447
861.918	22497
862.05	22550
862.183	22565
862.315	22573
862.447	22615
862.58	22588
862.712	22295
862.844	22291
862.976	22402
863.108	22470
863.24	22759
863.372	22284
863.504	22451
863.636	22322
863.768	22459
863.9	22367
864.032	22188
864.164	22265
864.296	22428
864.428	22417
864.559	22459
864.691	22516
864.823	22348
864.954	22306
865.086	22211
865.217	22280
865.349	22162
865.48	22295
865.612	22226
865.743	22341
865.875	22310
866.006	22246
866.137	22253
866.269	22234
866.4	22219
866.531	22268
866.662	22074
866.793	22070
866.924	22074
867.055	22181
867.186	22242
867.317	22078
867.448	22135
867.579	22185
867.71	22112
867.841	22067
867.972	22272
868.103	22074
868.233	22131
868.364	22280
868.495	22219
868.625	22440
868.756	22409
868.886	22413
869.017	22481
869.147	22580
869.278	22535
869.408	22451
869.539	22440
869.669	22603
869.799	22417
869.929	22508
870.06	22485
870.19	22721
870.32	22733
870.45	22683
870.58	22805
870.71	22862
870.84	23018
870.97	22782
871.1	22801
871.23	23143
871.36	22938
871.489	22847
871.619	23037
871.749	23056
871.879	23022
872.008	23086
872.138	23022
872.267	23075
872.397	22885
872.526	22752
872.656	22854
872.785	22805
872.915	23060
873.044	23143
873.173	23018
873.303	23064
873.432	23162
873.561	23079
873.69	23166
873.819	23041
873.948	23155
874.077	23151
874.206	22953
874.335	22968
874.464	23212
874.593	23307
874.722	23280
874.851	23280
874.979	23200
875.108	23193
875.237	23208
875.365	23174
875.494	23010
875.623	23406
875.751	23197
875.88	23223
876.008	23425
876.136	23337
876.265	23707
876.393	23798
876.521	23577
876.65	23802
876.778	23589
876.906	23547
877.034	23455
877.162	23604
877.29	23501
877.418	23649
877.546	23619
877.674	23627
877.802	23684
877.93	23638
878.058	23562
878.185	23497
878.313	23493
878.441	23497
878.568	23452
878.696	23372
878.824	23714
878.951	23691
879.079	23824
879.206	23847
879.333	23794
879.461	23615
879.588	23608
879.715	23741
879.842	23897
879.97	23543
880.097	23376
880.224	23383
880.351	23471
880.478	23414
880.605	23292
880.732	23474
880.859	23566
880.986	23459
881.112	23372
881.239	23269
881.366	23041
881.493	23079
881.619	22953
881.746	22972
881.872	22896
881.999	22949
882.125	22972
882.252	23018
882.378	22946
882.505	23067
882.631	22687
882.757	22725
882.883	22748
883.01	22645
883.136	22577
883.262	22523
883.388	22466
883.514	22535
883.64	22771
883.766	22527
883.892	22402
884.018	22493
884.143	22557
884.269	22618
884.395	22405
884.52	22284
884.646	22386
884.772	22272
884.897	22242
885.023	22204
885.148	22470
885.274	22436
885.399	22478
885.524	22204
885.65	22322
885.775	22303
885.9	22249
886.025	22272
886.15	22379
886.275	22276
886.4	22154
886.525	22215
886.65	22112
886.775	22185
886.9	22440
887.025	22500
887.149	22196
887.274	22078
887.399	22105
887.523	21994
887.648	21804
887.773	21869
887.897	21991
888.021	22200
888.146	21945
888.27	22230
888.395	22051
888.519	22010
888.643	22086
888.767	22025
888.891	21983
889.015	21850
889.139	21903
889.263	21781
889.387	21934
889.511	22051
889.635	21918
889.759	21823
889.883	21728
890.006	21846
890.13	21991
890.254	21793
890.377	21648
890.501	21519
890.624	21473
890.748	21561
890.871	21408
890.995	21401
891.118	21252
891.241	21351
891.364	21412
891.488	21519
891.611	21283
891.734	21408
891.857	21405
891.98	21294
892.103	21420
892.226	21359
892.349	21313
892.471	21184
892.594	21291
892.717	21211
892.839	21199
892.962	21298
893.085	21336
893.207	21287
893.33	21028
893.452	21203
893.575	21264
893.697	21184
893.819	21332
893.941	21351
894.064	21348
894.186	21135
894.308	21077
894.43	21275
894.552	21424
894.674	21401
894.796	21184
894.918	21192
895.04	21203
895.161	21363
895.283	21329
895.405	21237
895.526	21199
895.648	21104
895.769	21370
895.891	21249
896.012	21157
896.134	21237
896.255	21313
896.376	21100
896.498	21279
896.619	21306
896.74	21032
896.861	21142
896.982	21625
897.103	21526
897.224	21485
897.345	21294
897.466	21237
897.587	21310
897.708	21538
897.828	21485
897.949	21340
898.07	21386
898.19	21317
898.311	21504
898.431	21443
898.552	21473
898.672	21374
898.792	21488
898.913	21370
899.033	21256
899.153	21203
899.273	21154
899.393	21108
899.513	21169
899.633	21096
899.753	21161
899.873	21043
899.993	21043
900.113	21009
900.232	21081
900.352	21055
900.472	20815
900.591	20880
900.711	20967
900.83	20845
900.95	20933
901.069	21024
901.189	20876
901.308	20556
901.427	20446
901.546	20518
901.665	20511
901.784	20507
901.904	20400
902.023	20275
902.141	20103
902.26	19967
902.379	20103
902.498	19986
902.617	19940
902.735	19970
902.854	19917
902.973	19932
903.091	19605
903.21	19674
903.328	19624
903.446	19502
903.565	19533
903.683	19434
903.801	19396
903.919	19384
904.038	19400
904.156	19308
904.274	19270
904.392	19225
904.51	19110
904.627	19228
904.745	19221
904.863	19285
904.981	19038
905.098	18856
905.216	18749
905.334	18829
905.451	18783
905.569	18840
905.686	18825
905.803	18802
905.921	18608
906.038	18738
906.155	18715
906.272	18623
906.389	18639
906.506	18338
906.623	18292
906.74	18391
906.857	18247
906.974	18300
907.091	18391
907.208	18407
907.324	18296
907.441	18289
907.557	18277
907.674	18072
907.79	17973
907.907	18034
908.023	18144
908.139	18076
908.256	18049
908.372	17988
908.488	18034
908.604	17843
908.72	17783
908.836	17767
908.952	17893
909.068	17840
909.184	17920
909.3	17710
909.415	17889
909.531	17855
909.647	17581
909.762	17501
909.878	17436
909.993	17573
910.108	17505
910.224	17395
910.339	17383
910.454	17417
910.57	17261
910.685	17223
910.8	17505
910.915	17353
911.03	17299
911.145	17200
911.259	17117
911.374	17064
911.489	17033
911.604	17003
911.718	16778
911.833	16824
911.947	16725
912.062	16805
912.176	16698
912.291	16892
912.405	16820
912.519	16991
912.633	16991
912.748	16816
912.862	16854
912.976	16653
913.09	16481
913.204	16683
913.318	16691
913.431	16786
913.545	16687
913.659	16713
913.772	16542
913.886	16447
914	16390
914.113	16531
914.226	16516
914.34	16470
914.453	16314
914.566	16424
914.68	16280
914.793	16166
914.906	16059
915.019	15991
915.132	15953
915.245	15945
915.358	15975
915.47	16040
915.583	15968
915.696	16017
915.809	16078
915.921	16048
916.034	15892
916.146	15850
916.259	15892
916.371	15926
916.483	15911
916.595	15823
916.708	15743
916.82	15762
916.932	15762
917.044	15838
917.156	15679
917.268	15622
917.38	15572
917.491	15637
917.603	15523
917.715	15622
917.826	15720
917.938	15526
918.049	15431
918.161	15534
918.272	15618
918.384	15610
918.495	15523
918.606	15310
918.717	15245
918.828	15397
918.939	15321
919.05	15245
919.161	15245
919.272	15211
919.383	15230
919.494	15363
919.604	15473
919.715	15348
919.826	15218
919.936	15233
920.047	15306
920.157	15264
920.267	15374
920.378	15294
920.488	15275
920.598	15412
920.708	15530
920.818	15382
920.928	15378
921.038	15523
921.148	15408
921.258	15260
921.368	15055
921.477	14971
921.587	15036
921.697	14826
921.806	14921
921.916	14823
922.025	14705
922.134	14746
922.244	14606
922.353	14705
922.462	14644
922.571	14431
922.68	14294
922.789	14298
922.898	14275
923.007	14328
923.116	14400
923.224	14252
923.333	14271
923.442	14172
923.55	14176
923.659	14233
923.767	14221
923.876	14134
923.984	14168
924.092	13986
924.201	14058
924.309	13982
924.417	13936
924.525	13871
924.633	13932
924.741	14674
924.849	13685
924.956	13837
925.064	13784
925.172	13651
925.279	13662
925.387	13662
925.494	13704
925.602	13727
925.709	13616
925.816	13605
925.924	13647
926.031	13674
926.138	13567
926.245	13628
926.352	13521
926.459	13563
926.566	13681
926.673	13506
926.779	13388
926.886	13377
926.993	13244
927.099	13168
927.206	13152
927.312	13145
927.419	13236
927.525	13282
927.631	13084
927.737	13061
927.843	12954
927.95	12905
928.056	12951
928.162	13057
928.267	13038
928.373	13525
928.479	13042
928.585	12852
928.69	12947
928.796	12905
928.901	12825
929.007	12779
929.112	12833
929.218	12863
929.323	12692
929.428	12726
929.533	12795
929.638	12662
929.743	12658
929.848	12707
929.953	12707
930.058	12483
930.163	12410
930.267	12391
930.372	12490
930.477	12266
930.581	12593
930.685	12437
930.79	12201
930.894	12338
930.998	12175
931.103	12308
931.207	11992
931.311	11904
931.415	11847
931.519	11600
931.623	11638
