Data from test_V78500241_521.txt Node
Date: Fri Mar 25 15:45:24 CST 2022
User: usil
Spectrometer: V785-0024
Trigger mode: 0
Integration Time (sec): 4.000000E-1
Scans to average: 1
Nonlinearity correction enabled: false
Boxcar width: 0
Storing dark spectrum: false
XAxis mode: Wavelengths
Number of Pixels in Spectrum: 1024
>>>>>Begin Spectral Data<<<<<
801.071	27595
801.214	27618
801.356	27408
801.499	27462
801.641	27306
801.783	27146
801.926	27306
802.068	27340
802.211	27058
802.353	27055
802.496	26773
802.638	26796
802.78	27020
802.923	26891
803.065	26868
803.208	26895
803.35	26853
803.492	26979
803.635	27146
803.777	26872
803.919	27005
804.061	27306
804.204	26872
804.346	26979
804.488	26948
804.63	26914
804.773	26853
804.915	27013
805.057	27104
805.199	26986
805.341	27100
805.483	27131
805.626	27108
805.768	27081
805.91	27150
806.052	27207
806.194	27135
806.336	27329
806.478	27211
806.62	27150
806.762	27332
806.904	27272
807.046	27652
807.188	27549
807.33	27629
807.472	27667
807.614	27500
807.756	27511
807.898	27283
808.04	27302
808.182	27321
808.324	27397
808.465	27329
808.607	27644
808.749	27690
808.891	27831
809.033	27979
809.174	27953
809.316	27739
809.458	27804
809.6	27835
809.741	27838
809.883	28135
810.025	28150
810.166	27979
810.308	28109
810.45	28040
810.591	27941
810.733	27816
810.875	27701
811.016	27743
811.158	27709
811.299	27808
811.441	28105
811.582	27956
811.724	27838
811.865	27690
812.007	27694
812.148	27793
812.29	27816
812.431	27937
812.573	28230
812.714	28261
812.855	28489
812.997	28310
813.138	28615
813.279	28447
813.421	28371
813.562	28253
813.703	28105
813.845	28013
813.986	27713
814.127	27610
814.268	27492
814.41	27500
814.551	27378
814.692	27447
814.833	27401
814.974	27302
815.115	27401
815.256	27329
815.397	27367
815.539	27260
815.68	27382
815.821	27116
815.962	27332
816.103	27230
816.244	27085
816.385	27096
816.526	27047
816.666	26823
816.807	26788
816.948	26750
817.089	26940
817.23	26800
817.371	26762
817.512	26807
817.653	26788
817.793	26739
817.934	26667
818.075	26678
818.216	26735
818.356	26617
818.497	26682
818.638	26549
818.778	26568
818.919	26625
819.06	26461
819.2	26625
819.341	26743
819.481	26758
819.622	26834
819.762	26895
819.903	26880
820.043	26914
820.184	26940
820.324	26682
820.465	26887
820.605	26887
820.746	26952
820.886	26765
821.026	26750
821.167	26800
821.307	26921
821.447	26861
821.588	26667
821.728	26408
821.868	26294
822.008	26221
822.149	26142
822.289	26065
822.429	25978
822.569	25841
822.709	25982
822.849	25776
822.99	25746
823.13	25696
823.27	25632
823.41	25499
823.55	25388
823.69	25548
823.83	25559
823.97	25537
824.11	25285
824.25	25282
824.389	25148
824.529	25301
824.669	25506
824.809	25438
824.949	25453
825.089	25415
825.228	25533
825.368	25225
825.508	25171
825.648	25289
825.787	25266
825.927	25278
826.067	25129
826.206	25179
826.346	25213
826.485	25266
826.625	25072
826.765	25327
826.904	25209
827.044	25126
827.183	24878
827.323	24947
827.462	25061
827.601	24867
827.741	24920
827.88	25012
828.02	24833
828.159	24886
828.298	24985
828.437	24985
828.577	24897
828.716	24947
828.855	24901
828.994	24639
829.134	24612
829.273	24574
829.412	24639
829.551	24544
829.69	24570
829.829	24578
829.968	24673
830.107	24578
830.246	24601
830.385	24559
830.524	24604
830.663	24475
830.802	24384
830.941	24186
831.08	24072
831.219	24350
831.357	24311
831.496	24346
831.635	24247
831.774	24091
831.913	24106
832.051	23935
832.19	24003
832.329	23984
832.467	23973
832.606	23836
832.744	23874
832.883	23817
833.022	23946
833.16	23977
833.299	23855
833.437	23821
833.576	24026
833.714	23897
833.852	23935
833.991	23977
834.129	23935
834.267	23920
834.406	23946
834.544	23935
834.682	23885
834.821	23893
834.959	24026
835.097	23866
835.235	23950
835.373	23893
835.511	23843
835.65	23710
835.788	23912
835.926	23764
836.064	23608
836.202	23524
836.34	23767
836.478	23836
836.615	23672
836.753	23729
836.891	23817
837.029	23748
837.167	23798
837.305	23623
837.443	23756
837.58	23600
837.718	23634
837.856	23623
837.993	23596
838.131	23554
838.269	23509
838.406	23490
838.544	23531
838.681	23212
838.819	23162
838.956	23075
839.094	23067
839.231	23170
839.369	23200
839.506	23360
839.643	23372
839.781	22991
839.918	23067
840.055	23181
840.193	23060
840.33	22984
840.467	22980
840.604	23064
840.742	23250
840.879	22862
841.016	22949
841.153	23029
841.29	23064
841.427	22968
841.564	23010
841.701	22953
841.838	22809
841.975	22835
842.112	23014
842.249	22843
842.385	22698
842.522	23006
842.659	22839
842.796	22691
842.933	22698
843.069	22752
843.206	22645
843.343	22713
843.479	22748
843.616	22824
843.752	22569
843.889	22500
844.025	22645
844.162	22504
844.298	22611
844.435	22527
844.571	22352
844.708	22462
844.844	22820
844.98	22649
845.117	22717
845.253	22436
845.389	22341
845.525	22344
845.661	22413
845.798	22272
845.934	22325
846.07	22219
846.206	22272
846.342	22398
846.478	22280
846.614	22074
846.75	21972
846.886	21922
847.022	22101
847.158	21979
847.294	21937
847.429	22078
847.565	21991
847.701	22314
847.837	21652
847.972	21679
848.108	21690
848.244	21781
848.379	21603
848.515	21500
848.65	21599
848.786	21599
848.921	21553
849.057	21690
849.192	21732
849.328	21629
849.463	21530
849.598	21542
849.734	21405
849.869	21378
850.004	21367
850.14	21298
850.275	21199
850.41	21329
850.545	21332
850.68	21188
850.815	21325
850.95	21329
851.085	21469
851.22	21302
851.355	21317
851.49	21363
851.625	21245
851.76	21317
851.895	21336
852.03	21203
852.165	21389
852.299	21401
852.434	21488
852.569	21363
852.703	21408
852.838	21401
852.973	21496
853.107	21401
853.242	21336
853.376	21116
853.511	21135
853.645	21207
853.78	21283
853.914	21226
854.048	21005
854.183	21127
854.317	21119
854.451	21367
854.585	21180
854.72	21135
854.854	21233
854.988	21173
855.122	21214
855.256	21055
855.39	21074
855.524	21211
855.658	21116
855.792	21203
855.926	21146
856.06	21157
856.194	21310
856.327	21093
856.461	21104
856.595	21154
856.729	21131
856.862	21272
856.996	21184
857.13	21161
857.263	21211
857.397	21230
857.53	21100
857.664	21157
857.797	21370
857.931	21192
858.064	21157
858.197	21233
858.331	21180
858.464	21043
858.597	21062
858.731	21233
858.864	21093
858.997	21062
859.13	21195
859.263	21131
859.396	21310
859.529	21150
859.662	21116
859.795	21062
859.928	21173
860.061	21431
860.194	21321
860.327	21192
860.46	21157
860.592	21272
860.725	21291
860.858	21260
860.99	21195
861.123	21020
861.256	21146
861.388	21192
861.521	21766
861.653	21028
861.786	20998
861.918	21028
862.05	21017
862.183	21116
862.315	21043
862.447	21203
862.58	21093
862.712	20853
862.844	20891
862.976	20895
863.108	20994
863.24	21405
863.372	20815
863.504	20883
863.636	20857
863.768	20845
863.9	20952
864.032	20762
864.164	20876
864.296	20857
864.428	20952
864.559	20921
864.691	20937
864.823	20830
864.954	20929
865.086	20876
865.217	20937
865.349	20731
865.48	20754
865.612	20758
865.743	20826
865.875	20750
866.006	20693
866.137	20796
866.269	20876
866.4	20708
866.531	20697
866.662	20689
866.793	20716
866.924	20724
867.055	20769
867.186	20720
867.317	20659
867.448	20609
867.579	20621
867.71	20568
867.841	20678
867.972	20689
868.103	20758
868.233	20655
868.364	20606
868.495	20750
868.625	20857
868.756	21135
868.886	20963
869.017	20979
869.147	21070
869.278	20982
869.408	21047
869.539	20861
869.669	21020
869.799	21051
869.929	21157
870.06	21055
870.19	21252
870.32	21214
870.45	21268
870.58	21378
870.71	21462
870.84	21332
870.97	21367
871.1	21294
871.23	21614
871.36	21496
871.489	21412
871.619	21530
871.749	21500
871.879	21648
872.008	21545
872.138	21538
872.267	21625
872.397	21321
872.526	21325
872.656	21378
872.785	21351
872.915	21652
873.044	21637
873.173	21447
873.303	21656
873.432	21762
873.561	21736
873.69	21622
873.819	21557
873.948	21618
874.077	21622
874.206	21603
874.335	21507
874.464	21663
874.593	21895
874.722	21800
874.851	21823
874.979	21720
875.108	21800
875.237	21747
875.365	21679
875.494	21781
875.623	21797
875.751	21846
875.88	21755
876.008	21911
876.136	21964
876.265	22173
876.393	22394
876.521	22318
876.65	22284
876.778	22116
876.906	22112
877.034	22055
877.162	22116
877.29	22143
877.418	22177
877.546	22211
877.674	22078
877.802	22086
877.93	22120
878.058	22124
878.185	22070
878.313	21994
878.441	22093
878.568	22101
878.696	22082
878.824	22120
878.951	22120
879.079	22371
879.206	22424
879.333	22432
879.461	22272
879.588	22287
879.715	22276
879.842	22554
879.97	22188
880.097	22032
880.224	21895
880.351	22013
880.478	21998
880.605	21953
880.732	21930
880.859	22215
880.986	22044
881.112	22082
881.239	21991
881.366	21797
881.493	21652
881.619	21671
881.746	21534
881.872	21564
881.999	21519
882.125	21542
882.252	21564
882.378	21443
882.505	21660
882.631	21412
882.757	21256
882.883	21264
883.01	21241
883.136	21180
883.262	21165
883.388	21020
883.514	21230
883.64	21329
883.766	21207
883.892	21024
884.018	21157
884.143	21116
884.269	21233
884.395	20929
884.52	20918
884.646	20861
884.772	20872
884.897	20845
885.023	20857
885.148	21039
885.274	20971
885.399	21024
885.524	20899
885.65	20933
885.775	20963
885.9	20929
886.025	21039
886.15	21013
886.275	20887
886.4	20788
886.525	20773
886.65	20819
886.775	20849
886.9	21013
887.025	20986
887.149	20785
887.274	20731
887.399	20663
887.523	20731
887.648	20663
887.773	20518
887.897	20788
888.021	20823
888.146	20644
888.27	20663
888.395	20716
888.519	20705
888.643	20857
888.767	20727
888.891	20625
889.015	20457
889.139	20552
889.263	20419
889.387	20499
889.511	20644
889.635	20648
889.759	20412
889.883	20320
890.006	20484
890.13	20495
890.254	20427
890.377	20503
890.501	20214
890.624	20180
890.748	20210
890.871	20050
890.995	19963
891.118	19959
891.241	19982
891.364	20024
891.488	20176
891.611	20103
891.734	19951
891.857	20077
891.98	20039
892.103	20050
892.226	20138
892.349	19967
892.471	19803
892.594	19947
892.717	20016
892.839	19917
892.962	19807
893.085	19978
893.207	19883
893.33	19807
893.452	19879
893.575	20073
893.697	19868
893.819	19978
893.941	20024
894.064	20012
894.186	19841
894.308	19841
894.43	19967
894.552	20081
894.674	20107
894.796	19860
894.918	19986
895.04	19898
895.161	19944
895.283	19890
895.405	19909
895.526	19917
895.648	19959
895.769	19982
895.891	20043
896.012	20122
896.134	20081
896.255	20058
896.376	19925
896.498	20027
896.619	19936
896.74	19936
896.861	20092
896.982	20309
897.103	20412
897.224	20176
897.345	20168
897.466	20027
897.587	20210
897.708	20442
897.828	20237
897.949	20153
898.07	19947
898.19	20084
898.311	20339
898.431	20084
898.552	20218
898.672	20221
898.792	20313
898.913	20130
899.033	20027
899.153	19955
899.273	19940
899.393	19902
899.513	19928
899.633	19921
899.753	19993
899.873	19875
899.993	19967
900.113	19871
900.232	19917
900.352	19841
900.472	19852
900.591	19757
900.711	19769
900.83	19666
900.95	19765
901.069	19746
901.189	19533
901.308	19415
901.427	19270
901.546	19282
901.665	19384
901.784	19335
901.904	19114
902.023	19129
902.141	18947
902.26	18871
902.379	18951
902.498	18867
902.617	18783
902.735	18924
902.854	18639
902.973	18623
903.091	18414
903.21	18566
903.328	18399
903.446	18407
903.565	18277
903.683	18357
903.801	18159
903.919	18315
904.038	18239
904.156	17999
904.274	18186
904.392	18072
904.51	18121
904.627	17950
904.745	17992
904.863	18167
904.981	17840
905.098	17665
905.216	17805
905.334	17805
905.451	17672
905.569	17748
905.686	17824
905.803	17756
905.921	17516
906.038	17684
906.155	17547
906.272	17353
906.389	17600
906.506	17231
906.623	17337
906.74	17170
906.857	17151
906.974	17235
907.091	17235
907.208	17307
907.324	17326
907.441	17162
907.557	16919
907.674	16908
907.79	16938
907.907	16953
908.023	16946
908.139	16968
908.256	16965
908.372	16858
908.488	16843
908.604	16828
908.72	16725
908.836	16672
908.952	16698
909.068	16793
909.184	16862
909.3	16645
909.415	16759
909.531	16630
909.647	16417
909.762	16310
909.878	16348
909.993	16360
910.108	16432
910.224	16287
910.339	16375
910.454	16257
910.57	16173
910.685	16116
910.8	16451
910.915	16322
911.03	16150
911.145	16067
911.259	16067
911.374	15979
911.489	15953
911.604	15895
911.718	15629
911.833	15675
911.947	15747
912.062	15614
912.176	15816
912.291	15789
912.405	15812
912.519	15926
912.633	15766
912.748	15778
912.862	15720
912.976	15591
913.09	15481
913.204	15447
913.318	15473
913.431	15629
913.545	15660
913.659	15587
913.772	15466
913.886	15336
914	15370
914.113	15393
914.226	15538
914.34	15443
914.453	15363
914.566	15420
914.68	15249
914.793	15241
914.906	15001
915.019	15024
915.132	15017
915.245	14948
915.358	15036
915.47	14948
915.583	15074
915.696	14910
915.809	15108
915.921	15127
916.034	14910
916.146	14861
916.259	14963
916.371	14906
916.483	14861
916.595	14796
916.708	14853
916.82	14739
916.932	14804
917.044	14781
917.156	14769
917.268	14724
917.38	14670
917.491	14594
917.603	14640
917.715	14758
917.826	14720
917.938	14613
918.049	14514
918.161	14648
918.272	14754
918.384	14697
918.495	14484
918.606	14499
918.717	14313
918.828	14419
918.939	14374
919.05	14320
919.161	14438
919.272	14157
919.383	14271
919.494	14450
919.604	14511
919.715	14366
919.826	14351
919.936	14358
920.047	14488
920.157	14412
920.267	14613
920.378	14313
920.488	14343
920.598	14514
920.708	14746
920.818	14499
920.928	14507
921.038	14564
921.148	14735
921.258	14415
921.368	14278
921.477	14172
921.587	14088
921.697	13902
921.806	14157
921.916	13978
922.025	13803
922.134	13799
922.244	13727
922.353	13803
922.462	13636
922.571	13601
922.68	13362
922.789	13506
922.898	13369
923.007	13350
923.116	13407
923.224	13346
923.333	13365
923.442	13369
923.55	13312
923.659	13236
923.767	13244
923.876	13175
923.984	13293
924.092	13213
924.201	13129
924.309	13107
924.417	13126
924.525	13065
924.633	13149
924.741	13833
924.849	12989
924.956	13057
925.064	12863
925.172	12817
925.279	12779
925.387	12856
925.494	12871
925.602	12954
925.709	12859
925.816	12753
925.924	12722
926.031	12863
926.138	12787
926.245	12840
926.352	12719
926.459	12852
926.566	12833
926.673	12722
926.779	12616
926.886	12574
926.993	12502
927.099	12418
927.206	12384
927.312	12342
927.419	12384
927.525	12460
927.631	12445
927.737	12361
927.843	12285
927.95	12159
928.056	12182
928.162	12243
928.267	12330
928.373	12837
928.479	12338
928.585	12072
928.69	12228
928.796	12289
928.901	12076
929.007	11996
929.112	12011
929.218	12060
929.323	11992
929.428	11961
929.533	12057
929.638	11912
929.743	11859
929.848	11958
929.953	11939
930.058	11847
930.163	11665
930.267	11672
930.372	11779
930.477	11634
930.581	11874
930.685	11642
930.79	11505
930.894	11585
930.998	11566
931.103	11615
931.207	11356
931.311	11315
931.415	11121
931.519	10862
931.623	10911
