Data from test_V78500241_1736.txt Node
Date: Fri Mar 25 15:53:49 CST 2022
User: usil
Spectrometer: V785-0024
Trigger mode: 0
Integration Time (sec): 4.000000E-1
Scans to average: 1
Nonlinearity correction enabled: false
Boxcar width: 0
Storing dark spectrum: false
XAxis mode: Wavelengths
Number of Pixels in Spectrum: 1024
>>>>>Begin Spectral Data<<<<<
801.071	28436
801.214	28344
801.356	28230
801.499	27994
801.641	28078
801.783	28055
801.926	28051
802.068	27884
802.211	27953
802.353	27827
802.496	27747
802.638	27637
802.78	27564
802.923	27743
803.065	27633
803.208	27717
803.35	27679
803.492	27876
803.635	27914
803.777	27759
803.919	27816
804.061	28230
804.204	27979
804.346	27907
804.488	27816
804.63	27953
804.773	27770
804.915	27884
805.057	27987
805.199	27819
805.341	28010
805.483	27934
805.626	27945
805.768	28086
805.91	28078
806.052	28143
806.194	27991
806.336	28211
806.478	28078
806.62	28101
806.762	28284
806.904	28356
807.046	28497
807.188	28466
807.33	28382
807.472	28455
807.614	28485
807.756	28546
807.898	28325
808.04	28295
808.182	28363
808.324	28386
808.465	28424
808.607	28573
808.749	28797
808.891	28664
809.033	28919
809.174	28809
809.316	28755
809.458	28637
809.6	28649
809.741	28854
809.883	28850
810.025	28957
810.166	29006
810.308	29056
810.45	28984
810.591	29048
810.733	28755
810.875	28759
811.016	28668
811.158	28634
811.299	28805
811.441	28850
811.582	28934
811.724	28672
811.865	28748
812.007	28611
812.148	28721
812.29	28679
812.431	28778
812.573	29105
812.714	29075
812.855	29193
812.997	29242
813.138	29406
813.279	29539
813.421	29334
813.562	29128
813.703	28904
813.845	28953
813.986	28847
814.127	28481
814.268	28459
814.41	28462
814.551	28367
814.692	28557
814.833	28440
814.974	28265
815.115	28375
815.256	28341
815.397	28173
815.539	28276
815.68	28063
815.821	28219
815.962	28204
816.103	28150
816.244	28169
816.385	27972
816.526	27968
816.666	27842
816.807	27652
816.948	27812
817.089	27785
817.23	27804
817.371	27690
817.512	27682
817.653	27686
817.793	27747
817.934	27618
818.075	27717
818.216	27705
818.356	27682
818.497	27675
818.638	27496
818.778	27435
818.919	27427
819.06	27625
819.2	27587
819.341	27755
819.481	27648
819.622	27903
819.762	28036
819.903	28051
820.043	27835
820.184	27800
820.324	27762
820.465	27895
820.605	27934
820.746	27759
820.886	27671
821.026	27827
821.167	27793
821.307	27766
821.447	27823
821.588	27580
821.728	27534
821.868	27363
822.008	27260
822.149	27233
822.289	27051
822.429	26925
822.569	26864
822.709	26834
822.849	26655
822.99	26701
823.13	26670
823.27	26568
823.41	26556
823.55	26568
823.69	26450
823.83	26495
823.97	26431
824.11	26339
824.25	26259
824.389	26259
824.529	26431
824.669	26347
824.809	26522
824.949	26381
825.089	26377
825.228	26351
825.368	26153
825.508	26145
825.648	26237
825.787	26336
825.927	26267
826.067	26161
826.206	26126
826.346	26343
826.485	26290
826.625	26107
826.765	26305
826.904	26183
827.044	26005
827.183	25940
827.323	25879
827.462	26027
827.601	26001
827.741	25776
827.88	25875
828.02	25860
828.159	25769
828.298	25830
828.437	25932
828.577	25746
828.716	25993
828.855	25761
828.994	25540
829.134	25613
829.273	25670
829.412	25681
829.551	25552
829.69	25613
829.829	25628
829.968	25601
830.107	25799
830.246	25590
830.385	25601
830.524	25476
830.663	25362
830.802	25377
830.941	25206
831.08	25179
831.219	25278
831.357	25270
831.496	25388
831.635	25266
831.774	24996
831.913	25069
832.051	24966
832.19	24943
832.329	25114
832.467	24924
832.606	24867
832.744	24833
832.883	24901
833.022	24886
833.16	24806
833.299	24863
833.437	24863
833.576	24943
833.714	25076
833.852	25107
833.991	24901
834.129	25076
834.267	24989
834.406	25023
834.544	24897
834.682	25080
834.821	24840
834.959	25034
835.097	24977
835.235	24935
835.373	24886
835.511	24954
835.65	24814
835.788	24802
835.926	24646
836.064	24722
836.202	24631
836.34	24669
836.478	24924
836.615	24631
836.753	24772
836.891	24791
837.029	24707
837.167	24681
837.305	24582
837.443	24684
837.58	24540
837.718	24631
837.856	24589
837.993	24525
838.131	24627
838.269	24570
838.406	24597
838.544	24357
838.681	24239
838.819	24205
838.956	24079
839.094	23980
839.231	24117
839.369	24289
839.506	24372
839.643	24342
839.781	24205
839.918	24083
840.055	24087
840.193	24095
840.33	23840
840.467	24068
840.604	23931
840.742	24289
840.879	23843
841.016	23973
841.153	23935
841.29	23977
841.427	24007
841.564	23942
841.701	23904
841.838	23973
841.975	23874
842.112	23764
842.249	23828
842.385	23756
842.522	23939
842.659	23908
842.796	23733
842.933	23676
843.069	23634
843.206	23703
843.343	23863
843.479	23665
843.616	23627
843.752	23562
843.889	23490
844.025	23707
844.162	23436
844.298	23467
844.435	23535
844.571	23459
844.708	23436
844.844	23665
844.98	23577
845.117	23467
845.253	23436
845.389	23277
845.525	23383
845.661	23463
845.798	23220
845.934	23250
846.07	23307
846.206	23166
846.342	23318
846.478	23132
846.614	23064
846.75	22930
846.886	22892
847.022	22987
847.158	22965
847.294	22923
847.429	23044
847.565	22854
847.701	23052
847.837	22706
847.972	22698
848.108	22683
848.244	22797
848.379	22592
848.515	22561
848.65	22398
848.786	22481
848.921	22660
849.057	22740
849.192	22641
849.328	22443
849.463	22440
849.598	22542
849.734	22599
849.869	22394
850.004	22421
850.14	22481
850.275	22230
850.41	22169
850.545	22185
850.68	22211
850.815	22325
850.95	22131
851.085	22504
851.22	22287
851.355	22310
851.49	22166
851.625	22192
851.76	22310
851.895	22207
852.03	22219
852.165	22402
852.299	22363
852.434	22459
852.569	22337
852.703	22299
852.838	22402
852.973	22474
853.107	22405
853.242	22185
853.376	22090
853.511	22029
853.645	22109
853.78	22230
853.914	22177
854.048	22070
854.183	22074
854.317	22219
854.451	22238
854.585	22177
854.72	22223
854.854	22223
854.988	22063
855.122	22139
855.256	21911
855.39	22185
855.524	22166
855.658	22128
855.792	22055
855.926	22093
856.06	22051
856.194	22154
856.327	22086
856.461	22044
856.595	22093
856.729	22032
856.862	22173
856.996	22204
857.13	22143
857.263	22204
857.397	22169
857.53	22048
857.664	22112
857.797	22177
857.931	22226
858.064	22055
858.197	22215
858.331	21994
858.464	22154
858.597	21941
858.731	22090
858.864	22128
858.997	22036
859.13	22105
859.263	22120
859.396	22158
859.529	22177
859.662	22040
859.795	22059
859.928	22074
860.061	22318
860.194	22246
860.327	22074
860.46	22131
860.592	22234
860.725	22253
860.858	22322
860.99	22070
861.123	22101
861.256	22097
861.388	22162
861.521	22896
861.653	21903
861.786	21895
861.918	21998
862.05	21968
862.183	22120
862.315	21960
862.447	22074
862.58	21979
862.712	21781
862.844	21835
862.976	21895
863.108	21797
863.24	22249
863.372	21804
863.504	21759
863.636	21865
863.768	21804
863.9	21873
864.032	21816
864.164	21819
864.296	21915
864.428	21930
864.559	21880
864.691	21759
864.823	21892
864.954	21766
865.086	21823
865.217	21747
865.349	21591
865.48	21759
865.612	21663
865.743	21835
865.875	21766
866.006	21736
866.137	21736
866.269	21762
866.4	21713
866.531	21549
866.662	21633
866.793	21606
866.924	21698
867.055	21679
867.186	21625
867.317	21591
867.448	21466
867.579	21690
867.71	21564
867.841	21595
867.972	21526
868.103	21644
868.233	21728
868.364	21709
868.495	21720
868.625	21835
868.756	22029
868.886	21945
869.017	22051
869.147	21953
869.278	21911
869.408	21941
869.539	21911
869.669	21895
869.799	21899
869.929	22048
870.06	21975
870.19	22215
870.32	22352
870.45	22249
870.58	22265
870.71	22333
870.84	22341
870.97	22246
871.1	22276
871.23	22455
871.36	22523
871.489	22375
871.619	22337
871.749	22485
871.879	22592
872.008	22588
872.138	22462
872.267	22413
872.397	22405
872.526	22341
872.656	22394
872.785	22344
872.915	22512
873.044	22542
873.173	22538
873.303	22668
873.432	22527
873.561	22736
873.69	22440
873.819	22493
873.948	22607
874.077	22550
874.206	22447
874.335	22379
874.464	22641
874.593	22801
874.722	22729
874.851	22831
874.979	22687
875.108	22755
875.237	22637
875.365	22603
875.494	22637
875.623	22717
875.751	22706
875.88	22733
876.008	22946
876.136	22908
876.265	23258
876.393	23242
876.521	23178
876.65	23166
876.778	23341
876.906	22995
877.034	23018
877.162	23090
877.29	22972
877.418	22911
877.546	23086
877.674	22976
877.802	23132
877.93	23075
878.058	23079
878.185	22869
878.313	23079
878.441	22995
878.568	22854
878.696	23044
878.824	23105
878.951	23155
879.079	23189
879.206	23345
879.333	23250
879.461	23113
879.588	23212
879.715	23151
879.842	23395
879.97	23121
880.097	23044
880.224	22820
880.351	23014
880.478	22885
880.605	22923
880.732	22896
880.859	23060
880.986	22881
881.112	22850
881.239	22752
881.366	22645
881.493	22618
881.619	22417
881.746	22379
881.872	22447
881.999	22417
882.125	22455
882.252	22440
882.378	22386
882.505	22561
882.631	22314
882.757	22166
882.883	22246
883.01	22150
883.136	22139
883.262	22124
883.388	22017
883.514	22101
883.64	22078
883.766	21934
883.892	21892
884.018	21953
884.143	22051
884.269	22090
884.395	21827
884.52	21652
884.646	21804
884.772	21591
884.897	21686
885.023	21857
885.148	21827
885.274	21869
885.399	21838
885.524	21869
885.65	21865
885.775	21759
885.9	21724
886.025	21850
886.15	21876
886.275	21793
886.4	21660
886.525	21743
886.65	21690
886.775	21724
886.9	21850
887.025	21941
887.149	21686
887.274	21545
887.399	21428
887.523	21443
887.648	21545
887.773	21355
887.897	21606
888.021	21557
888.146	21534
888.27	21492
888.395	21545
888.519	21572
888.643	21587
888.767	21603
888.891	21405
889.015	21321
889.139	21374
889.263	21317
889.387	21363
889.511	21378
889.635	21405
889.759	21428
889.883	21310
890.006	21321
890.13	21443
890.254	21321
890.377	21287
890.501	21104
890.624	21020
890.748	21192
890.871	20952
890.995	20743
891.118	20845
891.241	20895
891.364	20952
891.488	21039
891.611	20864
891.734	20887
891.857	20864
891.98	20880
892.103	20883
892.226	20883
892.349	20811
892.471	20686
892.594	20754
892.717	20777
892.839	20796
892.962	20800
893.085	20823
893.207	20735
893.33	20705
893.452	20682
893.575	20811
893.697	20792
893.819	20796
893.941	20982
894.064	20872
894.186	20743
894.308	20575
894.43	20834
894.552	20975
894.674	20883
894.796	20701
894.918	20727
895.04	20727
895.161	20830
895.283	20765
895.405	20750
895.526	20864
895.648	20743
895.769	20895
895.891	20838
896.012	20868
896.134	20891
896.255	20838
896.376	20727
896.498	20861
896.619	20857
896.74	20765
896.861	20910
896.982	21173
897.103	21028
897.224	20944
897.345	20956
897.466	20902
897.587	20895
897.708	21116
897.828	21062
897.949	20830
898.07	20811
898.19	21013
898.311	21169
898.431	20880
898.552	21028
898.672	20994
898.792	21043
898.913	21058
899.033	20914
899.153	20746
899.273	20655
899.393	20830
899.513	20712
899.633	20785
899.753	20678
899.873	20564
899.993	20743
900.113	20701
900.232	20716
900.352	20530
900.472	20549
900.591	20476
900.711	20526
900.83	20594
900.95	20473
901.069	20644
901.189	20336
901.308	20202
901.427	20016
901.546	19993
901.665	20050
901.784	20088
901.904	19970
902.023	19761
902.141	19635
902.26	19639
902.379	19658
902.498	19670
902.617	19571
902.735	19499
902.854	19597
902.973	19400
903.091	19225
903.21	19346
903.328	19183
903.446	19118
903.565	19088
903.683	18966
903.801	19015
903.919	18970
904.038	18943
904.156	18719
904.274	18840
904.392	18795
904.51	18753
904.627	18745
904.745	18768
904.863	18875
904.981	18525
905.098	18407
905.216	18414
905.334	18528
905.451	18486
905.569	18391
905.686	18433
905.803	18559
905.921	18232
906.038	18372
906.155	18213
906.272	18281
906.389	18136
906.506	18007
906.623	17939
906.74	17920
906.857	17832
906.974	17760
907.091	18003
907.208	18060
907.324	18022
907.441	17790
907.557	17745
907.674	17657
907.79	17619
907.907	17566
908.023	17646
908.139	17596
908.256	17623
908.372	17573
908.488	17646
908.604	17406
908.72	17383
908.836	17425
908.952	17368
909.068	17452
909.184	17410
909.3	17463
909.415	17292
909.531	17421
909.647	17235
909.762	17132
909.878	17143
909.993	17212
910.108	16968
910.224	16927
910.339	17067
910.454	17003
910.57	16858
910.685	16843
910.8	17109
910.915	17025
911.03	16877
911.145	16793
911.259	16664
911.374	16630
911.489	16565
911.604	16580
911.718	16428
911.833	16512
911.947	16428
912.062	16291
912.176	16470
912.291	16497
912.405	16466
912.519	16637
912.633	16508
912.748	16443
912.862	16341
912.976	16348
913.09	16272
913.204	16200
913.318	16181
913.431	16280
913.545	16344
913.659	16303
913.772	16067
913.886	16036
914	16090
914.113	16090
914.226	16135
914.34	16086
914.453	15857
914.566	16074
914.68	15945
914.793	15876
914.906	15759
915.019	15576
915.132	15641
915.245	15595
915.358	15629
915.47	15660
915.583	15561
915.696	15637
915.809	15701
915.921	15694
916.034	15564
916.146	15477
916.259	15504
916.371	15595
916.483	15500
916.595	15439
916.708	15386
916.82	15481
916.932	15401
917.044	15428
917.156	15336
917.268	15256
917.38	15321
917.491	15146
917.603	15154
917.715	15374
917.826	15275
917.938	15127
918.049	15039
918.161	15192
918.272	15268
918.384	15393
918.495	15127
918.606	14986
918.717	14864
918.828	15138
918.939	14990
919.05	14921
919.161	14963
919.272	14754
919.383	14769
919.494	14990
919.604	15161
919.715	14876
919.826	14895
919.936	14929
920.047	14963
920.157	15047
920.267	15104
920.378	14990
920.488	14933
920.598	15085
920.708	15157
920.818	15028
920.928	15005
921.038	15211
921.148	15173
921.258	14941
921.368	14796
921.477	14640
921.587	14632
921.697	14575
921.806	14602
921.916	14488
922.025	14366
922.134	14286
922.244	14305
922.353	14332
922.462	14248
922.571	14199
922.68	14012
922.789	13921
922.898	14031
923.007	13967
923.116	14016
923.224	13860
923.333	13925
923.442	13826
923.55	13822
923.659	13830
923.767	13856
923.876	13727
923.984	13852
924.092	13731
924.201	13662
924.309	13628
924.417	13639
924.525	13609
924.633	13674
924.741	14362
924.849	13449
924.956	13457
925.064	13362
925.172	13316
925.279	13308
925.387	13415
925.494	13373
925.602	13426
925.709	13460
925.816	13213
925.924	13362
926.031	13354
926.138	13228
926.245	13278
926.352	13141
926.459	13350
926.566	13293
926.673	13240
926.779	13160
926.886	13050
926.993	12920
927.099	12852
927.206	12829
927.312	12829
927.419	12909
927.525	12852
927.631	12848
927.737	12760
927.843	12673
927.95	12650
928.056	12700
928.162	12696
928.267	12726
928.373	13422
928.479	12817
928.585	12521
928.69	12650
928.796	12726
928.901	12570
929.007	12399
929.112	12555
929.218	12509
929.323	12426
929.428	12384
929.533	12540
929.638	12414
929.743	12330
929.848	12369
929.953	12334
930.058	12251
930.163	12117
930.267	12129
930.372	12334
930.477	12087
930.581	12296
930.685	12049
930.79	11992
930.894	12019
930.998	11969
931.103	12102
931.207	11771
931.311	11684
931.415	11535
931.519	11296
931.623	11296
