Data from test_V78500241_649.txt Node
Date: Fri Mar 25 15:46:17 CST 2022
User: usil
Spectrometer: V785-0024
Trigger mode: 0
Integration Time (sec): 4.000000E-1
Scans to average: 1
Nonlinearity correction enabled: false
Boxcar width: 0
Storing dark spectrum: false
XAxis mode: Wavelengths
Number of Pixels in Spectrum: 1024
>>>>>Begin Spectral Data<<<<<
801.071	27842
801.214	27553
801.356	27435
801.499	27420
801.641	27332
801.783	27302
801.926	27469
802.068	27218
802.211	27188
802.353	27157
802.496	27024
802.638	26872
802.78	26880
802.923	26971
803.065	26868
803.208	26830
803.35	27024
803.492	27032
803.635	27112
803.777	26998
803.919	27230
804.061	27450
804.204	27222
804.346	27024
804.488	26914
804.63	27051
804.773	26979
804.915	27112
805.057	27302
805.199	27245
805.341	27233
805.483	27218
805.626	27207
805.768	27142
805.91	27275
806.052	27207
806.194	27287
806.336	27496
806.478	27447
806.62	27321
806.762	27310
806.904	27492
807.046	27717
807.188	27755
807.33	27736
807.472	27823
807.614	27705
807.756	27869
807.898	27542
808.04	27378
808.182	27488
808.324	27576
808.465	27443
808.607	27743
808.749	27930
808.891	28234
809.033	28154
809.174	28105
809.316	27736
809.458	28010
809.6	27945
809.741	27998
809.883	28143
810.025	28185
810.166	28265
810.308	28188
810.45	28135
810.591	27994
810.733	27968
810.875	27831
811.016	27808
811.158	27888
811.299	28040
811.441	28036
811.582	28120
811.724	27895
811.865	27854
812.007	27819
812.148	27789
812.29	27926
812.431	28044
812.573	28200
812.714	28272
812.855	28379
812.997	28478
813.138	28649
813.279	28702
813.421	28478
813.562	28333
813.703	28181
813.845	28040
813.986	27884
814.127	27660
814.268	27481
814.41	27644
814.551	27469
814.692	27789
814.833	27443
814.974	27580
815.115	27629
815.256	27401
815.397	27462
815.539	27405
815.68	27458
815.821	27249
815.962	27408
816.103	27351
816.244	27336
816.385	27135
816.526	27161
816.666	27036
816.807	26838
816.948	27081
817.089	27036
817.23	26899
817.371	26899
817.512	26880
817.653	26819
817.793	26861
817.934	27062
818.075	26902
818.216	26880
818.356	26823
818.497	26796
818.638	26663
818.778	26533
818.919	26651
819.06	26648
819.2	26838
819.341	26788
819.481	26735
819.622	26933
819.762	27218
819.903	27024
820.043	27001
820.184	27024
820.324	26929
820.465	26948
820.605	27028
820.746	27089
820.886	26834
821.026	27039
821.167	26891
821.307	26998
821.447	26940
821.588	26754
821.728	26651
821.868	26469
822.008	26419
822.149	26408
822.289	26374
822.429	26119
822.569	26046
822.709	25947
822.849	25814
822.99	25955
823.13	25799
823.27	25791
823.41	25753
823.55	25506
823.69	25540
823.83	25677
823.97	25601
824.11	25415
824.25	25533
824.389	25464
824.529	25639
824.669	25563
824.809	25556
824.949	25632
825.089	25582
825.228	25578
825.368	25324
825.508	25479
825.648	25388
825.787	25350
825.927	25377
826.067	25430
826.206	25419
826.346	25422
826.485	25293
826.625	25251
826.765	25457
826.904	25339
827.044	25225
827.183	25088
827.323	25008
827.462	25164
827.601	25069
827.741	25008
827.88	25015
828.02	24886
828.159	24985
828.298	25160
828.437	25057
828.577	25038
828.716	25084
828.855	24992
828.994	24677
829.134	24726
829.273	24760
829.412	24696
829.551	24768
829.69	24707
829.829	24726
829.968	24783
830.107	24760
830.246	24833
830.385	24711
830.524	24639
830.663	24540
830.802	24467
830.941	24407
831.08	24376
831.219	24285
831.357	24608
831.496	24475
831.635	24296
831.774	24369
831.913	24216
832.051	24106
832.19	24144
832.329	24163
832.467	23923
832.606	24057
832.744	23912
832.883	24095
833.022	23973
833.16	24057
833.299	24136
833.437	24136
833.576	24034
833.714	24098
833.852	24167
833.991	24079
834.129	24133
834.267	24083
834.406	24049
834.544	24186
834.682	24190
834.821	24007
834.959	24239
835.097	24022
835.235	24190
835.373	24098
835.511	24098
835.65	23916
835.788	23935
835.926	23767
836.064	23726
836.202	23741
836.34	23980
836.478	23946
836.615	23980
836.753	23904
836.891	24121
837.029	23939
837.167	23901
837.305	23836
837.443	23657
837.58	23786
837.718	23878
837.856	23832
837.993	23684
838.131	23722
838.269	23619
838.406	23718
838.544	23535
838.681	23497
838.819	23406
838.956	23223
839.094	23185
839.231	23311
839.369	23585
839.506	23665
839.643	23543
839.781	23181
839.918	23090
840.055	23223
840.193	23242
840.33	23162
840.467	23220
840.604	23250
840.742	23512
840.879	23178
841.016	23143
841.153	22923
841.29	23299
841.427	23147
841.564	23162
841.701	23143
841.838	23079
841.975	22972
842.112	23086
842.249	23083
842.385	22961
842.522	23128
842.659	23102
842.796	22752
842.933	22843
843.069	22801
843.206	22892
843.343	23033
843.479	22850
843.616	22908
843.752	22790
843.889	22713
844.025	22752
844.162	22622
844.298	22816
844.435	22603
844.571	22580
844.708	22664
844.844	22831
844.98	22771
845.117	22850
845.253	22584
845.389	22584
845.525	22645
845.661	22504
845.798	22409
845.934	22546
846.07	22451
846.206	22489
846.342	22493
846.478	22409
846.614	22181
846.75	22082
846.886	21953
847.022	22124
847.158	22177
847.294	22154
847.429	22135
847.565	22192
847.701	22363
847.837	21838
847.972	21724
848.108	21979
848.244	21899
848.379	21819
848.515	21663
848.65	21625
848.786	21728
848.921	21819
849.057	21751
849.192	21751
849.328	21739
849.463	21694
849.598	21637
849.734	21576
849.869	21561
850.004	21504
850.14	21576
850.275	21492
850.41	21428
850.545	21488
850.68	21485
850.815	21481
850.95	21595
851.085	21591
851.22	21591
851.355	21542
851.49	21526
851.625	21408
851.76	21431
851.895	21370
852.03	21351
852.165	21389
852.299	21530
852.434	21519
852.569	21496
852.703	21420
852.838	21606
852.973	21686
853.107	21667
853.242	21431
853.376	21298
853.511	21146
853.645	21291
853.78	21283
853.914	21374
854.048	21260
854.183	21336
854.317	21275
854.451	21515
854.585	21355
854.72	21252
854.854	21477
854.988	21298
855.122	21374
855.256	21116
855.39	21195
855.524	21401
855.658	21386
855.792	21317
855.926	21370
856.06	21348
856.194	21420
856.327	21313
856.461	21332
856.595	21226
856.729	21306
856.862	21412
856.996	21462
857.13	21370
857.263	21458
857.397	21359
857.53	21332
857.664	21344
857.797	21408
857.931	21332
858.064	21237
858.197	21408
858.331	21283
858.464	21245
858.597	21203
858.731	21344
858.864	21237
858.997	21294
859.13	21363
859.263	21287
859.396	21313
859.529	21355
859.662	21214
859.795	21252
859.928	21344
860.061	21500
860.194	21382
860.327	21481
860.46	21287
860.592	21447
860.725	21367
860.858	21298
860.99	21279
861.123	21233
861.256	21310
861.388	21348
861.521	22017
861.653	21256
861.786	21032
861.918	21108
862.05	21096
862.183	21298
862.315	21195
862.447	21283
862.58	21233
862.712	21058
862.844	20979
862.976	21150
863.108	21203
863.24	21401
863.372	20834
863.504	20967
863.636	20963
863.768	21127
863.9	20975
864.032	20979
864.164	20933
864.296	20967
864.428	21283
864.559	21184
864.691	20990
864.823	20960
864.954	20967
865.086	21028
865.217	20826
865.349	20842
865.48	20872
865.612	20918
865.743	20998
865.875	20921
866.006	20762
866.137	20849
866.269	20883
866.4	20891
866.531	20750
866.662	20746
866.793	20735
866.924	20842
867.055	20804
867.186	20804
867.317	20819
867.448	20765
867.579	20712
867.71	20819
867.841	20758
867.972	20800
868.103	20853
868.233	20853
868.364	20895
868.495	20982
868.625	20990
868.756	21195
868.886	20975
869.017	21108
869.147	21077
869.278	21218
869.408	20994
869.539	21161
869.669	21252
869.799	21275
869.929	21180
870.06	21264
870.19	21431
870.32	21321
870.45	21454
870.58	21386
870.71	21644
870.84	21633
870.97	21564
871.1	21583
871.23	21724
871.36	21618
871.489	21568
871.619	21705
871.749	21637
871.879	21739
872.008	21781
872.138	21747
872.267	21625
872.397	21591
872.526	21401
872.656	21485
872.785	21488
872.915	21675
873.044	21884
873.173	21724
873.303	21705
873.432	21686
873.561	21793
873.69	21686
873.819	21576
873.948	21759
874.077	21755
874.206	21709
874.335	21793
874.464	21918
874.593	21846
874.722	21892
874.851	22017
874.979	21819
875.108	21972
875.237	21922
875.365	21861
875.494	21968
875.623	22139
875.751	21888
875.88	21869
876.008	21968
876.136	22158
876.265	22352
876.393	22519
876.521	22356
876.65	22424
876.778	22424
876.906	22284
877.034	22306
877.162	22169
877.29	22257
877.418	22291
877.546	22291
877.674	22280
877.802	22249
877.93	22215
878.058	22196
878.185	22158
878.313	22223
878.441	22276
878.568	22135
878.696	22284
878.824	22276
878.951	22344
879.079	22512
879.206	22630
879.333	22443
879.461	22352
879.588	22276
879.715	22394
879.842	22569
879.97	22386
880.097	22135
880.224	22154
880.351	22147
880.478	22166
880.605	22131
880.732	22059
880.859	22242
880.986	22097
881.112	22055
881.239	21979
881.366	21854
881.493	21903
881.619	21587
881.746	21694
881.872	21698
881.999	21576
882.125	21504
882.252	21694
882.378	21747
882.505	21755
882.631	21572
882.757	21447
882.883	21382
883.01	21439
883.136	21298
883.262	21237
883.388	21249
883.514	21283
883.64	21374
883.766	21188
883.892	21192
884.018	21123
884.143	21298
884.269	21287
884.395	21085
884.52	20883
884.646	21043
884.772	20998
884.897	20921
885.023	21017
885.148	21043
885.274	21146
885.399	21154
885.524	20956
885.65	20975
885.775	21051
885.9	21032
886.025	21131
886.15	21112
886.275	20872
886.4	20960
886.525	21039
886.65	20979
886.775	20857
886.9	21081
887.025	21169
887.149	20975
887.274	20758
887.399	20800
887.523	20792
887.648	20693
887.773	20731
887.897	20937
888.021	20857
888.146	20815
888.27	20807
888.395	20960
888.519	20941
888.643	20788
888.767	20830
888.891	20701
889.015	20579
889.139	20629
889.263	20602
889.387	20716
889.511	20678
889.635	20674
889.759	20492
889.883	20556
890.006	20674
890.13	20549
890.254	20415
890.377	20495
890.501	20404
890.624	20294
890.748	20393
890.871	20237
890.995	20130
891.118	20100
891.241	20138
891.364	20088
891.488	20305
891.611	20202
891.734	20119
891.857	20206
891.98	20191
892.103	20077
892.226	20259
892.349	20024
892.471	19963
892.594	20058
892.717	20069
892.839	19963
892.962	20062
893.085	20073
893.207	20115
893.33	19902
893.452	19947
893.575	20130
893.697	20081
893.819	20233
893.941	20229
894.064	20187
894.186	20005
894.308	19921
894.43	20126
894.552	20164
894.674	20084
894.796	20050
894.918	19970
895.04	20073
895.161	20005
895.283	20206
895.405	19879
895.526	20084
895.648	20065
895.769	20183
895.891	20126
896.012	20088
896.134	20103
896.255	20084
896.376	19925
896.498	20088
896.619	20084
896.74	20115
896.861	20073
896.982	20320
897.103	20590
897.224	20370
897.345	20301
897.466	20317
897.587	20336
897.708	20347
897.828	20286
897.949	20199
898.07	20145
898.19	20252
898.311	20404
898.431	20278
898.552	20294
898.672	20393
898.792	20469
898.913	20309
899.033	20290
899.153	20058
899.273	19993
899.393	19951
899.513	20153
899.633	20035
899.753	20084
899.873	20016
899.993	20062
900.113	19959
900.232	20077
900.352	19982
900.472	19753
900.591	19822
900.711	19738
900.83	19715
900.95	19811
901.069	19887
901.189	19780
901.308	19559
901.427	19369
901.546	19335
901.665	19422
901.784	19396
901.904	19327
902.023	19126
902.141	18935
902.26	18958
902.379	19053
902.498	18837
902.617	18909
902.735	18901
902.854	18886
902.973	18856
903.091	18635
903.21	18593
903.328	18547
903.446	18509
903.565	18490
903.683	18414
903.801	18285
903.919	18357
904.038	18403
904.156	18194
904.274	18148
904.392	18015
904.51	18174
904.627	18121
904.745	18220
904.863	18163
904.981	17939
905.098	17794
905.216	17718
905.334	17939
905.451	17809
905.569	17802
905.686	17988
905.803	17783
905.921	17638
906.038	17676
906.155	17729
906.272	17520
906.389	17623
906.506	17402
906.623	17429
906.74	17341
906.857	17155
906.974	17292
907.091	17425
907.208	17493
907.324	17330
907.441	17299
907.557	17204
907.674	16999
907.79	16972
907.907	17014
908.023	17086
908.139	17105
908.256	16908
908.372	16923
908.488	16957
908.604	16824
908.72	16694
908.836	16805
908.952	16729
909.068	16889
909.184	16908
909.3	16763
909.415	16847
909.531	16831
909.647	16645
909.762	16618
909.878	16504
909.993	16500
910.108	16451
910.224	16356
910.339	16421
910.454	16360
910.57	16272
910.685	16310
910.8	16577
910.915	16409
911.03	16207
911.145	16124
911.259	16044
911.374	16105
911.489	16063
911.604	16051
911.718	15850
911.833	15934
911.947	15774
912.062	15698
912.176	15869
912.291	15922
912.405	15918
912.519	15994
912.633	15964
912.748	15819
912.862	15766
912.976	15667
913.09	15584
913.204	15633
913.318	15564
913.431	15679
913.545	15728
913.659	15812
913.772	15633
913.886	15545
914	15447
914.113	15545
914.226	15526
914.34	15530
914.453	15348
914.566	15488
914.68	15462
914.793	15321
914.906	15146
915.019	15157
915.132	15024
915.245	15020
915.358	15089
915.47	15055
915.583	15039
915.696	15150
915.809	15188
915.921	15226
916.034	15104
916.146	14967
916.259	15058
916.371	15028
916.483	14895
916.595	14883
916.708	15013
916.82	14861
916.932	14933
917.044	14861
917.156	14887
917.268	14731
917.38	14804
917.491	14587
917.603	14727
917.715	14845
917.826	14834
917.938	14720
918.049	14571
918.161	14769
918.272	14773
918.384	14716
918.495	14743
918.606	14552
918.717	14476
918.828	14571
918.939	14530
919.05	14389
919.161	14419
919.272	14286
919.383	14336
919.494	14530
919.604	14648
919.715	14537
919.826	14324
919.936	14457
920.047	14541
920.157	14415
920.267	14610
920.378	14450
920.488	14514
920.598	14678
920.708	14712
920.818	14655
920.928	14621
921.038	14716
921.148	14682
921.258	14507
921.368	14305
921.477	14271
921.587	14214
921.697	13959
921.806	14282
921.916	14123
922.025	13936
922.134	13852
922.244	13746
922.353	13913
922.462	13651
922.571	13616
922.68	13578
922.789	13457
922.898	13491
923.007	13312
923.116	13544
923.224	13388
923.333	13422
923.442	13324
923.55	13324
923.659	13312
923.767	13381
923.876	13304
923.984	13297
924.092	13190
924.201	13209
924.309	13198
924.417	13179
924.525	13114
924.633	13202
924.741	13894
924.849	12943
924.956	13080
925.064	13027
925.172	12806
925.279	12833
925.387	12951
925.494	12890
925.602	12993
925.709	13008
925.816	12791
925.924	12878
926.031	12897
926.138	12840
926.245	12852
926.352	12658
926.459	12875
926.566	12954
926.673	12696
926.779	12684
926.886	12578
926.993	12502
927.099	12547
927.206	12475
927.312	12388
927.419	12445
927.525	12433
927.631	12517
927.737	12441
927.843	12346
927.95	12144
928.056	12254
928.162	12216
928.267	12247
928.373	12996
928.479	12437
928.585	12068
928.69	12220
928.796	12315
928.901	12095
929.007	11988
929.112	12228
929.218	12076
929.323	12072
929.428	11942
929.533	12197
929.638	11912
929.743	11866
929.848	11988
929.953	11969
930.058	11824
930.163	11718
930.267	11722
930.372	11901
930.477	11745
930.581	11927
930.685	11813
930.79	11570
930.894	11707
930.998	11619
931.103	11726
931.207	11296
931.311	11280
931.415	11193
931.519	11037
931.623	10957
