Data from test_V78500241_2223.txt Node
Date: Fri Mar 25 15:57:12 CST 2022
User: usil
Spectrometer: V785-0024
Trigger mode: 0
Integration Time (sec): 4.000000E-1
Scans to average: 1
Nonlinearity correction enabled: false
Boxcar width: 0
Storing dark spectrum: false
XAxis mode: Wavelengths
Number of Pixels in Spectrum: 1024
>>>>>Begin Spectral Data<<<<<
801.071	29102
801.214	29128
801.356	28976
801.499	28862
801.641	28691
801.783	28847
801.926	28630
802.068	28744
802.211	28778
802.353	28710
802.496	28470
802.638	28459
802.78	28440
802.923	28318
803.065	28230
803.208	28295
803.35	28401
803.492	28618
803.635	28706
803.777	28630
803.919	28645
804.061	28995
804.204	28702
804.346	28523
804.488	28675
804.63	28653
804.773	28664
804.915	28858
805.057	28873
805.199	28694
805.341	28687
805.483	28904
805.626	28866
805.768	28786
805.91	28862
806.052	28774
806.194	28885
806.336	28923
806.478	28885
806.62	29056
806.762	29094
806.904	29273
807.046	29448
807.188	29277
807.33	29292
807.472	29307
807.614	29261
807.756	29284
807.898	29170
808.04	29117
808.182	29143
808.324	29246
808.465	29387
808.607	29471
808.749	29554
808.891	29592
809.033	29767
809.174	29649
809.316	29501
809.458	29554
809.6	29467
809.741	29707
809.883	29638
810.025	29790
810.166	29851
810.308	29756
810.45	29802
810.591	29805
810.733	29649
810.875	29581
811.016	29459
811.158	29615
811.299	29691
811.441	29729
811.582	29767
811.724	29653
811.865	29623
812.007	29589
812.148	29551
812.29	29672
812.431	29786
812.573	30003
812.714	30076
812.855	30072
812.997	30353
813.138	30361
813.279	30213
813.421	30125
813.562	30011
813.703	29946
813.845	29767
813.986	29619
814.127	29455
814.268	29410
814.41	29307
814.551	29353
814.692	29406
814.833	29250
814.974	29280
815.115	29467
815.256	29223
815.397	29280
815.539	29140
815.68	29140
815.821	29136
815.962	29200
816.103	29098
816.244	29124
816.385	28972
816.526	28801
816.666	28767
816.807	28755
816.948	28759
817.089	28679
817.23	28649
817.371	28683
817.512	28710
817.653	28626
817.793	28516
817.934	28664
818.075	28592
818.216	28687
818.356	28634
818.497	28523
818.638	28200
818.778	28375
818.919	28352
819.06	28424
819.2	28470
819.341	28740
819.481	28592
819.622	28896
819.762	28919
819.903	28953
820.043	28801
820.184	28790
820.324	28816
820.465	29098
820.605	28873
820.746	28824
820.886	28596
821.026	28729
821.167	28797
821.307	28843
821.447	28702
821.588	28592
821.728	28466
821.868	28405
822.008	28306
822.149	28150
822.289	28082
822.429	27816
822.569	27865
822.709	27808
822.849	27709
822.99	27747
823.13	27644
823.27	27530
823.41	27663
823.55	27363
823.69	27568
823.83	27534
823.97	27386
824.11	27355
824.25	27260
824.389	27188
824.529	27439
824.669	27310
824.809	27526
824.949	27405
825.089	27447
825.228	27332
825.368	27074
825.508	27142
825.648	27135
825.787	27192
825.927	27291
826.067	27142
826.206	27062
826.346	27180
826.485	27256
826.625	27081
826.765	27359
826.904	27226
827.044	26998
827.183	26956
827.323	26826
827.462	27066
827.601	26937
827.741	26925
827.88	26925
828.02	26864
828.159	26807
828.298	26842
828.437	26883
828.577	26804
828.716	26895
828.855	26800
828.994	26556
829.134	26549
829.273	26541
829.412	26659
829.551	26549
829.69	26693
829.829	26686
829.968	26746
830.107	26781
830.246	26739
830.385	26533
830.524	26514
830.663	26393
830.802	26381
830.941	26180
831.08	26206
831.219	26317
831.357	26199
831.496	26442
831.635	26191
831.774	26134
831.913	26081
832.051	26008
832.19	26081
832.329	26054
832.467	25837
832.606	25894
832.744	25913
832.883	25906
833.022	25807
833.16	25761
833.299	25788
833.437	25860
833.576	25982
833.714	25830
833.852	25921
833.991	25966
834.129	25940
834.267	25909
834.406	25883
834.544	25966
834.682	25940
834.821	25883
834.959	26195
835.097	25883
835.235	25925
835.373	25993
835.511	26062
835.65	25803
835.788	25677
835.926	25601
836.064	25647
836.202	25597
836.34	25734
836.478	25841
836.615	25563
836.753	25750
836.891	25928
837.029	25753
837.167	25719
837.305	25677
837.443	25559
837.58	25552
837.718	25556
837.856	25563
837.993	25510
838.131	25605
838.269	25324
838.406	25434
838.544	25415
838.681	25171
838.819	25293
838.956	24939
839.094	25057
839.231	25110
839.369	25217
839.506	25327
839.643	25278
839.781	25027
839.918	24947
840.055	25080
840.193	25004
840.33	24890
840.467	24924
840.604	25072
840.742	25221
840.879	24787
841.016	24844
841.153	24875
841.29	24977
841.427	24916
841.564	24966
841.701	24867
841.838	24844
841.975	24734
842.112	24935
842.249	24852
842.385	24604
842.522	24810
842.659	24654
842.796	24574
842.933	24646
843.069	24525
843.206	24593
843.343	24802
843.479	24688
843.616	24673
843.752	24334
843.889	24563
844.025	24528
844.162	24528
844.298	24563
844.435	24471
844.571	24429
844.708	24388
844.844	24547
844.98	24639
845.117	24536
845.253	24350
845.389	24270
845.525	24319
845.661	24197
845.798	24038
845.934	24144
846.07	24243
846.206	24197
846.342	24171
846.478	24121
846.614	23958
846.75	23859
846.886	23771
847.022	23954
847.158	23851
847.294	23802
847.429	23874
847.565	23931
847.701	24102
847.837	23703
847.972	23570
848.108	23672
848.244	23592
848.379	23528
848.515	23478
848.65	23531
848.786	23600
848.921	23490
849.057	23589
849.192	23646
849.328	23414
849.463	23509
849.598	23398
849.734	23280
849.869	23330
850.004	23258
850.14	23311
850.275	23239
850.41	23185
850.545	23166
850.68	23223
850.815	23189
850.95	23242
851.085	23455
851.22	23296
851.355	23143
851.49	23216
851.625	23155
851.76	23265
851.895	23212
852.03	23140
852.165	23227
852.299	23200
852.434	23223
852.569	23239
852.703	23326
852.838	23311
852.973	23372
853.107	23398
853.242	23147
853.376	23098
853.511	22999
853.645	23075
853.78	23231
853.914	23162
854.048	23075
854.183	22850
854.317	23037
854.451	23204
854.585	22961
854.72	23075
854.854	23147
854.988	22946
855.122	23155
855.256	22953
855.39	22889
855.524	23067
855.658	23105
855.792	23166
855.926	23105
856.06	23079
856.194	23136
856.327	23052
856.461	22980
856.595	23067
856.729	23064
856.862	23140
856.996	23018
857.13	23132
857.263	23197
857.397	23071
857.53	23044
857.664	23018
857.797	23246
857.931	23052
858.064	23064
858.197	23105
858.331	22896
858.464	23071
858.597	22904
858.731	22995
858.864	23018
858.997	23029
859.13	23003
859.263	23075
859.396	23033
859.529	22968
859.662	23041
859.795	22976
859.928	22957
860.061	23258
860.194	23288
860.327	23075
860.46	23136
860.592	23159
860.725	23235
860.858	23121
860.99	23143
861.123	22961
861.256	22968
861.388	23079
861.521	23767
861.653	22828
861.786	22858
861.918	22980
862.05	22873
862.183	22911
862.315	23064
862.447	23071
862.58	23006
862.712	22774
862.844	22653
862.976	22850
863.108	22687
863.24	23242
863.372	22736
863.504	22790
863.636	22637
863.768	22710
863.9	22778
864.032	22748
864.164	22710
864.296	22755
864.428	22820
864.559	22733
864.691	22824
864.823	22672
864.954	22645
865.086	22725
865.217	22687
865.349	22554
865.48	22729
865.612	22634
865.743	22858
865.875	22573
866.006	22577
866.137	22637
866.269	22675
866.4	22500
866.531	22512
866.662	22489
866.793	22417
866.924	22626
867.055	22485
867.186	22554
867.317	22584
867.448	22493
867.579	22512
867.71	22443
867.841	22500
867.972	22481
868.103	22546
868.233	22538
868.364	22519
868.495	22588
868.625	22649
868.756	22839
868.886	22630
869.017	22869
869.147	22847
869.278	22885
869.408	22987
869.539	22656
869.669	22866
869.799	22847
869.929	22839
870.06	22835
870.19	23124
870.32	23143
870.45	23140
870.58	23117
870.71	23258
870.84	23315
870.97	23174
871.1	23113
871.23	23318
871.36	23440
871.489	23311
871.619	23440
871.749	23391
871.879	23398
872.008	23467
872.138	23471
872.267	23505
872.397	23250
872.526	23117
872.656	23296
872.785	23140
872.915	23360
873.044	23345
873.173	23524
873.303	23391
873.432	23356
873.561	23509
873.69	23345
873.819	23383
873.948	23467
874.077	23501
874.206	23185
874.335	23387
874.464	23528
874.593	23627
874.722	23581
874.851	23691
874.979	23767
875.108	23722
875.237	23562
875.365	23429
875.494	23539
875.623	23756
875.751	23558
875.88	23604
876.008	23756
876.136	23824
876.265	23977
876.393	24178
876.521	24133
876.65	23980
876.778	24038
876.906	23923
877.034	23935
877.162	23851
877.29	23798
877.418	23999
877.546	23996
877.674	23946
877.802	23999
877.93	23893
878.058	23927
878.185	23878
878.313	23809
878.441	23893
878.568	23684
878.696	23920
878.824	23901
878.951	23973
879.079	24167
879.206	24258
879.333	24034
879.461	23840
879.588	24038
879.715	24114
879.842	24201
879.97	23973
880.097	23843
880.224	23646
880.351	23874
880.478	23703
880.605	23638
880.732	23745
880.859	23965
880.986	23718
881.112	23760
881.239	23577
881.366	23501
881.493	23440
881.619	23387
881.746	23315
881.872	23174
881.999	23273
882.125	23223
882.252	23322
882.378	23086
882.505	23307
882.631	23075
882.757	22961
882.883	23025
883.01	22930
883.136	22938
883.262	22801
883.388	22820
883.514	23079
883.64	22995
883.766	22763
883.892	22885
884.018	22748
884.143	22812
884.269	23067
884.395	22656
884.52	22561
884.646	22763
884.772	22554
884.897	22573
885.023	22755
885.148	22622
885.274	22793
885.399	22717
885.524	22557
885.65	22694
885.775	22653
885.9	22512
886.025	22687
886.15	22645
886.275	22557
886.4	22546
886.525	22626
886.65	22443
886.775	22546
886.9	22809
887.025	22759
887.149	22611
887.274	22455
887.399	22447
887.523	22405
887.648	22344
887.773	22204
887.897	22371
888.021	22402
888.146	22249
888.27	22421
888.395	22470
888.519	22394
888.643	22379
888.767	22333
888.891	22238
889.015	22128
889.139	22242
889.263	22249
889.387	22249
889.511	22371
889.635	22291
889.759	22078
889.883	22112
890.006	22067
890.13	22234
890.254	22135
890.377	22181
890.501	21819
890.624	21793
890.748	21899
890.871	21701
890.995	21728
891.118	21656
891.241	21675
891.364	21576
891.488	21854
891.611	21709
891.734	21610
891.857	21762
891.98	21614
892.103	21660
892.226	21762
892.349	21587
892.471	21401
892.594	21439
892.717	21523
892.839	21481
892.962	21511
893.085	21675
893.207	21557
893.33	21469
893.452	21610
893.575	21637
893.697	21545
893.819	21656
893.941	21808
894.064	21663
894.186	21595
894.308	21492
894.43	21614
894.552	21675
894.674	21644
894.796	21500
894.918	21496
895.04	21515
895.161	21583
895.283	21557
895.405	21450
895.526	21515
895.648	21485
895.769	21538
895.891	21492
896.012	21690
896.134	21500
896.255	21679
896.376	21496
896.498	21511
896.619	21606
896.74	21523
896.861	21466
896.982	21827
897.103	22082
897.224	21766
897.345	21827
897.466	21564
897.587	21759
897.708	21804
897.828	21846
897.949	21652
898.07	21450
898.19	21690
898.311	21770
898.431	21641
898.552	21675
898.672	21819
898.792	21789
898.913	21705
899.033	21614
899.153	21576
899.273	21492
899.393	21272
899.513	21485
899.633	21477
899.753	21504
899.873	21420
899.993	21545
900.113	21348
900.232	21393
900.352	21302
900.472	21272
900.591	21173
900.711	21161
900.83	21207
900.95	21184
901.069	21291
901.189	21199
901.308	20868
901.427	20861
901.546	20746
901.665	20727
901.784	20720
901.904	20606
902.023	20518
902.141	20389
902.26	20225
902.379	20408
902.498	20259
902.617	20107
902.735	20423
902.854	20142
902.973	20244
903.091	19993
903.21	20005
903.328	19818
903.446	19955
903.565	19788
903.683	19674
903.801	19563
903.919	19681
904.038	19616
904.156	19373
904.274	19518
904.392	19453
904.51	19460
904.627	19411
904.745	19483
904.863	19521
904.981	19354
905.098	19164
905.216	19183
905.334	19228
905.451	19183
905.569	19046
905.686	19080
905.803	19042
905.921	18871
906.038	19053
906.155	19027
906.272	18829
906.389	18814
906.506	18681
906.623	18677
906.74	18616
906.857	18509
906.974	18547
907.091	18890
907.208	18684
907.324	18559
907.441	18555
907.557	18395
907.674	18361
907.79	18429
907.907	18437
908.023	18521
908.139	18369
908.256	18334
908.372	18281
908.488	18205
908.604	18148
908.72	17988
908.836	18026
908.952	18068
909.068	18095
909.184	18194
909.3	18060
909.415	18171
909.531	18060
909.647	17710
909.762	17798
909.878	17638
909.993	17790
910.108	17733
910.224	17554
910.339	17608
910.454	17619
910.57	17615
910.685	17516
910.8	17794
910.915	17726
911.03	17551
911.145	17334
911.259	17337
911.374	17296
911.489	17296
911.604	17265
911.718	17117
911.833	16919
911.947	17003
912.062	16869
912.176	17071
912.291	17140
912.405	17090
912.519	17143
912.633	17299
912.748	17083
912.862	16965
912.976	16919
913.09	16698
913.204	16786
913.318	16930
913.431	16953
913.545	17029
913.659	16980
913.772	16873
913.886	16736
914	16607
914.113	16656
914.226	16748
914.34	16645
914.453	16512
914.566	16729
914.68	16493
914.793	16626
914.906	16291
915.019	16246
915.132	16169
915.245	16204
915.358	16226
915.47	16173
915.583	16207
915.696	16188
915.809	16352
915.921	16348
916.034	16131
916.146	16105
916.259	16124
916.371	16173
916.483	16150
916.595	16029
916.708	16055
916.82	16116
916.932	15975
917.044	15975
917.156	16017
917.268	15781
917.38	15922
917.491	15880
917.603	15884
917.715	15895
917.826	15895
917.938	15804
918.049	15656
918.161	15679
918.272	15888
918.384	15930
918.495	15762
918.606	15603
918.717	15488
918.828	15603
918.939	15568
919.05	15576
919.161	15622
919.272	15344
919.383	15397
919.494	15572
919.604	15743
919.715	15591
919.826	15477
919.936	15450
920.047	15576
920.157	15606
920.267	15682
920.378	15507
920.488	15393
920.598	15667
920.708	15816
920.818	15580
920.928	15606
921.038	15766
921.148	15698
921.258	15469
921.368	15359
921.477	15142
921.587	15199
921.697	15169
921.806	15272
921.916	15058
922.025	14876
922.134	14842
922.244	14845
922.353	14887
922.462	14750
922.571	14617
922.68	14442
922.789	14484
922.898	14571
923.007	14454
923.116	14583
923.224	14480
923.333	14434
923.442	14366
923.55	14320
923.659	14396
923.767	14408
923.876	14218
923.984	14275
924.092	14176
924.201	14244
924.309	14153
924.417	14157
924.525	14187
924.633	14081
924.741	14880
924.849	13936
924.956	14126
925.064	13928
925.172	13871
925.279	13822
925.387	13917
925.494	14043
925.602	13856
925.709	13879
925.816	13769
925.924	13738
926.031	13811
926.138	13746
926.245	13814
926.352	13750
926.459	13860
926.566	13803
926.673	13666
926.779	13681
926.886	13525
926.993	13392
927.099	13491
927.206	13274
927.312	13362
927.419	13510
927.525	13392
927.631	13388
927.737	13289
927.843	13270
927.95	13221
928.056	13152
928.162	13129
928.267	13179
928.373	13928
928.479	13213
928.585	13069
928.69	13171
928.796	13129
928.901	13107
929.007	12817
929.112	12913
929.218	12989
929.323	12840
929.428	12954
929.533	13053
929.638	12878
929.743	12920
929.848	12882
929.953	12776
930.058	12688
930.163	12502
930.267	12620
930.372	12669
930.477	12433
930.581	12783
930.685	12494
930.79	12376
930.894	12521
930.998	12433
931.103	12483
931.207	12163
931.311	12110
931.415	12038
931.519	11935
931.623	11809
