Data from test_V78500241_355.txt Node
Date: Fri Mar 25 15:44:15 CST 2022
User: usil
Spectrometer: V785-0024
Trigger mode: 0
Integration Time (sec): 4.000000E-1
Scans to average: 1
Nonlinearity correction enabled: false
Boxcar width: 0
Storing dark spectrum: false
XAxis mode: Wavelengths
Number of Pixels in Spectrum: 1024
>>>>>Begin Spectral Data<<<<<
801.071	29684
801.214	29657
801.356	29490
801.499	29539
801.641	29417
801.783	29277
801.926	29630
802.068	29455
802.211	29242
802.353	29337
802.496	28987
802.638	28980
802.78	29193
802.923	29143
803.065	28987
803.208	29056
803.35	29113
803.492	29220
803.635	29250
803.777	29193
803.919	29452
804.061	29535
804.204	29326
804.346	29330
804.488	29220
804.63	29307
804.773	29056
804.915	29273
805.057	29414
805.199	29307
805.341	29379
805.483	29303
805.626	29387
805.768	29296
805.91	29387
806.052	29296
806.194	29379
806.336	29691
806.478	29528
806.62	29455
806.762	29535
806.904	29611
807.046	29999
807.188	29859
807.33	29897
807.472	29760
807.614	29847
807.756	29733
807.898	29646
808.04	29566
808.182	29512
808.324	29790
808.465	29638
808.607	29783
808.749	30038
808.891	30117
809.033	30194
809.174	30247
809.316	30068
809.458	30167
809.6	30034
809.741	30133
809.883	30239
810.025	30502
810.166	30273
810.308	30414
810.45	30498
810.591	30410
810.733	30209
810.875	29969
811.016	30030
811.158	29916
811.299	30186
811.441	30380
811.582	30174
811.724	29996
811.865	30129
812.007	30018
812.148	29958
812.29	29931
812.431	30308
812.573	30467
812.714	30517
812.855	30654
812.997	30677
813.138	30867
813.279	30650
813.421	30715
813.562	30498
813.703	30372
813.845	30247
813.986	30030
814.127	29832
814.268	29805
814.41	29615
814.551	29657
814.692	29817
814.833	29604
814.974	29684
815.115	29821
815.256	29642
815.397	29520
815.539	29619
815.68	29551
815.821	29410
815.962	29558
816.103	29539
816.244	29398
816.385	29444
816.526	29242
816.666	29128
816.807	29018
816.948	29151
817.089	29265
817.23	29094
817.371	29075
817.512	29052
817.653	28953
817.793	29067
817.934	28904
818.075	28927
818.216	29060
818.356	28866
818.497	28999
818.638	28885
818.778	28793
818.919	28672
819.06	28744
819.2	28862
819.341	28911
819.481	28953
819.622	29113
819.762	29220
819.903	29227
820.043	29079
820.184	29060
820.324	29132
820.465	29090
820.605	29155
820.746	29022
820.886	28953
821.026	29056
821.167	29071
821.307	29200
821.447	28927
821.588	28930
821.728	28793
821.868	28729
822.008	28344
822.149	28447
822.289	28284
822.429	28211
822.569	28006
822.709	27945
822.849	27911
822.99	27949
823.13	27846
823.27	27903
823.41	27690
823.55	27652
823.69	27724
823.83	27717
823.97	27648
824.11	27500
824.25	27477
824.389	27675
824.529	27534
824.669	27466
824.809	27591
824.949	27618
825.089	27545
825.228	27606
825.368	27519
825.508	27317
825.648	27424
825.787	27382
825.927	27378
826.067	27336
826.206	27329
826.346	27469
826.485	27393
826.625	27199
826.765	27355
826.904	27431
827.044	27036
827.183	27195
827.323	26960
827.462	27150
827.601	27161
827.741	27180
827.88	27062
828.02	26842
828.159	26937
828.298	26975
828.437	26925
828.577	26895
828.716	27070
828.855	26921
828.994	26785
829.134	26716
829.273	26686
829.412	26724
829.551	26598
829.69	26594
829.829	26720
829.968	26773
830.107	26804
830.246	26716
830.385	26625
830.524	26590
830.663	26594
830.802	26419
830.941	26221
831.08	26267
831.219	26377
831.357	26423
831.496	26476
831.635	26309
831.774	26195
831.913	26183
832.051	26035
832.19	26092
832.329	26092
832.467	26031
832.606	25807
832.744	25826
832.883	25978
833.022	25845
833.16	25966
833.299	25997
833.437	26005
833.576	26027
833.714	25913
833.852	25944
833.991	26012
834.129	25928
834.267	25917
834.406	25989
834.544	25944
834.682	25845
834.821	25883
834.959	26039
835.097	25955
835.235	25875
835.373	25906
835.511	25833
835.65	25750
835.788	25696
835.926	25639
836.064	25502
836.202	25693
836.34	25696
836.478	25826
836.615	25769
836.753	25738
836.891	25788
837.029	25807
837.167	25715
837.305	25544
837.443	25731
837.58	25575
837.718	25632
837.856	25643
837.993	25411
838.131	25525
838.269	25403
838.406	25415
838.544	25274
838.681	25228
838.819	25095
838.956	25042
839.094	24943
839.231	24958
839.369	25217
839.506	25434
839.643	25255
839.781	24890
839.918	24916
840.055	24992
840.193	24947
840.33	24840
840.467	24814
840.604	24886
840.742	25183
840.879	24749
841.016	24749
841.153	24764
841.29	24973
841.427	24798
841.564	24985
841.701	24840
841.838	24776
841.975	24696
842.112	24696
842.249	24669
842.385	24623
842.522	24669
842.659	24639
842.796	24635
842.933	24498
843.069	24639
843.206	24460
843.343	24703
843.479	24479
843.616	24479
843.752	24300
843.889	24311
844.025	24281
844.162	24251
844.298	24414
844.435	24247
844.571	24452
844.708	24380
844.844	24361
844.98	24460
845.117	24407
845.253	24224
845.389	24216
845.525	24178
845.661	24213
845.798	23984
845.934	24201
846.07	23988
846.206	23996
846.342	24148
846.478	24057
846.614	23855
846.75	23691
846.886	23668
847.022	23741
847.158	23600
847.294	23745
847.429	23745
847.565	23619
847.701	23904
847.837	23478
847.972	23391
848.108	23455
848.244	23463
848.379	23372
848.515	23216
848.65	23334
848.786	23216
848.921	23208
849.057	23463
849.192	23383
849.328	23398
849.463	23360
849.598	23349
849.734	23242
849.869	23067
850.004	22984
850.14	23079
850.275	22987
850.41	23075
850.545	23041
850.68	22991
850.815	23090
850.95	23086
851.085	23265
851.22	23227
851.355	23003
851.49	23010
851.625	22949
851.76	22999
851.895	22987
852.03	22972
852.165	23117
852.299	23189
852.434	23003
852.569	23147
852.703	23033
852.838	23113
852.973	23124
853.107	23094
853.242	23022
853.376	22942
853.511	22717
853.645	22752
853.78	22995
853.914	22881
854.048	22869
854.183	22885
854.317	22862
854.451	22957
854.585	22885
854.72	22850
854.854	22885
854.988	22771
855.122	22835
855.256	22748
855.39	22877
855.524	22866
855.658	22790
855.792	22980
855.926	22835
856.06	22850
856.194	22968
856.327	22771
856.461	22763
856.595	22774
856.729	22904
856.862	22904
856.996	22892
857.13	22923
857.263	23003
857.397	22965
857.53	22885
857.664	22858
857.797	22968
857.931	23006
858.064	22831
858.197	22946
858.331	22858
858.464	22809
858.597	22786
858.731	22797
858.864	22740
858.997	22866
859.13	22858
859.263	22908
859.396	22927
859.529	22809
859.662	22683
859.795	22835
859.928	22843
860.061	23044
860.194	22965
860.327	22858
860.46	22919
860.592	22957
860.725	22953
860.858	23048
860.99	22831
861.123	22698
861.256	22839
861.388	22809
861.521	23505
861.653	22866
861.786	22664
861.918	22664
862.05	22664
862.183	22911
862.315	22710
862.447	22847
862.58	22702
862.712	22577
862.844	22557
862.976	22698
863.108	22596
863.24	22991
863.372	22470
863.504	22455
863.636	22432
863.768	22557
863.9	22569
864.032	22440
864.164	22485
864.296	22569
864.428	22687
864.559	22603
864.691	22516
864.823	22531
864.954	22493
865.086	22554
865.217	22455
865.349	22287
865.48	22363
865.612	22375
865.743	22523
865.875	22322
866.006	22421
866.137	22451
866.269	22344
866.4	22268
866.531	22303
866.662	22371
866.793	22295
866.924	22306
867.055	22325
867.186	22276
867.317	22360
867.448	22105
867.579	22299
867.71	22234
867.841	22230
867.972	22318
868.103	22367
868.233	22272
868.364	22268
868.495	22466
868.625	22618
868.756	22561
868.886	22516
869.017	22611
869.147	22752
869.278	22679
869.408	22580
869.539	22474
869.669	22622
869.799	22599
869.929	22641
870.06	22603
870.19	22896
870.32	22736
870.45	22835
870.58	22938
870.71	23029
870.84	23006
870.97	22949
871.1	22885
871.23	23113
871.36	23143
871.489	22862
871.619	23121
871.749	23121
871.879	23246
872.008	23162
872.138	23170
872.267	23151
872.397	23025
872.526	22987
872.656	23052
872.785	23022
872.915	23067
873.044	23166
873.173	23155
873.303	23151
873.432	23181
873.561	23185
873.69	23178
873.819	23212
873.948	23140
874.077	23113
874.206	23083
874.335	23185
874.464	23140
874.593	23353
874.722	23330
874.851	23395
874.979	23353
875.108	23356
875.237	23299
875.365	23349
875.494	23311
875.623	23455
875.751	23254
875.88	23395
876.008	23436
876.136	23608
876.265	23935
876.393	23916
876.521	23752
876.65	23775
876.778	23828
876.906	23661
877.034	23672
877.162	23756
877.29	23562
877.418	23817
877.546	23710
877.674	23668
877.802	23699
877.93	23512
878.058	23657
878.185	23680
878.313	23714
878.441	23619
878.568	23509
878.696	23577
878.824	23726
878.951	23878
879.079	23851
879.206	23965
879.333	23958
879.461	23756
879.588	23756
879.715	23847
879.842	23923
879.97	23756
880.097	23524
880.224	23497
880.351	23501
880.478	23512
880.605	23417
880.732	23467
880.859	23676
880.986	23493
881.112	23592
881.239	23402
881.366	23231
881.493	23197
881.619	23094
881.746	23086
881.872	23174
881.999	23025
882.125	22968
882.252	22980
882.378	23109
882.505	23155
882.631	22839
882.757	22721
882.883	22733
883.01	22744
883.136	22786
883.262	22664
883.388	22542
883.514	22812
883.64	22782
883.766	22641
883.892	22481
884.018	22523
884.143	22596
884.269	22561
884.395	22573
884.52	22428
884.646	22379
884.772	22390
884.897	22253
885.023	22398
885.148	22462
885.274	22516
885.399	22588
885.524	22394
885.65	22291
885.775	22386
885.9	22337
886.025	22421
886.15	22542
886.275	22348
886.4	22249
886.525	22318
886.65	22295
886.775	22192
886.9	22398
887.025	22554
887.149	22413
887.274	22196
887.399	22238
887.523	22204
887.648	22032
887.773	22116
887.897	22211
888.021	22105
888.146	22017
888.27	22078
888.395	22322
888.519	22154
888.643	22131
888.767	22196
888.891	22032
889.015	21907
889.139	21994
889.263	21934
889.387	21975
889.511	22124
889.635	21994
889.759	21797
889.883	21876
890.006	21880
890.13	21922
890.254	21873
890.377	21759
890.501	21648
890.624	21606
890.748	21599
890.871	21458
890.995	21332
891.118	21462
891.241	21401
891.364	21477
891.488	21553
891.611	21485
891.734	21393
891.857	21443
891.98	21481
892.103	21481
892.226	21492
892.349	21393
892.471	21268
892.594	21389
892.717	21348
892.839	21302
892.962	21351
893.085	21408
893.207	21203
893.33	21173
893.452	21173
893.575	21393
893.697	21310
893.819	21519
893.941	21469
894.064	21363
894.186	21329
894.308	21150
894.43	21450
894.552	21507
894.674	21256
894.796	21211
894.918	21294
895.04	21298
895.161	21443
895.283	21291
895.405	21089
895.526	21294
895.648	21268
895.769	21207
895.891	21420
896.012	21447
896.134	21363
896.255	21310
896.376	21268
896.498	21378
896.619	21359
896.74	21283
896.861	21412
896.982	21686
897.103	21747
897.224	21545
897.345	21618
897.466	21454
897.587	21542
897.708	21572
897.828	21595
897.949	21496
898.07	21374
898.19	21359
898.311	21439
898.431	21488
898.552	21561
898.672	21671
898.792	21561
898.913	21424
899.033	21233
899.153	21264
899.273	21100
899.393	21146
899.513	21298
899.633	21230
899.753	21268
899.873	21165
899.993	21256
900.113	21157
900.232	20979
900.352	21108
900.472	20929
900.591	20872
900.711	20906
900.83	20849
900.95	21070
901.069	21085
901.189	20864
901.308	20640
901.427	20602
901.546	20442
901.665	20568
901.784	20621
901.904	20415
902.023	20286
902.141	20046
902.26	20039
902.379	19997
902.498	20016
902.617	20008
902.735	20084
902.854	20020
902.973	19959
903.091	19742
903.21	19597
903.328	19643
903.446	19704
903.565	19502
903.683	19430
903.801	19343
903.919	19377
904.038	19365
904.156	19240
904.274	19377
904.392	19190
904.51	19240
904.627	19202
904.745	19282
904.863	19202
904.981	19095
905.098	18886
905.216	18913
905.334	18916
905.451	18802
905.569	18916
905.686	18947
905.803	18886
905.921	18650
906.038	18669
906.155	18639
906.272	18597
906.389	18585
906.506	18372
906.623	18460
906.74	18513
906.857	18235
906.974	18270
907.091	18490
907.208	18661
907.324	18479
907.441	18330
907.557	18121
907.674	18129
907.79	18034
907.907	18140
908.023	18163
908.139	18076
908.256	18064
908.372	17904
908.488	17980
908.604	17843
908.72	17684
908.836	17764
908.952	17771
909.068	17661
909.184	17794
909.3	17882
909.415	17805
909.531	17805
909.647	17463
909.762	17490
909.878	17467
909.993	17444
910.108	17414
910.224	17349
910.339	17353
910.454	17280
910.57	17273
910.685	17155
910.8	17448
910.915	17372
911.03	17223
911.145	17022
911.259	16968
911.374	17075
911.489	16942
911.604	16968
911.718	16744
911.833	16801
911.947	16656
912.062	16630
912.176	16786
912.291	16809
912.405	16717
912.519	16968
912.633	16923
912.748	16805
912.862	16679
912.976	16489
913.09	16546
913.204	16550
913.318	16588
913.431	16675
913.545	16675
913.659	16603
913.772	16421
913.886	16447
914	16280
914.113	16504
914.226	16436
914.34	16375
914.453	16257
914.566	16459
914.68	16162
914.793	16253
914.906	16048
915.019	15972
915.132	16017
915.245	15800
915.358	15994
915.47	16021
915.583	15884
915.696	15991
915.809	16048
915.921	16017
916.034	15861
916.146	15747
916.259	15713
916.371	15983
916.483	16021
916.595	15747
916.708	15728
916.82	15816
916.932	15671
917.044	15705
917.156	15606
917.268	15572
917.38	15568
917.491	15557
917.603	15564
917.715	15591
917.826	15576
917.938	15435
918.049	15378
918.161	15504
918.272	15660
918.384	15545
918.495	15420
918.606	15291
918.717	15260
918.828	15325
918.939	15279
919.05	15173
919.161	15241
919.272	15176
919.383	15116
919.494	15226
919.604	15408
919.715	15146
919.826	15218
919.936	15184
920.047	15195
920.157	15218
920.267	15420
920.378	15173
920.488	15237
920.598	15374
920.708	15568
920.818	15294
920.928	15416
921.038	15526
921.148	15424
921.258	15036
921.368	15047
921.477	14990
921.587	14891
921.697	14819
921.806	14941
921.916	14708
922.025	14579
922.134	14564
922.244	14564
922.353	14693
922.462	14495
922.571	14385
922.68	14237
922.789	14263
922.898	14176
923.007	14138
923.116	14278
923.224	14123
923.333	14164
923.442	13974
923.55	13974
923.659	14039
923.767	14115
923.876	13989
923.984	13970
924.092	14046
924.201	14005
924.309	14012
924.417	13955
924.525	13906
924.633	13791
924.741	14693
924.849	13761
924.956	13753
925.064	13719
925.172	13567
925.279	13677
925.387	13662
925.494	13544
925.602	13693
925.709	13597
925.816	13483
925.924	13556
926.031	13544
926.138	13613
926.245	13548
926.352	13430
926.459	13491
926.566	13624
926.673	13468
926.779	13282
926.886	13308
926.993	13168
927.099	13232
927.206	13145
927.312	13053
927.419	13133
927.525	13088
927.631	13129
927.737	13133
927.843	12962
927.95	12878
928.056	13046
928.162	12962
928.267	13004
928.373	13464
928.479	12977
928.585	12783
928.69	12928
928.796	12962
928.901	12886
929.007	12658
929.112	12768
929.218	12757
929.323	12631
929.428	12642
929.533	12852
929.638	12593
929.743	12639
929.848	12658
929.953	12589
930.058	12498
930.163	12353
930.267	12338
930.372	12437
930.477	12300
930.581	12525
930.685	12399
930.79	12213
930.894	12224
930.998	12197
931.103	12281
931.207	11923
931.311	11847
931.415	11824
931.519	11562
931.623	11516
