Data from test_V78500241_2510.txt Node
Date: Fri Mar 25 15:59:11 CST 2022
User: usil
Spectrometer: V785-0024
Trigger mode: 0
Integration Time (sec): 4.000000E-1
Scans to average: 1
Nonlinearity correction enabled: false
Boxcar width: 0
Storing dark spectrum: false
XAxis mode: Wavelengths
Number of Pixels in Spectrum: 1024
>>>>>Begin Spectral Data<<<<<
801.071	28607
801.214	28653
801.356	28352
801.499	28348
801.641	28261
801.783	28413
801.926	28135
802.068	28234
802.211	28291
802.353	28143
802.496	27892
802.638	28017
802.78	28063
802.923	27865
803.065	27823
803.208	27873
803.35	27918
803.492	28120
803.635	28242
803.777	28109
803.919	28188
804.061	28592
804.204	28223
804.346	28230
804.488	28124
804.63	28268
804.773	28169
804.915	28295
805.057	28295
805.199	28188
805.341	28344
805.483	28363
805.626	28375
805.768	28166
805.91	28215
806.052	28390
806.194	28211
806.336	28554
806.478	28306
806.62	28352
806.762	28462
806.904	28523
807.046	28847
807.188	28763
807.33	28843
807.472	28888
807.614	28835
807.756	28763
807.898	28611
808.04	28577
808.182	28580
808.324	28656
808.465	28828
808.607	28835
808.749	29006
808.891	29067
809.033	29098
809.174	29033
809.316	29037
809.458	28961
809.6	29022
809.741	29048
809.883	29094
810.025	29242
810.166	29322
810.308	29315
810.45	29360
810.591	29200
810.733	29086
810.875	29025
811.016	29075
811.158	28953
811.299	29132
811.441	29223
811.582	29277
811.724	29003
811.865	28961
812.007	29067
812.148	29067
812.29	29079
812.431	29330
812.573	29318
812.714	29493
812.855	29402
812.997	29592
813.138	29775
813.279	29687
813.421	29516
813.562	29581
813.703	29296
813.845	29181
813.986	28908
814.127	28824
814.268	28725
814.41	28812
814.551	28729
814.692	28847
814.833	28626
814.974	28630
815.115	28733
815.256	28622
815.397	28592
815.539	28577
815.68	28550
815.821	28561
815.962	28615
816.103	28478
816.244	28436
816.385	28249
816.526	28299
816.666	28147
816.807	28017
816.948	28090
817.089	28112
817.23	27979
817.371	28063
817.512	28067
817.653	28063
817.793	27797
817.934	28013
818.075	28051
818.216	28086
818.356	28029
818.497	27953
818.638	27789
818.778	27778
818.919	27998
819.06	27861
819.2	27880
819.341	27994
819.481	28090
819.622	28303
819.762	28344
819.903	28329
820.043	28207
820.184	28268
820.324	28166
820.465	28322
820.605	28223
820.746	28249
820.886	27998
821.026	28139
821.167	28006
821.307	28143
821.447	28063
821.588	28051
821.728	27850
821.868	27583
822.008	27717
822.149	27530
822.289	27412
822.429	27431
822.569	27207
822.709	27249
822.849	27157
822.99	27085
823.13	26914
823.27	26940
823.41	26788
823.55	26716
823.69	26815
823.83	26735
823.97	26864
824.11	26720
824.25	26552
824.389	26659
824.529	26659
824.669	26720
824.809	26724
824.949	26674
825.089	26826
825.228	26712
825.368	26549
825.508	26549
825.648	26568
825.787	26701
825.927	26640
826.067	26648
826.206	26564
826.346	26678
826.485	26746
826.625	26659
826.765	26697
826.904	26762
827.044	26423
827.183	26488
827.323	26290
827.462	26221
827.601	26294
827.741	26415
827.88	26259
828.02	26282
828.159	26214
828.298	26286
828.437	26404
828.577	26252
828.716	26278
828.855	26119
828.994	25959
829.134	25883
829.273	26119
829.412	26039
829.551	25997
829.69	26016
829.829	25947
829.968	26046
830.107	26035
830.246	25989
830.385	25902
830.524	25898
830.663	25811
830.802	25753
830.941	25635
831.08	25499
831.219	25518
831.357	25738
831.496	25814
831.635	25635
831.774	25506
831.913	25487
832.051	25453
832.19	25278
832.329	25430
832.467	25316
832.606	25369
832.744	25213
832.883	25164
833.022	25263
833.16	25084
833.299	25217
833.437	25175
833.576	25377
833.714	25236
833.852	25396
833.991	25255
834.129	25495
834.267	25304
834.406	25384
834.544	25320
834.682	25335
834.821	25316
834.959	25464
835.097	25289
835.235	25297
835.373	25381
835.511	25297
835.65	25179
835.788	25088
835.926	24996
836.064	24894
836.202	25160
836.34	25099
836.478	25255
836.615	25156
836.753	25091
836.891	25110
837.029	25129
837.167	25061
837.305	25080
837.443	25027
837.58	25080
837.718	24981
837.856	25004
837.993	24992
838.131	25008
838.269	24829
838.406	24920
838.544	24829
838.681	24597
838.819	24604
838.956	24338
839.094	24498
839.231	24498
839.369	24677
839.506	24894
839.643	24650
839.781	24456
839.918	24464
840.055	24433
840.193	24388
840.33	24410
840.467	24403
840.604	24251
840.742	24741
840.879	24205
841.016	24304
841.153	24182
841.29	24483
841.427	24300
841.564	24414
841.701	24311
841.838	24296
841.975	24136
842.112	24235
842.249	24300
842.385	24117
842.522	24338
842.659	24247
842.796	24057
842.933	24030
843.069	24045
843.206	24087
843.343	24163
843.479	24098
843.616	24144
843.752	23805
843.889	23817
844.025	23980
844.162	23790
844.298	23885
844.435	23916
844.571	23855
844.708	23824
844.844	24011
844.98	23973
845.117	23927
845.253	23779
845.389	23699
845.525	23611
845.661	23642
845.798	23676
845.934	23623
846.07	23452
846.206	23695
846.342	23657
846.478	23703
846.614	23360
846.75	23372
846.886	23292
847.022	23383
847.158	23326
847.294	23284
847.429	23486
847.565	23239
847.701	23535
847.837	23109
847.972	23067
848.108	23105
848.244	23086
848.379	22885
848.515	22771
848.65	22862
848.786	22767
848.921	22953
849.057	22915
849.192	23022
849.328	22946
849.463	22790
849.598	22976
849.734	22828
849.869	22668
850.004	22694
850.14	22710
850.275	22577
850.41	22565
850.545	22542
850.68	22786
850.815	22755
850.95	22668
851.085	23048
851.22	22721
851.355	22538
851.49	22550
851.625	22672
851.76	22687
851.895	22561
852.03	22660
852.165	22664
852.299	22656
852.434	22858
852.569	22782
852.703	22687
852.838	22664
852.973	22782
853.107	22698
853.242	22497
853.376	22497
853.511	22291
853.645	22413
853.78	22706
853.914	22569
854.048	22394
854.183	22470
854.317	22512
854.451	22759
854.585	22592
854.72	22432
854.854	22626
854.988	22329
855.122	22436
855.256	22394
855.39	22352
855.524	22481
855.658	22550
855.792	22500
855.926	22447
856.06	22493
856.194	22577
856.327	22542
856.461	22573
856.595	22573
856.729	22363
856.862	22481
856.996	22466
857.13	22497
857.263	22573
857.397	22554
857.53	22474
857.664	22630
857.797	22474
857.931	22649
858.064	22459
858.197	22531
858.331	22523
858.464	22451
858.597	22436
858.731	22478
858.864	22481
858.997	22341
859.13	22592
859.263	22382
859.396	22577
859.529	22341
859.662	22451
859.795	22367
859.928	22432
860.061	22748
860.194	22630
860.327	22432
860.46	22580
860.592	22668
860.725	22702
860.858	22577
860.99	22436
861.123	22443
861.256	22447
861.388	22508
861.521	23132
861.653	22382
861.786	22295
861.918	22325
862.05	22394
862.183	22333
862.315	22451
862.447	22588
862.58	22451
862.712	22230
862.844	22196
862.976	22284
863.108	22181
863.24	22557
863.372	22055
863.504	22234
863.636	22341
863.768	22192
863.9	22196
864.032	22006
864.164	22242
864.296	22188
864.428	22398
864.559	22314
864.691	22329
864.823	22196
864.954	22226
865.086	22135
865.217	22116
865.349	22044
865.48	22131
865.612	22032
865.743	22329
865.875	22143
866.006	22086
866.137	22177
866.269	22063
866.4	21987
866.531	22036
866.662	22070
866.793	22109
866.924	21975
867.055	22086
867.186	21930
867.317	21994
867.448	22067
867.579	22002
867.71	21869
867.841	21964
867.972	22192
868.103	22051
868.233	22067
868.364	22036
868.495	22040
868.625	22246
868.756	22249
868.886	22287
869.017	22215
869.147	22390
869.278	22329
869.408	22265
869.539	22135
869.669	22356
869.799	22360
869.929	22360
870.06	22417
870.19	22485
870.32	22573
870.45	22432
870.58	22634
870.71	22721
870.84	22839
870.97	22584
871.1	22569
871.23	22790
871.36	22885
871.489	22790
871.619	22713
871.749	22774
871.879	22839
872.008	23014
872.138	22812
872.267	22892
872.397	22702
872.526	22869
872.656	22637
872.785	22542
872.915	22885
873.044	22911
873.173	22816
873.303	22927
873.432	22881
873.561	22938
873.69	22835
873.819	22793
873.948	22949
874.077	22873
874.206	22889
874.335	22843
874.464	22938
874.593	23227
874.722	23071
874.851	23098
874.979	23075
875.108	23117
875.237	23025
875.365	22858
875.494	23018
875.623	23170
875.751	23113
875.88	23136
876.008	23227
876.136	23250
876.265	23455
876.393	23516
876.521	23395
876.65	23474
876.778	23535
876.906	23402
877.034	23486
877.162	23421
877.29	23360
877.418	23341
877.546	23379
877.674	23284
877.802	23277
877.93	23440
878.058	23383
878.185	23246
878.313	23425
878.441	23356
878.568	23258
878.696	23288
878.824	23448
878.951	23558
879.079	23680
879.206	23684
879.333	23528
879.461	23151
879.588	23505
879.715	23531
879.842	23737
879.97	23345
880.097	23075
880.224	23212
880.351	23353
880.478	23174
880.605	23212
880.732	23189
880.859	23535
880.986	23220
881.112	23299
881.239	23189
881.366	23010
881.493	22995
881.619	22733
881.746	22778
881.872	22824
881.999	22797
882.125	22683
882.252	22854
882.378	22740
882.505	22824
882.631	22573
882.757	22462
882.883	22641
883.01	22447
883.136	22421
883.262	22474
883.388	22360
883.514	22481
883.64	22569
883.766	22325
883.892	22192
884.018	22265
884.143	22356
884.269	22447
884.395	22070
884.52	22131
884.646	22246
884.772	22090
884.897	21960
885.023	22074
885.148	22204
885.274	22166
885.399	22124
885.524	22185
885.65	21994
885.775	22192
885.9	21945
886.025	22177
886.15	22185
886.275	22128
886.4	21991
886.525	22082
886.65	22059
886.775	21991
886.9	22200
887.025	22379
887.149	22017
887.274	21983
887.399	21911
887.523	21838
887.648	21759
887.773	21831
887.897	21949
888.021	21937
888.146	21751
888.27	21903
888.395	21960
888.519	21972
888.643	21892
888.767	21850
888.891	21686
889.015	21690
889.139	21778
889.263	21603
889.387	21717
889.511	21983
889.635	21812
889.759	21663
889.883	21538
890.006	21633
890.13	21698
890.254	21633
890.377	21637
890.501	21481
890.624	21344
890.748	21454
890.871	21268
890.995	21241
891.118	21138
891.241	21207
891.364	21260
891.488	21351
891.611	21291
891.734	21272
891.857	21325
891.98	21165
892.103	21188
892.226	21275
892.349	21039
892.471	20979
892.594	21066
892.717	21192
892.839	21150
892.962	21203
893.085	21093
893.207	20971
893.33	20933
893.452	20925
893.575	21074
893.697	20994
893.819	21207
893.941	21245
894.064	21249
894.186	20990
894.308	20986
894.43	21165
894.552	21176
894.674	21211
894.796	20929
894.918	21055
895.04	21062
895.161	21222
895.283	21112
895.405	21081
895.526	21032
895.648	20895
895.769	21161
895.891	21032
896.012	21108
896.134	21214
896.255	21131
896.376	21028
896.498	21055
896.619	21089
896.74	21055
896.861	21142
896.982	21351
897.103	21477
897.224	21363
897.345	21268
897.466	21283
897.587	21332
897.708	21317
897.828	21378
897.949	21169
898.07	21028
898.19	21237
898.311	21249
898.431	21100
898.552	21264
898.672	21321
898.792	21294
898.913	21192
899.033	21047
899.153	21043
899.273	21009
899.393	21005
899.513	21074
899.633	20956
899.753	21154
899.873	20925
899.993	21001
900.113	20914
900.232	21085
900.352	20956
900.472	20800
900.591	20712
900.711	20781
900.83	20750
900.95	20811
901.069	20853
901.189	20560
901.308	20423
901.427	20313
901.546	20434
901.665	20393
901.784	20229
901.904	20244
902.023	20168
902.141	20031
902.26	19906
902.379	19890
902.498	19879
902.617	19731
902.735	19902
902.854	19670
902.973	19769
903.091	19651
903.21	19662
903.328	19487
903.446	19468
903.565	19343
903.683	19266
903.801	19255
903.919	19225
904.038	19148
904.156	19069
904.274	19225
904.392	18947
904.51	19008
904.627	19004
904.745	19141
904.863	19171
904.981	18916
905.098	18669
905.216	18684
905.334	18738
905.451	18760
905.569	18661
905.686	18715
905.803	18677
905.921	18486
906.038	18650
906.155	18513
906.272	18433
906.389	18334
906.506	18338
906.623	18330
906.74	18224
906.857	18087
906.974	18167
907.091	18319
907.208	18464
907.324	18190
907.441	18136
907.557	17988
907.674	17973
907.79	17889
907.907	17885
908.023	17999
908.139	17866
908.256	17908
908.372	17794
908.488	17817
908.604	17707
908.72	17699
908.836	17699
908.952	17676
909.068	17657
909.184	17802
909.3	17691
909.415	17592
909.531	17699
909.647	17379
909.762	17307
909.878	17398
909.993	17296
910.108	17353
910.224	17318
910.339	17349
910.454	17197
910.57	17227
910.685	17090
910.8	17410
910.915	17269
911.03	17132
911.145	16995
911.259	16972
911.374	16946
911.489	16896
911.604	16809
911.718	16618
911.833	16687
911.947	16474
912.062	16443
912.176	16641
912.291	16660
912.405	16733
912.519	16885
912.633	16839
912.748	16702
912.862	16683
912.976	16462
913.09	16382
913.204	16462
913.318	16535
913.431	16535
913.545	16577
913.659	16512
913.772	16375
913.886	16363
914	16257
914.113	16379
914.226	16386
914.34	16402
914.453	16204
914.566	16257
914.68	16192
914.793	16078
914.906	15949
915.019	15842
915.132	15823
915.245	15747
915.358	15926
915.47	15964
915.583	15854
915.696	15884
915.809	15987
915.921	15941
916.034	15884
916.146	15732
916.259	15785
916.371	15819
916.483	15861
916.595	15675
916.708	15679
916.82	15713
916.932	15637
917.044	15504
917.156	15504
917.268	15572
917.38	15447
917.491	15466
917.603	15504
917.715	15587
917.826	15523
917.938	15435
918.049	15298
918.161	15420
918.272	15568
918.384	15572
918.495	15260
918.606	15287
918.717	15135
918.828	15306
918.939	15233
919.05	15116
919.161	15268
919.272	14956
919.383	15100
919.494	15268
919.604	15306
919.715	15245
919.826	15074
919.936	15135
920.047	15237
920.157	15074
920.267	15283
920.378	15119
920.488	15211
920.598	15378
920.708	15500
920.818	15222
920.928	15245
921.038	15469
921.148	15382
921.258	15154
921.368	15020
921.477	14887
921.587	14979
921.697	14872
921.806	14921
921.916	14842
922.025	14667
922.134	14564
922.244	14522
922.353	14587
922.462	14454
922.571	14317
922.68	14233
922.789	14153
922.898	14225
923.007	14069
923.116	14244
923.224	14115
923.333	14096
923.442	13989
923.55	14046
923.659	14012
923.767	13997
923.876	13974
923.984	14081
924.092	13849
924.201	13974
924.309	13864
924.417	13902
924.525	13868
924.633	13791
924.741	14610
924.849	13544
924.956	13750
925.064	13567
925.172	13449
925.279	13502
925.387	13677
925.494	13533
925.602	13715
925.709	13624
925.816	13453
925.924	13556
926.031	13487
926.138	13597
926.245	13544
926.352	13403
926.459	13464
926.566	13552
926.673	13434
926.779	13301
926.886	13129
926.993	13175
927.099	13091
927.206	13031
927.312	13008
927.419	13149
927.525	13069
927.631	13164
927.737	13053
927.843	12882
927.95	12848
928.056	12848
928.162	13000
928.267	12996
928.373	13533
928.479	13015
928.585	12810
928.69	12840
928.796	12894
928.901	12798
929.007	12589
929.112	12787
929.218	12757
929.323	12646
929.428	12528
929.533	12715
929.638	12509
929.743	12471
929.848	12692
929.953	12559
930.058	12395
930.163	12247
930.267	12372
930.372	12429
930.477	12178
930.581	12422
930.685	12372
930.79	12083
930.894	12194
930.998	12114
931.103	12300
931.207	11832
931.311	11802
931.415	11771
931.519	11577
931.623	11528
