Data from test_V78500241_2295.txt Node
Date: Fri Mar 25 15:57:41 CST 2022
User: usil
Spectrometer: V785-0024
Trigger mode: 0
Integration Time (sec): 4.000000E-1
Scans to average: 1
Nonlinearity correction enabled: false
Boxcar width: 0
Storing dark spectrum: false
XAxis mode: Wavelengths
Number of Pixels in Spectrum: 1024
>>>>>Begin Spectral Data<<<<<
801.071	29113
801.214	29098
801.356	28949
801.499	28862
801.641	28847
801.783	28626
801.926	28862
802.068	28843
802.211	28675
802.353	28607
802.496	28379
802.638	28478
802.78	28382
802.923	28363
803.065	28436
803.208	28466
803.35	28440
803.492	28565
803.635	28740
803.777	28569
803.919	28668
804.061	28942
804.204	28904
804.346	28839
804.488	28694
804.63	28611
804.773	28512
804.915	28790
805.057	28847
805.199	28801
805.341	28710
805.483	28923
805.626	28949
805.768	28755
805.91	28930
806.052	28839
806.194	28843
806.336	29010
806.478	28904
806.62	28850
806.762	29090
806.904	29273
807.046	29356
807.188	29349
807.33	29273
807.472	29535
807.614	29258
807.756	29387
807.898	29311
808.04	29147
808.182	29315
808.324	29307
808.465	29231
808.607	29528
808.749	29539
808.891	29680
809.033	29718
809.174	29756
809.316	29524
809.458	29486
809.6	29619
809.741	29752
809.883	29748
810.025	29958
810.166	29935
810.308	29878
810.45	29832
810.591	29775
810.733	29608
810.875	29535
811.016	29611
811.158	29558
811.299	29600
811.441	29783
811.582	29813
811.724	29630
811.865	29592
812.007	29589
812.148	29684
812.29	29642
812.431	29802
812.573	30011
812.714	30091
812.855	30171
812.997	30273
813.138	30361
813.279	30357
813.421	30144
813.562	30220
813.703	29908
813.845	29862
813.986	29581
814.127	29535
814.268	29360
814.41	29459
814.551	29334
814.692	29307
814.833	29246
814.974	29341
815.115	29379
815.256	29330
815.397	29185
815.539	29208
815.68	29090
815.821	29086
815.962	29109
816.103	29075
816.244	29018
816.385	28858
816.526	28850
816.666	28611
816.807	28569
816.948	28531
817.089	28828
817.23	28729
817.371	28634
817.512	28675
817.653	28733
817.793	28637
817.934	28687
818.075	28778
818.216	28584
818.356	28771
818.497	28527
818.638	28447
818.778	28417
818.919	28592
819.06	28485
819.2	28569
819.341	28653
819.481	28733
819.622	28904
819.762	29155
819.903	28911
820.043	28904
820.184	28919
820.324	28740
820.465	28938
820.605	28790
820.746	28778
820.886	28565
821.026	28801
821.167	28713
821.307	28877
821.447	28812
821.588	28455
821.728	28550
821.868	28196
822.008	28188
822.149	28215
822.289	28322
822.429	27937
822.569	27892
822.709	27804
822.849	27869
822.99	27717
823.13	27606
823.27	27724
823.41	27481
823.55	27397
823.69	27439
823.83	27622
823.97	27397
824.11	27420
824.25	27233
824.389	27329
824.529	27370
824.669	27439
824.809	27500
824.949	27420
825.089	27492
825.228	27401
825.368	27062
825.508	27157
825.648	27180
825.787	27203
825.927	27272
826.067	27154
826.206	27165
826.346	27230
826.485	27127
826.625	27195
826.765	27504
826.904	27317
827.044	26960
827.183	27070
827.323	26967
827.462	26883
827.601	27043
827.741	26826
827.88	27024
828.02	26708
828.159	26868
828.298	26948
828.437	27020
828.577	26914
828.716	27032
828.855	26899
828.994	26613
829.134	26575
829.273	26556
829.412	26575
829.551	26560
829.69	26545
829.829	26682
829.968	26644
830.107	26781
830.246	26537
830.385	26488
830.524	26495
830.663	26434
830.802	26431
830.941	26240
831.08	26054
831.219	26324
831.357	26305
831.496	26374
831.635	26176
831.774	26320
831.913	26134
832.051	26054
832.19	25940
832.329	25925
832.467	25944
832.606	25925
832.744	25864
832.883	25970
833.022	25845
833.16	25837
833.299	26024
833.437	25955
833.576	25959
833.714	25993
833.852	26100
833.991	26077
834.129	26005
834.267	26027
834.406	25955
834.544	26062
834.682	25959
834.821	25856
834.959	26176
835.097	25932
835.235	26084
835.373	26084
835.511	25902
835.65	25772
835.788	25757
835.926	25639
836.064	25609
836.202	25594
836.34	25693
836.478	25734
836.615	25666
836.753	25750
836.891	25849
837.029	25841
837.167	25670
837.305	25681
837.443	25540
837.58	25632
837.718	25731
837.856	25586
837.993	25521
838.131	25510
838.269	25502
838.406	25639
838.544	25282
838.681	25107
838.819	25228
838.956	25080
839.094	25084
839.231	25133
839.369	25187
839.506	25464
839.643	25282
839.781	25152
839.918	25038
840.055	25004
840.193	24947
840.33	24973
840.467	24916
840.604	24920
840.742	25236
840.879	24749
841.016	24814
841.153	24878
841.29	25061
841.427	24825
841.564	25000
841.701	24920
841.838	24814
841.975	24795
842.112	24760
842.249	24779
842.385	24787
842.522	24996
842.659	24837
842.796	24623
842.933	24635
843.069	24642
843.206	24749
843.343	24738
843.479	24604
843.616	24715
843.752	24403
843.889	24460
844.025	24544
844.162	24521
844.298	24566
844.435	24315
844.571	24467
844.708	24475
844.844	24688
844.98	24578
845.117	24319
845.253	24410
845.389	24296
845.525	24380
845.661	24414
845.798	24239
845.934	24258
846.07	24140
846.206	24133
846.342	24308
846.478	24194
846.614	23904
846.75	23813
846.886	23999
847.022	24102
847.158	23916
847.294	24053
847.429	24041
847.565	23920
847.701	24155
847.837	23653
847.972	23482
848.108	23604
848.244	23710
848.379	23433
848.515	23436
848.65	23440
848.786	23642
848.921	23520
849.057	23619
849.192	23573
849.328	23497
849.463	23509
849.598	23440
849.734	23436
849.869	23356
850.004	23337
850.14	23227
850.275	23296
850.41	23223
850.545	23143
850.68	23296
850.815	23208
850.95	23178
851.085	23524
851.22	23444
851.355	23265
851.49	23200
851.625	23254
851.76	23303
851.895	23181
852.03	23212
852.165	23273
852.299	23303
852.434	23356
852.569	23341
852.703	23292
852.838	23296
852.973	23395
853.107	23391
853.242	23254
853.376	23041
853.511	22915
853.645	22930
853.78	23151
853.914	23143
854.048	22999
854.183	23052
854.317	23044
854.451	23235
854.585	23102
854.72	23132
854.854	23174
854.988	22923
855.122	23117
855.256	22919
855.39	23014
855.524	23155
855.658	23254
855.792	23121
855.926	23105
856.06	23113
856.194	23113
856.327	22942
856.461	23105
856.595	23064
856.729	23018
856.862	23117
856.996	23166
857.13	23117
857.263	23208
857.397	23216
857.53	23018
857.664	23193
857.797	23136
857.931	23242
858.064	23025
858.197	23155
858.331	23128
858.464	23003
858.597	22942
858.731	23014
858.864	23006
858.997	23044
859.13	23109
859.263	23204
859.396	23193
859.529	23109
859.662	22942
859.795	23037
859.928	23090
860.061	23246
860.194	23326
860.327	23060
860.46	23041
860.592	23189
860.725	23216
860.858	23086
860.99	23094
861.123	23064
861.256	23029
861.388	23029
861.521	23805
861.653	22889
861.786	22725
861.918	22946
862.05	22934
862.183	23033
862.315	23033
862.447	23064
862.58	23022
862.712	22748
862.844	22668
862.976	23006
863.108	22942
863.24	23250
863.372	22790
863.504	22782
863.636	22733
863.768	22908
863.9	22824
864.032	22637
864.164	22706
864.296	22965
864.428	22953
864.559	22835
864.691	22843
864.823	22854
864.954	22736
865.086	22656
865.217	22717
865.349	22565
865.48	22630
865.612	22649
865.743	22790
865.875	22706
866.006	22645
866.137	22736
866.269	22755
866.4	22599
866.531	22660
866.662	22519
866.793	22443
866.924	22599
867.055	22580
867.186	22550
867.317	22508
867.448	22550
867.579	22531
867.71	22470
867.841	22493
867.972	22637
868.103	22561
868.233	22634
868.364	22607
868.495	22615
868.625	22713
868.756	22866
868.886	22645
869.017	22774
869.147	22908
869.278	22980
869.408	22831
869.539	22858
869.669	22885
869.799	22915
869.929	23060
870.06	22934
870.19	23121
870.32	23124
870.45	23102
870.58	23113
870.71	23204
870.84	23288
870.97	23143
871.1	23212
871.23	23395
871.36	23406
871.489	23265
871.619	23337
871.749	23482
871.879	23486
872.008	23524
872.138	23330
872.267	23360
872.397	23212
872.526	23124
872.656	23288
872.785	23277
872.915	23364
873.044	23421
873.173	23509
873.303	23592
873.432	23497
873.561	23478
873.69	23520
873.819	23353
873.948	23433
874.077	23307
874.206	23364
874.335	23398
874.464	23520
874.593	23627
874.722	23471
874.851	23634
874.979	23581
875.108	23665
875.237	23707
875.365	23531
875.494	23505
875.623	23668
875.751	23577
875.88	23646
876.008	23729
876.136	23794
876.265	24087
876.393	24038
876.521	24011
876.65	24114
876.778	24110
876.906	24007
877.034	23931
877.162	24057
877.29	23977
877.418	23965
877.546	23908
877.674	23973
877.802	24068
877.93	23897
878.058	23840
878.185	23779
878.313	23996
878.441	23939
878.568	23718
878.696	23973
878.824	23946
878.951	24007
879.079	24186
879.206	24209
879.333	24114
879.461	24007
879.588	24076
879.715	24144
879.842	24262
879.97	24015
880.097	23775
880.224	23885
880.351	23802
880.478	23832
880.605	23714
880.732	23824
880.859	23893
880.986	23813
881.112	23889
881.239	23638
881.366	23577
881.493	23482
881.619	23318
881.746	23322
881.872	23406
881.999	23284
882.125	23296
882.252	23414
882.378	23398
882.505	23452
882.631	23204
882.757	23064
882.883	23174
883.01	22934
883.136	23022
883.262	22961
883.388	22828
883.514	22930
883.64	22953
883.766	22911
883.892	22645
884.018	22801
884.143	23014
884.269	23056
884.395	22797
884.52	22531
884.646	22493
884.772	22599
884.897	22599
885.023	22694
885.148	22706
885.274	22809
885.399	22694
885.524	22656
885.65	22656
885.775	22546
885.9	22592
886.025	22710
886.15	22668
886.275	22561
886.4	22527
886.525	22630
886.65	22538
886.775	22584
886.9	22831
887.025	22850
887.149	22523
887.274	22413
887.399	22284
887.523	22386
887.648	22284
887.773	22272
887.897	22474
888.021	22440
888.146	22268
888.27	22428
888.395	22470
888.519	22390
888.643	22466
888.767	22447
888.891	22257
889.015	22185
889.139	22291
889.263	22112
889.387	22181
889.511	22432
889.635	22310
889.759	22169
889.883	22086
890.006	22124
890.13	22150
890.254	22048
890.377	22078
890.501	21876
890.624	21953
890.748	21842
890.871	21956
890.995	21686
891.118	21606
891.241	21694
891.364	21671
891.488	21907
891.611	21755
891.734	21701
891.857	21755
891.98	21812
892.103	21675
892.226	21705
892.349	21713
892.471	21458
892.594	21622
892.717	21545
892.839	21614
892.962	21462
893.085	21606
893.207	21534
893.33	21408
893.452	21485
893.575	21637
893.697	21477
893.819	21705
893.941	21778
894.064	21880
894.186	21492
894.308	21557
894.43	21580
894.552	21633
894.674	21564
894.796	21435
894.918	21523
895.04	21526
895.161	21591
895.283	21553
895.405	21545
895.526	21553
895.648	21511
895.769	21603
895.891	21587
896.012	21576
896.134	21667
896.255	21523
896.376	21591
896.498	21542
896.619	21610
896.74	21507
896.861	21534
896.982	21930
897.103	22063
897.224	21644
897.345	21724
897.466	21648
897.587	21724
897.708	21884
897.828	21842
897.949	21793
898.07	21557
898.19	21781
898.311	21838
898.431	21732
898.552	21724
898.672	21804
898.792	21797
898.913	21846
899.033	21641
899.153	21454
899.273	21408
899.393	21435
899.513	21488
899.633	21431
899.753	21393
899.873	21332
899.993	21466
900.113	21412
900.232	21439
900.352	21450
900.472	21207
900.591	21119
900.711	21195
900.83	21154
900.95	21317
901.069	21298
901.189	21135
901.308	20902
901.427	20823
901.546	20678
901.665	20857
901.784	20819
901.904	20564
902.023	20552
902.141	20442
902.26	20309
902.379	20286
902.498	20256
902.617	20252
902.735	20240
902.854	20252
902.973	20248
903.091	19894
903.21	19898
903.328	19887
903.446	19795
903.565	19833
903.683	19845
903.801	19696
903.919	19624
904.038	19727
904.156	19396
904.274	19548
904.392	19518
904.51	19445
904.627	19403
904.745	19472
904.863	19441
904.981	19251
905.098	19209
905.216	19232
905.334	19232
905.451	19350
905.569	19164
905.686	19175
905.803	19137
905.921	19038
906.038	18989
906.155	18951
906.272	18897
906.389	18894
906.506	18688
906.623	18684
906.74	18711
906.857	18616
906.974	18620
907.091	18677
907.208	18722
907.324	18661
907.441	18585
907.557	18399
907.674	18403
907.79	18262
907.907	18456
908.023	18388
908.139	18369
908.256	18266
908.372	18315
908.488	18285
908.604	18129
908.72	18011
908.836	18003
908.952	18030
909.068	18117
909.184	18182
909.3	18030
909.415	18114
909.531	18091
909.647	17889
909.762	17733
909.878	17802
909.993	17874
910.108	17813
910.224	17722
910.339	17680
910.454	17581
910.57	17630
910.685	17528
910.8	17798
910.915	17748
911.03	17547
911.145	17383
911.259	17433
911.374	17387
911.489	17353
911.604	17185
911.718	17079
911.833	17113
911.947	16927
912.062	16854
912.176	17064
912.291	17143
912.405	17079
912.519	17265
912.633	17330
912.748	17124
912.862	17105
912.976	16866
913.09	16797
913.204	16953
913.318	16843
913.431	16980
913.545	17003
913.659	16980
913.772	16828
913.886	16733
914	16687
914.113	16767
914.226	16774
914.34	16721
914.453	16569
914.566	16580
914.68	16615
914.793	16554
914.906	16394
915.019	16287
915.132	16181
915.245	16226
915.358	16272
915.47	16181
915.583	16257
915.696	16303
915.809	16329
915.921	16375
916.034	16055
916.146	16101
916.259	16090
916.371	16158
916.483	16124
916.595	16105
916.708	16135
916.82	15972
916.932	16025
917.044	16029
917.156	15930
917.268	15789
917.38	15755
917.491	15861
917.603	15876
917.715	15880
917.826	15922
917.938	15819
918.049	15682
918.161	15774
918.272	15884
918.384	15960
918.495	15751
918.606	15652
918.717	15633
918.828	15690
918.939	15648
919.05	15454
919.161	15595
919.272	15313
919.383	15572
919.494	15648
919.604	15793
919.715	15549
919.826	15469
919.936	15481
920.047	15549
920.157	15572
920.267	15701
920.378	15515
920.488	15447
920.598	15656
920.708	15819
920.818	15614
920.928	15686
921.038	15804
921.148	15751
921.258	15485
921.368	15447
921.477	15260
921.587	15264
921.697	15085
921.806	15268
921.916	15039
922.025	14948
922.134	14982
922.244	14765
922.353	14849
922.462	14804
922.571	14659
922.68	14564
922.789	14530
922.898	14552
923.007	14377
923.116	14552
923.224	14583
923.333	14526
923.442	14358
923.55	14400
923.659	14385
923.767	14351
923.876	14233
923.984	14438
924.092	14172
924.201	14267
924.309	14240
924.417	14218
924.525	14054
924.633	14161
924.741	15097
924.849	13826
924.956	14111
925.064	14027
925.172	13772
925.279	13955
925.387	13826
925.494	13833
925.602	14039
925.709	13906
925.816	13833
925.924	13898
926.031	13849
926.138	13791
926.245	13799
926.352	13712
926.459	13951
926.566	13807
926.673	13780
926.779	13586
926.886	13529
926.993	13441
927.099	13362
927.206	13343
927.312	13343
927.419	13453
927.525	13384
927.631	13491
927.737	13304
927.843	13316
927.95	13091
928.056	13190
928.162	13213
928.267	13244
928.373	13830
928.479	13285
928.585	12989
928.69	13133
928.796	13202
928.901	13069
929.007	12901
929.112	13091
929.218	13038
929.323	12897
929.428	12909
929.533	13008
929.638	12920
929.743	12875
929.848	12909
929.953	12905
930.058	12730
930.163	12582
930.267	12635
930.372	12681
930.477	12506
930.581	12768
930.685	12593
930.79	12338
930.894	12635
930.998	12380
931.103	12551
931.207	12159
931.311	12098
931.415	12007
931.519	11847
931.623	11824
