Data from test_V78500241_3499.txt Node
Date: Fri Mar 25 16:06:02 CST 2022
User: usil
Spectrometer: V785-0024
Trigger mode: 0
Integration Time (sec): 4.000000E-1
Scans to average: 1
Nonlinearity correction enabled: false
Boxcar width: 0
Storing dark spectrum: false
XAxis mode: Wavelengths
Number of Pixels in Spectrum: 1024
>>>>>Begin Spectral Data<<<<<
801.071	28919
801.214	28816
801.356	28672
801.499	28557
801.641	28379
801.783	28523
801.926	28577
802.068	28485
802.211	28272
802.353	28325
802.496	28204
802.638	28147
802.78	28143
802.923	28017
803.065	28192
803.208	28162
803.35	28143
803.492	28363
803.635	28424
803.777	28344
803.919	28356
804.061	28664
804.204	28508
804.346	28329
804.488	28428
804.63	28561
804.773	28428
804.915	28557
805.057	28565
805.199	28459
805.341	28512
805.483	28668
805.626	28577
805.768	28440
805.91	28531
806.052	28637
806.194	28478
806.336	28698
806.478	28668
806.62	28580
806.762	28725
806.904	28869
807.046	29189
807.188	29048
807.33	28987
807.472	29296
807.614	28984
807.756	29075
807.898	28923
808.04	28755
808.182	28786
808.324	28927
808.465	29041
808.607	29261
808.749	29315
808.891	29395
809.033	29486
809.174	29375
809.316	29414
809.458	29353
809.6	29265
809.741	29223
809.883	29520
810.025	29554
810.166	29596
810.308	29520
810.45	29562
810.591	29554
810.733	29543
810.875	29501
811.016	29174
811.158	29151
811.299	29379
811.441	29490
811.582	29543
811.724	29512
811.865	29402
812.007	29269
812.148	29368
812.29	29524
812.431	29554
812.573	29726
812.714	29851
812.855	29939
812.997	29992
813.138	30129
813.279	29923
813.421	29931
813.562	29847
813.703	29745
813.845	29589
813.986	29433
814.127	29197
814.268	28934
814.41	29071
814.551	28949
814.692	29151
814.833	29041
814.974	28976
815.115	29079
815.256	28885
815.397	28831
815.539	29071
815.68	28828
815.821	28782
815.962	28877
816.103	28763
816.244	28706
816.385	28733
816.526	28535
816.666	28382
816.807	28390
816.948	28409
817.089	28341
817.23	28344
817.371	28474
817.512	28261
817.653	28234
817.793	28169
817.934	28428
818.075	28356
818.216	28405
818.356	28344
818.497	28238
818.638	28017
818.778	28051
818.919	28139
819.06	28207
819.2	28303
819.341	28318
819.481	28481
819.622	28618
819.762	28786
819.903	28664
820.043	28508
820.184	28500
820.324	28569
820.465	28565
820.605	28504
820.746	28360
820.886	28356
821.026	28497
821.167	28493
821.307	28451
821.447	28424
821.588	28196
821.728	28253
821.868	28029
822.008	27850
822.149	27922
822.289	27835
822.429	27644
822.569	27561
822.709	27561
822.849	27332
822.99	27370
823.13	27462
823.27	27389
823.41	27237
823.55	27074
823.69	27150
823.83	27203
823.97	27020
824.11	27066
824.25	26880
824.389	27077
824.529	27070
824.669	27051
824.809	27256
824.949	27176
825.089	27070
825.228	27207
825.368	26872
825.508	26735
825.648	26937
825.787	26975
825.927	26952
826.067	26872
826.206	26804
826.346	27001
826.485	26979
826.625	26929
826.765	27032
826.904	26864
827.044	26670
827.183	26606
827.323	26526
827.462	26625
827.601	26564
827.741	26613
827.88	26670
828.02	26594
828.159	26731
828.298	26682
828.437	26689
828.577	26575
828.716	26689
828.855	26575
828.994	26267
829.134	26438
829.273	26298
829.412	26187
829.551	26248
829.69	26252
829.829	26298
829.968	26400
830.107	26480
830.246	26240
830.385	26240
830.524	26199
830.663	26278
830.802	25955
830.941	25997
831.08	25959
831.219	26043
831.357	26031
831.496	26016
831.635	25830
831.774	25894
831.913	25818
832.051	25738
832.19	25750
832.329	25727
832.467	25624
832.606	25578
832.744	25411
832.883	25624
833.022	25510
833.16	25594
833.299	25578
833.437	25601
833.576	25704
833.714	25582
833.852	25670
833.991	25700
834.129	25719
834.267	25776
834.406	25681
834.544	25734
834.682	25677
834.821	25647
834.959	25826
835.097	25696
835.235	25681
835.373	25727
835.511	25693
835.65	25525
835.788	25441
835.926	25274
836.064	25301
836.202	25228
836.34	25601
836.478	25457
836.615	25434
836.753	25369
836.891	25556
837.029	25521
837.167	25514
837.305	25464
837.443	25362
837.58	25228
837.718	25415
837.856	25118
837.993	25179
838.131	25160
838.269	25244
838.406	25285
838.544	25053
838.681	24863
838.819	24932
838.956	24700
839.094	24795
839.231	24806
839.369	24943
839.506	25118
839.643	24966
839.781	24741
839.918	24741
840.055	24776
840.193	24635
840.33	24734
840.467	24810
840.604	24753
840.742	24916
840.879	24551
841.016	24540
841.153	24525
841.29	24703
841.427	24642
841.564	24604
841.701	24665
841.838	24559
841.975	24623
842.112	24563
842.249	24452
842.385	24357
842.522	24585
842.659	24464
842.796	24391
842.933	24475
843.069	24384
843.206	24380
843.343	24460
843.479	24426
843.616	24410
843.752	24232
843.889	24254
844.025	24414
844.162	24121
844.298	24304
844.435	24270
844.571	24072
844.708	24171
844.844	24315
844.98	24315
845.117	24376
845.253	24144
845.389	24045
845.525	24072
845.661	24057
845.798	23965
845.934	23977
846.07	24011
846.206	23946
846.342	23908
846.478	23802
846.614	23707
846.75	23630
846.886	23672
847.022	23684
847.158	23729
847.294	23615
847.429	23771
847.565	23501
847.701	23878
847.837	23311
847.972	23368
848.108	23539
848.244	23406
848.379	23239
848.515	23277
848.65	23284
848.786	23326
848.921	23189
849.057	23303
849.192	23334
849.328	23269
849.463	23223
849.598	23284
849.734	23113
849.869	23117
850.004	23022
850.14	23044
850.275	23003
850.41	22900
850.545	22957
850.68	23044
850.815	22927
850.95	22957
851.085	23330
851.22	23056
851.355	23029
851.49	22987
851.625	22961
851.76	23033
851.895	22911
852.03	22885
852.165	23006
852.299	23048
852.434	23010
852.569	22995
852.703	23003
852.838	23025
852.973	23117
853.107	23136
853.242	22889
853.376	22816
853.511	22675
853.645	22771
853.78	22930
853.914	22816
854.048	22816
854.183	22797
854.317	22991
854.451	22999
854.585	22843
854.72	22812
854.854	22850
854.988	22820
855.122	22805
855.256	22607
855.39	22820
855.524	22900
855.658	22911
855.792	22835
855.926	22896
856.06	22824
856.194	22980
856.327	22892
856.461	22790
856.595	22713
856.729	22721
856.862	22957
856.996	22721
857.13	22862
857.263	22904
857.397	22839
857.53	22839
857.664	22767
857.797	22900
857.931	22923
858.064	22850
858.197	22957
858.331	22843
858.464	22645
858.597	22733
858.731	22710
858.864	22786
858.997	22858
859.13	22835
859.263	22771
859.396	22904
859.529	22752
859.662	22691
859.795	22733
859.928	22900
860.061	22900
860.194	23052
860.327	22797
860.46	22790
860.592	23052
860.725	22938
860.858	22949
860.99	22816
861.123	22839
861.256	22748
861.388	22679
861.521	23562
861.653	22672
861.786	22561
861.918	22546
862.05	22611
862.183	22675
862.315	22850
862.447	22911
862.58	22729
862.712	22542
862.844	22504
862.976	22664
863.108	22656
863.24	22873
863.372	22413
863.504	22596
863.636	22592
863.768	22577
863.9	22561
864.032	22417
864.164	22516
864.296	22497
864.428	22466
864.559	22500
864.691	22500
864.823	22455
864.954	22466
865.086	22440
865.217	22337
865.349	22363
865.48	22382
865.612	22284
865.743	22382
865.875	22504
866.006	22375
866.137	22466
866.269	22443
866.4	22348
866.531	22272
866.662	22367
866.793	22284
866.924	22295
867.055	22386
867.186	22447
867.317	22432
867.448	22295
867.579	22440
867.71	22230
867.841	22276
867.972	22291
868.103	22367
868.233	22348
868.364	22299
868.495	22409
868.625	22451
868.756	22702
868.886	22508
869.017	22573
869.147	22755
869.278	22618
869.408	22500
869.539	22561
869.669	22710
869.799	22584
869.929	22702
870.06	22478
870.19	22873
870.32	22736
870.45	22953
870.58	22923
870.71	23124
870.84	22987
870.97	22949
871.1	22957
871.23	23181
871.36	23189
871.489	23014
871.619	23181
871.749	23189
871.879	23277
872.008	23345
872.138	23113
872.267	23269
872.397	23029
872.526	22949
872.656	23060
872.785	23052
872.915	23143
873.044	23337
873.173	23170
873.303	23212
873.432	23208
873.561	23353
873.69	23292
873.819	23136
873.948	23239
874.077	23132
874.206	23086
874.335	23223
874.464	23231
874.593	23364
874.722	23417
874.851	23452
874.979	23296
875.108	23376
875.237	23356
875.365	23277
875.494	23391
875.623	23368
875.751	23433
875.88	23444
876.008	23520
876.136	23528
876.265	23847
876.393	23893
876.521	24057
876.65	23916
876.778	23870
876.906	23722
877.034	23836
877.162	23790
877.29	23634
877.418	23775
877.546	23676
877.674	23726
877.802	23805
877.93	23745
878.058	23653
878.185	23646
878.313	23684
878.441	23646
878.568	23535
878.696	23707
878.824	23813
878.951	23794
879.079	23954
879.206	24049
879.333	23863
879.461	23767
879.588	23783
879.715	23904
879.842	24072
879.97	23779
880.097	23600
880.224	23562
880.351	23592
880.478	23497
880.605	23402
880.732	23577
880.859	23817
880.986	23509
881.112	23505
881.239	23436
881.366	23307
881.493	23239
881.619	23132
881.746	23132
881.872	23056
881.999	22968
882.125	22968
882.252	23090
882.378	23010
882.505	23155
882.631	22957
882.757	22892
882.883	22904
883.01	22820
883.136	22702
883.262	22675
883.388	22622
883.514	22721
883.64	22797
883.766	22603
883.892	22546
884.018	22599
884.143	22592
884.269	22698
884.395	22432
884.52	22424
884.646	22405
884.772	22333
884.897	22219
885.023	22360
885.148	22379
885.274	22413
885.399	22516
885.524	22451
885.65	22382
885.775	22497
885.9	22329
886.025	22500
886.15	22386
886.275	22402
886.4	22314
886.525	22344
886.65	22291
886.775	22280
886.9	22432
887.025	22550
887.149	22363
887.274	22219
887.399	22135
887.523	22120
887.648	22192
887.773	22032
887.897	22265
888.021	22112
888.146	21987
888.27	22417
888.395	22211
888.519	22204
888.643	22188
888.767	22204
888.891	22143
889.015	21915
889.139	21934
889.263	21907
889.387	21979
889.511	22166
889.635	22120
889.759	21918
889.883	21884
890.006	21838
890.13	21983
890.254	21903
890.377	21751
890.501	21671
890.624	21599
890.748	21736
890.871	21587
890.995	21332
891.118	21386
891.241	21454
891.364	21542
891.488	21648
891.611	21485
891.734	21542
891.857	21492
891.98	21374
892.103	21511
892.226	21306
892.349	21412
892.471	21344
892.594	21519
892.717	21420
892.839	21443
892.962	21420
893.085	21344
893.207	21272
893.33	21283
893.452	21249
893.575	21310
893.697	21306
893.819	21424
893.941	21618
894.064	21439
894.186	21329
894.308	21180
894.43	21431
894.552	21534
894.674	21374
894.796	21241
894.918	21283
895.04	21279
895.161	21424
895.283	21367
895.405	21317
895.526	21252
895.648	21386
895.769	21401
895.891	21325
896.012	21420
896.134	21306
896.255	21294
896.376	21306
896.498	21344
896.619	21329
896.74	21313
896.861	21256
896.982	21622
897.103	21690
897.224	21534
897.345	21488
897.466	21549
897.587	21587
897.708	21679
897.828	21568
897.949	21382
898.07	21359
898.19	21481
898.311	21568
898.431	21507
898.552	21428
898.672	21583
898.792	21606
898.913	21545
899.033	21298
899.153	21363
899.273	21173
899.393	21275
899.513	21222
899.633	21230
899.753	21218
899.873	21245
899.993	21340
900.113	21298
900.232	21184
900.352	21131
900.472	21135
900.591	21047
900.711	21066
900.83	20975
900.95	21024
901.069	21188
901.189	20899
901.308	20636
901.427	20518
901.546	20648
901.665	20469
901.784	20530
901.904	20415
902.023	20434
902.141	20210
902.26	20088
902.379	20168
902.498	20111
902.617	20058
902.735	20214
902.854	20088
902.973	19921
903.091	19791
903.21	19689
903.328	19670
903.446	19582
903.565	19601
903.683	19597
903.801	19460
903.919	19518
904.038	19502
904.156	19331
904.274	19343
904.392	19289
904.51	19156
904.627	19221
904.745	19316
904.863	19324
904.981	19095
905.098	18970
905.216	19008
905.334	18989
905.451	18977
905.569	18989
905.686	19008
905.803	18985
905.921	18738
906.038	18886
906.155	18688
906.272	18696
906.389	18696
906.506	18486
906.623	18639
906.74	18410
906.857	18365
906.974	18353
907.091	18536
907.208	18555
907.324	18566
907.441	18422
907.557	18334
907.674	18201
907.79	18003
907.907	18251
908.023	18178
908.139	18197
908.256	18041
908.372	17969
908.488	18038
908.604	17908
908.72	17859
908.836	17901
908.952	17923
909.068	17912
909.184	17999
909.3	17988
909.415	17885
909.531	17847
909.647	17600
909.762	17585
909.878	17596
909.993	17611
910.108	17611
910.224	17520
910.339	17455
910.454	17486
910.57	17448
910.685	17345
910.8	17657
910.915	17573
911.03	17250
911.145	17212
911.259	17117
911.374	17181
911.489	17128
911.604	17010
911.718	17037
911.833	16892
911.947	16904
912.062	16679
912.176	16942
912.291	16889
912.405	16885
912.519	17109
912.633	17136
912.748	16995
912.862	16820
912.976	16801
913.09	16744
913.204	16607
913.318	16694
913.431	16816
913.545	16767
913.659	16782
913.772	16687
913.886	16531
914	16569
914.113	16637
914.226	16649
914.34	16489
914.453	16382
914.566	16569
914.68	16371
914.793	16337
914.906	16147
915.019	15968
915.132	15983
915.245	15983
915.358	16051
915.47	16116
915.583	16128
915.696	16090
915.809	16173
915.921	16234
916.034	15949
916.146	16002
916.259	15937
916.371	16078
916.483	15926
916.595	15926
916.708	15884
916.82	15922
916.932	15846
917.044	15804
917.156	15778
917.268	15648
917.38	15728
917.491	15660
917.603	15739
917.715	15827
917.826	15892
917.938	15633
918.049	15523
918.161	15614
918.272	15762
918.384	15755
918.495	15781
918.606	15401
918.717	15386
918.828	15485
918.939	15481
919.05	15348
919.161	15355
919.272	15226
919.383	15245
919.494	15496
919.604	15511
919.715	15431
919.826	15279
919.936	15306
920.047	15397
920.157	15397
920.267	15504
920.378	15321
920.488	15344
920.598	15599
920.708	15599
920.818	15504
920.928	15428
921.038	15606
921.148	15644
921.258	15374
921.368	15188
921.477	15070
921.587	14986
921.697	15055
921.806	15154
921.916	14937
922.025	14796
922.134	14667
922.244	14735
922.353	14815
922.462	14743
922.571	14571
922.68	14400
922.789	14393
922.898	14309
923.007	14282
923.116	14313
923.224	14415
923.333	14290
923.442	14183
923.55	14271
923.659	14221
923.767	14195
923.876	14180
923.984	14176
924.092	14153
924.201	14046
924.309	14039
924.417	14062
924.525	13963
924.633	13898
924.741	14834
924.849	13875
924.956	14020
925.064	13791
925.172	13670
925.279	13772
925.387	13811
925.494	13731
925.602	13753
925.709	13738
925.816	13620
925.924	13632
926.031	13723
926.138	13624
926.245	13643
926.352	13590
926.459	13708
926.566	13689
926.673	13616
926.779	13506
926.886	13480
926.993	13331
927.099	13194
927.206	13289
927.312	13160
927.419	13354
927.525	13194
927.631	13251
927.737	13183
927.843	13118
927.95	12977
928.056	13004
928.162	13164
928.267	13168
928.373	13765
928.479	13114
928.585	13023
928.69	13042
928.796	13080
928.901	12859
929.007	12810
929.112	12916
929.218	12768
929.323	12863
929.428	12810
929.533	12935
929.638	12741
929.743	12696
929.848	12776
929.953	12692
930.058	12627
930.163	12509
930.267	12422
930.372	12551
930.477	12376
930.581	12578
930.685	12483
930.79	12346
930.894	12410
930.998	12292
931.103	12422
931.207	12076
931.311	11980
931.415	11927
931.519	11745
931.623	11729
