Data from test_V78500241_3487.txt Node
Date: Fri Mar 25 16:05:57 CST 2022
User: usil
Spectrometer: V785-0024
Trigger mode: 0
Integration Time (sec): 4.000000E-1
Scans to average: 1
Nonlinearity correction enabled: false
Boxcar width: 0
Storing dark spectrum: false
XAxis mode: Wavelengths
Number of Pixels in Spectrum: 1024
>>>>>Begin Spectral Data<<<<<
801.071	28999
801.214	29003
801.356	28755
801.499	28683
801.641	28584
801.783	28622
801.926	28649
802.068	28698
802.211	28565
802.353	28436
802.496	28360
802.638	28333
802.78	28306
802.923	28230
803.065	28154
803.208	28341
803.35	28398
803.492	28401
803.635	28508
803.777	28375
803.919	28584
804.061	28786
804.204	28763
804.346	28516
804.488	28455
804.63	28577
804.773	28596
804.915	28630
805.057	28691
805.199	28592
805.341	28565
805.483	28687
805.626	28778
805.768	28641
805.91	28649
806.052	28721
806.194	28786
806.336	28850
806.478	28801
806.62	28835
806.762	28995
806.904	29204
807.046	29288
807.188	29132
807.33	29102
807.472	29216
807.614	29269
807.756	29235
807.898	29147
808.04	29098
808.182	29060
808.324	29128
808.465	29231
808.607	29414
808.749	29471
808.891	29452
809.033	29524
809.174	29562
809.316	29562
809.458	29566
809.6	29471
809.741	29600
809.883	29699
810.025	29691
810.166	29687
810.308	29786
810.45	29790
810.591	29748
810.733	29535
810.875	29497
811.016	29326
811.158	29345
811.299	29608
811.441	29566
811.582	29589
811.724	29512
811.865	29448
812.007	29623
812.148	29455
812.29	29687
812.431	29668
812.573	29862
812.714	29946
812.855	30015
812.997	30133
813.138	30342
813.279	30144
813.421	30072
813.562	29908
813.703	29859
813.845	29760
813.986	29406
814.127	29330
814.268	29117
814.41	29280
814.551	29208
814.692	29288
814.833	29246
814.974	29159
815.115	29250
815.256	28995
815.397	29200
815.539	29071
815.68	28991
815.821	28991
815.962	29140
816.103	29075
816.244	28927
816.385	28634
816.526	28767
816.666	28717
816.807	28443
816.948	28519
817.089	28443
817.23	28592
817.371	28481
817.512	28527
817.653	28489
817.793	28527
817.934	28573
818.075	28653
818.216	28546
818.356	28455
818.497	28443
818.638	28287
818.778	28318
818.919	28443
819.06	28325
819.2	28516
819.341	28428
819.481	28504
819.622	28717
819.762	28980
819.903	28698
820.043	28767
820.184	28733
820.324	28618
820.465	28755
820.605	28729
820.746	28733
820.886	28470
821.026	28603
821.167	28611
821.307	28694
821.447	28656
821.588	28432
821.728	28474
821.868	28356
822.008	28025
822.149	27960
822.289	27941
822.429	27648
822.569	27778
822.709	27698
822.849	27477
822.99	27545
823.13	27469
823.27	27473
823.41	27306
823.55	27252
823.69	27336
823.83	27336
823.97	27241
824.11	27214
824.25	27199
824.389	27119
824.529	27294
824.669	27275
824.809	27275
824.949	27218
825.089	27310
825.228	27108
825.368	26982
825.508	27043
825.648	27096
825.787	27055
825.927	27127
826.067	27043
826.206	27077
826.346	27100
826.485	27192
826.625	27055
826.765	27119
826.904	27157
827.044	26853
827.183	26887
827.323	26720
827.462	26785
827.601	26895
827.741	26788
827.88	26868
828.02	26746
828.159	26838
828.298	26800
828.437	26876
828.577	26754
828.716	26811
828.855	26788
828.994	26499
829.134	26453
829.273	26492
829.412	26412
829.551	26355
829.69	26453
829.829	26499
829.968	26514
830.107	26469
830.246	26438
830.385	26404
830.524	26400
830.663	26252
830.802	26202
830.941	26218
831.08	25986
831.219	26229
831.357	26077
831.496	26271
831.635	26027
831.774	26035
831.913	25852
832.051	25902
832.19	25784
832.329	25811
832.467	25811
832.606	25715
832.744	25837
832.883	25788
833.022	25666
833.16	25658
833.299	25837
833.437	25769
833.576	25788
833.714	25765
833.852	25864
833.991	25856
834.129	25959
834.267	25746
834.406	25932
834.544	25963
834.682	25940
834.821	25849
834.959	25917
835.097	25681
835.235	25894
835.373	25811
835.511	25715
835.65	25696
835.788	25708
835.926	25476
836.064	25369
836.202	25479
836.34	25715
836.478	25742
836.615	25658
836.753	25586
836.891	25738
837.029	25738
837.167	25411
837.305	25468
837.443	25552
837.58	25616
837.718	25594
837.856	25411
837.993	25358
838.131	25476
838.269	25304
838.406	25422
838.544	25289
838.681	25019
838.819	24947
838.956	24863
839.094	24935
839.231	24992
839.369	25042
839.506	25282
839.643	25023
839.781	24977
839.918	24920
840.055	24951
840.193	24764
840.33	24821
840.467	24840
840.604	24669
840.742	25129
840.879	24696
841.016	24749
841.153	24681
841.29	24932
841.427	24764
841.564	24825
841.701	24734
841.838	24772
841.975	24616
842.112	24795
842.249	24646
842.385	24521
842.522	24783
842.659	24597
842.796	24505
842.933	24627
843.069	24551
843.206	24601
843.343	24616
843.479	24544
843.616	24566
843.752	24407
843.889	24433
844.025	24509
844.162	24357
844.298	24414
844.435	24334
844.571	24308
844.708	24403
844.844	24502
844.98	24528
845.117	24418
845.253	24292
845.389	24239
845.525	24319
845.661	24182
845.798	24159
845.934	24095
846.07	23973
846.206	24155
846.342	24155
846.478	24038
846.614	24026
846.75	23859
846.886	23821
847.022	23828
847.158	23714
847.294	23809
847.429	23836
847.565	23783
847.701	24186
847.837	23589
847.972	23486
848.108	23566
848.244	23531
848.379	23376
848.515	23452
848.65	23322
848.786	23455
848.921	23307
849.057	23406
849.192	23501
849.328	23402
849.463	23410
849.598	23368
849.734	23356
849.869	23235
850.004	23147
850.14	23193
850.275	23208
850.41	23037
850.545	23109
850.68	23136
850.815	23083
850.95	23155
851.085	23372
851.22	23166
851.355	23261
851.49	23090
851.625	23102
851.76	23151
851.895	22980
852.03	23060
852.165	23143
852.299	23197
852.434	23383
852.569	23258
852.703	23170
852.838	23204
852.973	23318
853.107	23261
853.242	23117
853.376	23117
853.511	22923
853.645	22877
853.78	23079
853.914	22999
854.048	23029
854.183	22927
854.317	22968
854.451	23166
854.585	22904
854.72	22957
854.854	23109
854.988	23086
855.122	22957
855.256	22877
855.39	22976
855.524	23060
855.658	23044
855.792	22965
855.926	23010
856.06	22957
856.194	23094
856.327	22877
856.461	22896
856.595	22923
856.729	23048
856.862	23162
856.996	23029
857.13	23124
857.263	22968
857.397	23086
857.53	22987
857.664	23155
857.797	23060
857.931	23113
858.064	23006
858.197	23197
858.331	22896
858.464	22942
858.597	22938
858.731	23025
858.864	22999
858.997	22900
859.13	22999
859.263	22991
859.396	23067
859.529	22934
859.662	22965
859.795	22972
859.928	23014
860.061	23204
860.194	23204
860.327	23143
860.46	22908
860.592	23128
860.725	23159
860.858	23014
860.99	23064
861.123	22980
861.256	22816
861.388	22927
861.521	23684
861.653	22797
861.786	22900
861.918	22805
862.05	22949
862.183	22919
862.315	22904
862.447	22991
862.58	22911
862.712	22721
862.844	22607
862.976	22675
863.108	22767
863.24	23071
863.372	22660
863.504	22618
863.636	22630
863.768	22729
863.9	22717
864.032	22691
864.164	22615
864.296	22771
864.428	22733
864.559	22740
864.691	22847
864.823	22736
864.954	22626
865.086	22634
865.217	22615
865.349	22428
865.48	22717
865.612	22637
865.743	22550
865.875	22523
866.006	22618
866.137	22626
866.269	22497
866.4	22561
866.531	22417
866.662	22470
866.793	22504
866.924	22527
867.055	22523
867.186	22542
867.317	22424
867.448	22295
867.579	22428
867.71	22398
867.841	22333
867.972	22550
868.103	22500
868.233	22306
868.364	22402
868.495	22512
868.625	22683
868.756	22824
868.886	22694
869.017	22626
869.147	22801
869.278	22786
869.408	22793
869.539	22702
869.669	22790
869.799	22771
869.929	22824
870.06	22927
870.19	23052
870.32	23052
870.45	23033
870.58	23056
870.71	23337
870.84	23208
870.97	23060
871.1	23071
871.23	23265
871.36	23315
871.489	23170
871.619	23318
871.749	23353
871.879	23250
872.008	23501
872.138	23315
872.267	23322
872.397	23292
872.526	23197
872.656	23140
872.785	23140
872.915	23414
873.044	23429
873.173	23216
873.303	23299
873.432	23417
873.561	23486
873.69	23292
873.819	23254
873.948	23406
874.077	23307
874.206	23231
874.335	23220
874.464	23524
874.593	23539
874.722	23543
874.851	23531
874.979	23585
875.108	23672
875.237	23455
875.365	23455
875.494	23505
875.623	23539
875.751	23505
875.88	23562
876.008	23611
876.136	23733
876.265	23912
876.393	23999
876.521	23988
876.65	23973
876.778	23961
876.906	23882
877.034	23935
877.162	23897
877.29	23703
877.418	23813
877.546	23901
877.674	23859
877.802	23885
877.93	23783
878.058	23752
878.185	23764
878.313	23832
878.441	23969
878.568	23573
878.696	23840
878.824	23916
878.951	23939
879.079	24095
879.206	24171
879.333	24015
879.461	23939
879.588	24129
879.715	24068
879.842	24155
879.97	24022
880.097	23767
880.224	23710
880.351	23745
880.478	23741
880.605	23737
880.732	23798
880.859	23969
880.986	23600
881.112	23733
881.239	23539
881.366	23341
881.493	23318
881.619	23258
881.746	23277
881.872	23162
881.999	23155
882.125	23083
882.252	23383
882.378	23170
882.505	23296
882.631	23109
882.757	22904
882.883	23121
883.01	22972
883.136	22900
883.262	22702
883.388	22850
883.514	22858
883.64	22938
883.766	22820
883.892	22634
884.018	22740
884.143	22946
884.269	22904
884.395	22713
884.52	22508
884.646	22573
884.772	22474
884.897	22424
885.023	22603
885.148	22565
885.274	22622
885.399	22797
885.524	22550
885.65	22489
885.775	22493
885.9	22557
886.025	22698
886.15	22500
886.275	22478
886.4	22497
886.525	22535
886.65	22504
886.775	22413
886.9	22687
887.025	22706
887.149	22390
887.274	22295
887.399	22272
887.523	22268
887.648	22268
887.773	22207
887.897	22310
888.021	22382
888.146	22238
888.27	22348
888.395	22394
888.519	22337
888.643	22329
888.767	22390
888.891	22215
889.015	22006
889.139	22219
889.263	22109
889.387	22181
889.511	22272
889.635	22238
889.759	22131
889.883	22070
890.006	21994
890.13	22249
890.254	22021
890.377	21842
890.501	21960
890.624	21759
890.748	21823
890.871	21774
890.995	21701
891.118	21603
891.241	21599
891.364	21660
891.488	21793
891.611	21561
891.734	21652
891.857	21641
891.98	21618
892.103	21637
892.226	21656
892.349	21564
892.471	21466
892.594	21637
892.717	21496
892.839	21511
892.962	21492
893.085	21458
893.207	21530
893.33	21325
893.452	21523
893.575	21564
893.697	21439
893.819	21736
893.941	21778
894.064	21648
894.186	21454
894.308	21317
894.43	21660
894.552	21739
894.674	21583
894.796	21355
894.918	21507
895.04	21428
895.161	21488
895.283	21504
895.405	21401
895.526	21401
895.648	21534
895.769	21603
895.891	21481
896.012	21511
896.134	21500
896.255	21580
896.376	21450
896.498	21397
896.619	21511
896.74	21511
896.861	21538
896.982	21850
897.103	21949
897.224	21789
897.345	21686
897.466	21728
897.587	21656
897.708	21755
897.828	21873
897.949	21561
898.07	21466
898.19	21591
898.311	21724
898.431	21545
898.552	21606
898.672	21701
898.792	21755
898.913	21823
899.033	21507
899.153	21534
899.273	21401
899.393	21469
899.513	21549
899.633	21317
899.753	21526
899.873	21252
899.993	21298
900.113	21382
900.232	21363
900.352	21306
900.472	21256
900.591	21096
900.711	21165
900.83	21116
900.95	21230
901.069	21233
901.189	21066
901.308	20986
901.427	20724
901.546	20788
901.665	20659
901.784	20800
901.904	20396
902.023	20389
902.141	20320
902.26	20256
902.379	20400
902.498	20248
902.617	20202
902.735	20317
902.854	20122
902.973	19955
903.091	19944
903.21	19849
903.328	19750
903.446	19784
903.565	19685
903.683	19704
903.801	19753
903.919	19510
904.038	19529
904.156	19285
904.274	19601
904.392	19388
904.51	19400
904.627	19525
904.745	19502
904.863	19457
904.981	19129
905.098	19217
905.216	19145
905.334	19080
905.451	19122
905.569	19050
905.686	19053
905.803	19156
905.921	18852
906.038	18913
906.155	18844
906.272	18829
906.389	18798
906.506	18669
906.623	18639
906.74	18654
906.857	18452
906.974	18517
907.091	18547
907.208	18654
907.324	18627
907.441	18441
907.557	18391
907.674	18342
907.79	18376
907.907	18292
908.023	18410
908.139	18270
908.256	18285
908.372	18232
908.488	18140
908.604	18053
908.72	18049
908.836	18095
908.952	17984
909.068	18102
909.184	18197
909.3	18007
909.415	18003
909.531	17935
909.647	17745
909.762	17649
909.878	17718
909.993	17764
910.108	17661
910.224	17638
910.339	17627
910.454	17668
910.57	17524
910.685	17452
910.8	17737
910.915	17638
911.03	17493
911.145	17341
911.259	17254
911.374	17322
911.489	17178
911.604	17117
911.718	17052
911.833	17052
911.947	16934
912.062	16892
912.176	17045
912.291	17033
912.405	16999
912.519	17094
912.633	17128
912.748	17029
912.862	17003
912.976	16908
913.09	16767
913.204	16683
913.318	16748
913.431	16850
913.545	16949
913.659	16972
913.772	16774
913.886	16679
914	16615
914.113	16561
914.226	16733
914.34	16721
914.453	16569
914.566	16725
914.68	16451
914.793	16436
914.906	16299
915.019	16071
915.132	16097
915.245	16158
915.358	16242
915.47	16234
915.583	16207
915.696	16154
915.809	16200
915.921	16325
916.034	16181
916.146	15994
916.259	15979
916.371	16101
916.483	16147
916.595	16093
916.708	15918
916.82	16048
916.932	16051
917.044	16002
917.156	15876
917.268	15785
917.38	15823
917.491	15743
917.603	15804
917.715	15903
917.826	15945
917.938	15720
918.049	15633
918.161	15793
918.272	15888
918.384	15781
918.495	15838
918.606	15587
918.717	15458
918.828	15553
918.939	15606
919.05	15466
919.161	15610
919.272	15393
919.383	15287
919.494	15549
919.604	15709
919.715	15443
919.826	15420
919.936	15359
920.047	15530
920.157	15454
920.267	15667
920.378	15523
920.488	15428
920.598	15595
920.708	15766
920.818	15545
920.928	15629
921.038	15728
921.148	15610
921.258	15401
921.368	15317
921.477	15226
921.587	15230
921.697	15036
921.806	15165
921.916	15055
922.025	14807
922.134	14861
922.244	14861
922.353	14864
922.462	14648
922.571	14663
922.68	14617
922.789	14503
922.898	14492
923.007	14473
923.116	14457
923.224	14408
923.333	14465
923.442	14309
923.55	14233
923.659	14320
923.767	14381
923.876	14214
923.984	14290
924.092	14183
924.201	14176
924.309	14111
924.417	14183
924.525	14031
924.633	14088
924.741	14891
924.849	13906
924.956	14077
925.064	13906
925.172	13906
925.279	13750
925.387	13883
925.494	13765
925.602	13898
925.709	13864
925.816	13723
925.924	13826
926.031	13826
926.138	13772
926.245	13700
926.352	13582
926.459	13791
926.566	13883
926.673	13677
926.779	13472
926.886	13540
926.993	13441
927.099	13350
927.206	13346
927.312	13289
927.419	13304
927.525	13274
927.631	13263
927.737	13209
927.843	13145
927.95	13031
928.056	13107
928.162	13228
928.267	13171
928.373	13837
928.479	13175
928.585	13000
928.69	13069
928.796	13187
928.901	12993
929.007	12806
929.112	13088
929.218	12996
929.323	12897
929.428	12882
929.533	12947
929.638	12734
929.743	12837
929.848	12875
929.953	12859
930.058	12673
930.163	12578
930.267	12509
930.372	12700
930.477	12502
930.581	12719
930.685	12574
930.79	12414
930.894	12369
930.998	12388
931.103	12498
931.207	12117
931.311	12068
931.415	11847
931.519	11798
931.623	11764
