Data from test_V78500241_2649.txt Node
Date: Fri Mar 25 16:00:09 CST 2022
User: usil
Spectrometer: V785-0024
Trigger mode: 0
Integration Time (sec): 4.000000E-1
Scans to average: 1
Nonlinearity correction enabled: false
Boxcar width: 0
Storing dark spectrum: false
XAxis mode: Wavelengths
Number of Pixels in Spectrum: 1024
>>>>>Begin Spectral Data<<<<<
801.071	28599
801.214	28550
801.356	28360
801.499	28223
801.641	28177
801.783	28185
801.926	28181
802.068	28105
802.211	28154
802.353	28105
802.496	27876
802.638	27835
802.78	27903
802.923	27743
803.065	27816
803.208	27804
803.35	27899
803.492	28002
803.635	28124
803.777	28002
803.919	28150
804.061	28409
804.204	28120
804.346	28128
804.488	27960
804.63	28032
804.773	27979
804.915	28055
805.057	28143
805.199	28192
805.341	28188
805.483	28196
805.626	28147
805.768	28166
805.91	28150
806.052	28314
806.194	27975
806.336	28356
806.478	28295
806.62	28196
806.762	28398
806.904	28481
807.046	28805
807.188	28656
807.33	28649
807.472	28607
807.614	28668
807.756	28607
807.898	28786
808.04	28451
808.182	28546
808.324	28607
808.465	28561
808.607	28847
808.749	28999
808.891	29109
809.033	29140
809.174	28949
809.316	28968
809.458	28888
809.6	28866
809.741	28900
809.883	29083
810.025	29296
810.166	29155
810.308	29060
810.45	29086
810.591	29083
810.733	28885
810.875	28850
811.016	28721
811.158	28934
811.299	28999
811.441	28999
811.582	29064
811.724	28961
811.865	28980
812.007	29025
812.148	29052
812.29	28987
812.431	29029
812.573	29265
812.714	29311
812.855	29490
812.997	29581
813.138	29539
813.279	29600
813.421	29531
813.562	29417
813.703	29151
813.845	29109
813.986	28839
814.127	28698
814.268	28580
814.41	28713
814.551	28816
814.692	28554
814.833	28691
814.974	28584
815.115	28618
815.256	28516
815.397	28554
815.539	28512
815.68	28363
815.821	28344
815.962	28436
816.103	28550
816.244	28360
816.385	28382
816.526	28284
816.666	28025
816.807	28051
816.948	27983
817.089	28059
817.23	28021
817.371	27812
817.512	27911
817.653	27949
817.793	28002
817.934	27838
818.075	27926
818.216	27937
818.356	27895
818.497	27991
818.638	27637
818.778	27667
818.919	27561
819.06	27838
819.2	27911
819.341	27873
819.481	28029
819.622	28082
819.762	28257
819.903	28200
820.043	28131
820.184	28207
820.324	28238
820.465	28287
820.605	28211
820.746	28101
820.886	27956
821.026	27972
821.167	27888
821.307	28116
821.447	27949
821.588	27895
821.728	27774
821.868	27675
822.008	27534
822.149	27488
822.289	27405
822.429	27043
822.569	27150
822.709	27112
822.849	27009
822.99	26864
823.13	26838
823.27	26887
823.41	26758
823.55	26648
823.69	26758
823.83	26689
823.97	26727
824.11	26602
824.25	26552
824.389	26636
824.529	26697
824.669	26469
824.809	26667
824.949	26773
825.089	26777
825.228	26693
825.368	26393
825.508	26427
825.648	26492
825.787	26412
825.927	26541
826.067	26415
826.206	26450
826.346	26476
826.485	26499
826.625	26450
826.765	26587
826.904	26446
827.044	26233
827.183	26320
827.323	26081
827.462	26176
827.601	26290
827.741	26256
827.88	26183
828.02	26031
828.159	26271
828.298	26400
828.437	26221
828.577	26218
828.716	26301
828.855	26046
828.994	25871
829.134	25936
829.273	25913
829.412	25860
829.551	25890
829.69	25803
829.829	25837
829.968	25959
830.107	25963
830.246	25849
830.385	25833
830.524	25928
830.663	25666
830.802	25575
830.941	25502
831.08	25346
831.219	25544
831.357	25594
831.496	25655
831.635	25426
831.774	25301
831.913	25362
832.051	25190
832.19	25160
832.329	25228
832.467	25145
832.606	25031
832.744	25065
832.883	25145
833.022	25065
833.16	24992
833.299	25137
833.437	25148
833.576	25346
833.714	25247
833.852	25122
833.991	25301
834.129	25263
834.267	25213
834.406	25285
834.544	25266
834.682	25145
834.821	25152
834.959	25316
835.097	25240
835.235	25198
835.373	25145
835.511	25152
835.65	25103
835.788	25053
835.926	24913
836.064	24856
836.202	24958
836.34	24947
836.478	25171
836.615	25000
836.753	24966
836.891	25069
837.029	25065
837.167	25072
837.305	24958
837.443	24856
837.58	24795
837.718	24878
837.856	24954
837.993	24749
838.131	24844
838.269	24757
838.406	24863
838.544	24726
838.681	24646
838.819	24433
838.956	24327
839.094	24388
839.231	24346
839.369	24330
839.506	24601
839.643	24528
839.781	24365
839.918	24251
840.055	24300
840.193	24273
840.33	24292
840.467	24201
840.604	24330
840.742	24498
840.879	24182
841.016	24171
841.153	24136
841.29	24384
841.427	24247
841.564	24155
841.701	24213
841.838	24129
841.975	24133
842.112	24178
842.249	24007
842.385	24003
842.522	24121
842.659	24076
842.796	23908
842.933	23996
843.069	24022
843.206	24015
843.343	24091
843.479	23893
843.616	24007
843.752	23718
843.889	23973
844.025	23908
844.162	23687
844.298	23889
844.435	23714
844.571	23653
844.708	23729
844.844	23923
844.98	23897
845.117	23756
845.253	23707
845.389	23649
845.525	23623
845.661	23581
845.798	23509
845.934	23509
846.07	23372
846.206	23452
846.342	23539
846.478	23524
846.614	23235
846.75	23143
846.886	23307
847.022	23318
847.158	23326
847.294	23143
847.429	23212
847.565	23109
847.701	23455
847.837	22869
847.972	22980
848.108	23010
848.244	23052
848.379	22805
848.515	22862
848.65	22683
848.786	22778
848.921	22755
849.057	22923
849.192	22908
849.328	22850
849.463	22927
849.598	22805
849.734	22706
849.869	22736
850.004	22561
850.14	22645
850.275	22451
850.41	22504
850.545	22455
850.68	22577
850.815	22660
850.95	22710
851.085	22816
851.22	22615
851.355	22531
851.49	22561
851.625	22538
851.76	22440
851.895	22428
852.03	22504
852.165	22569
852.299	22550
852.434	22542
852.569	22546
852.703	22550
852.838	22717
852.973	22679
853.107	22557
853.242	22710
853.376	22280
853.511	22177
853.645	22459
853.78	22542
853.914	22424
854.048	22382
854.183	22352
854.317	22306
854.451	22538
854.585	22440
854.72	22436
854.854	22565
854.988	22375
855.122	22413
855.256	22363
855.39	22470
855.524	22428
855.658	22508
855.792	22417
855.926	22360
856.06	22371
856.194	22470
856.327	22276
856.461	22352
856.595	22325
856.729	22481
856.862	22428
856.996	22508
857.13	22478
857.263	22607
857.397	22409
857.53	22398
857.664	22466
857.797	22527
857.931	22554
858.064	22337
858.197	22497
858.331	22261
858.464	22390
858.597	22405
858.731	22379
858.864	22447
858.997	22455
859.13	22394
859.263	22394
859.396	22459
859.529	22390
859.662	22333
859.795	22337
859.928	22371
860.061	22519
860.194	22569
860.327	22538
860.46	22459
860.592	22489
860.725	22603
860.858	22561
860.99	22428
861.123	22512
861.256	22436
861.388	22554
861.521	23174
861.653	22409
861.786	22242
861.918	22230
862.05	22070
862.183	22337
862.315	22356
862.447	22341
862.58	22207
862.712	22128
862.844	22177
862.976	22310
863.108	22017
863.24	22485
863.372	22128
863.504	22242
863.636	22109
863.768	22036
863.9	22063
864.032	22128
864.164	22238
864.296	22185
864.428	22310
864.559	22128
864.691	22223
864.823	22078
864.954	22154
865.086	22162
865.217	22120
865.349	21949
865.48	21956
865.612	21975
865.743	22055
865.875	21857
866.006	21956
866.137	22017
866.269	22044
866.4	21983
866.531	22021
866.662	21865
866.793	22010
866.924	21926
867.055	21918
867.186	21937
867.317	21964
867.448	21797
867.579	21972
867.71	21842
867.841	21819
867.972	21945
868.103	21945
868.233	21907
868.364	21880
868.495	21899
868.625	22166
868.756	22272
868.886	22116
869.017	22215
869.147	22310
869.278	22356
869.408	22230
869.539	22272
869.669	22219
869.799	22196
869.929	22371
870.06	22181
870.19	22440
870.32	22382
870.45	22554
870.58	22493
870.71	22675
870.84	22607
870.97	22523
871.1	22717
871.23	22733
871.36	22763
871.489	22752
871.619	22691
871.749	22805
871.879	22797
872.008	22873
872.138	22820
872.267	22858
872.397	22523
872.526	22618
872.656	22672
872.785	22603
872.915	22919
873.044	22908
873.173	22828
873.303	22866
873.432	22752
873.561	22938
873.69	22733
873.819	22771
873.948	22820
874.077	22725
874.206	22812
874.335	22755
874.464	22862
874.593	22953
874.722	22980
874.851	23090
874.979	23090
875.108	22915
875.237	23025
875.365	22911
875.494	22949
875.623	23052
875.751	22831
875.88	23029
876.008	23010
876.136	23128
876.265	23410
876.393	23547
876.521	23467
876.65	23516
876.778	23372
876.906	23383
877.034	23337
877.162	23303
877.29	23299
877.418	23410
877.546	23387
877.674	23376
877.802	23303
877.93	23311
878.058	23387
878.185	23178
878.313	23326
878.441	23349
878.568	23159
878.696	23417
878.824	23326
878.951	23520
879.079	23547
879.206	23554
879.333	23471
879.461	23509
879.588	23493
879.715	23547
879.842	23611
879.97	23391
880.097	23204
880.224	23033
880.351	23193
880.478	23151
880.605	23064
880.732	23200
880.859	23353
880.986	23121
881.112	23250
881.239	23094
881.366	22869
881.493	22797
881.619	22816
881.746	22687
881.872	22691
881.999	22694
882.125	22660
882.252	22881
882.378	22733
882.505	22869
882.631	22615
882.757	22341
882.883	22504
883.01	22360
883.136	22417
883.262	22318
883.388	22223
883.514	22455
883.64	22428
883.766	22329
883.892	22230
884.018	22238
884.143	22394
884.269	22417
884.395	22086
884.52	22059
884.646	22101
884.772	21991
884.897	21975
885.023	22032
885.148	22154
885.274	22188
885.399	22173
885.524	21949
885.65	21968
885.775	21991
885.9	21972
886.025	22078
886.15	21975
886.275	22059
886.4	21915
886.525	21934
886.65	22029
886.775	21880
886.9	22040
887.025	22181
887.149	22017
887.274	21934
887.399	21781
887.523	21854
887.648	21724
887.773	21736
887.897	21747
888.021	21835
888.146	21656
888.27	21876
888.395	21816
888.519	21736
888.643	21869
888.767	21808
888.891	21823
889.015	21568
889.139	21629
889.263	21431
889.387	21743
889.511	21892
889.635	21705
889.759	21507
889.883	21633
890.006	21519
890.13	21618
890.254	21488
890.377	21511
890.501	21252
890.624	21340
890.748	21359
890.871	21241
890.995	21093
891.118	21093
891.241	21131
891.364	21249
891.488	21237
891.611	21135
891.734	21138
891.857	21184
891.98	21138
892.103	21138
892.226	21169
892.349	20914
892.471	20891
892.594	21036
892.717	21077
892.839	21001
892.962	20925
893.085	21085
893.207	21104
893.33	20895
893.452	20891
893.575	21047
893.697	21024
893.819	21135
893.941	21180
894.064	21237
894.186	21043
894.308	21001
894.43	21127
894.552	21119
894.674	21203
894.796	20876
894.918	20944
895.04	20948
895.161	21104
895.283	21066
895.405	20861
895.526	21051
895.648	21032
895.769	21039
895.891	21013
896.012	21104
896.134	21058
896.255	20963
896.376	20906
896.498	20986
896.619	21009
896.74	21001
896.861	21013
896.982	21252
897.103	21382
897.224	21336
897.345	21233
897.466	21131
897.587	21131
897.708	21294
897.828	21302
897.949	21169
898.07	21085
898.19	21211
898.311	21154
898.431	21127
898.552	21173
898.672	21310
898.792	21256
898.913	21245
899.033	21081
899.153	21055
899.273	20891
899.393	20880
899.513	20933
899.633	20910
899.753	20967
899.873	20918
899.993	20941
900.113	20925
900.232	20910
900.352	20933
900.472	20716
900.591	20834
900.711	20769
900.83	20788
900.95	20868
901.069	20868
901.189	20583
901.308	20423
901.427	20267
901.546	20343
901.665	20301
901.784	20221
901.904	20153
902.023	20065
902.141	19868
902.26	19890
902.379	19807
902.498	19780
902.617	19772
902.735	19799
902.854	19753
902.973	19727
903.091	19506
903.21	19407
903.328	19377
903.446	19388
903.565	19327
903.683	19289
903.801	19217
903.919	19118
904.038	19069
904.156	18996
904.274	19012
904.392	18859
904.51	18970
904.627	18928
904.745	19084
904.863	19110
904.981	18764
905.098	18791
905.216	18707
905.334	18707
905.451	18684
905.569	18597
905.686	18749
905.803	18620
905.921	18509
906.038	18475
906.155	18410
906.272	18308
906.389	18319
906.506	18114
906.623	18110
906.74	18209
906.857	18068
906.974	18022
907.091	18216
907.208	18372
907.324	18266
907.441	18194
907.557	17863
907.674	17961
907.79	17866
907.907	17885
908.023	17859
908.139	17889
908.256	17843
908.372	17840
908.488	17718
908.604	17627
908.72	17512
908.836	17630
908.952	17600
909.068	17775
909.184	17779
909.3	17707
909.415	17638
909.531	17638
909.647	17417
909.762	17269
909.878	17326
909.993	17227
910.108	17273
910.224	17246
910.339	17254
910.454	17242
910.57	17147
910.685	17048
910.8	17288
910.915	17269
911.03	17075
911.145	16972
911.259	16881
911.374	16873
911.489	16771
911.604	16725
911.718	16561
911.833	16713
911.947	16489
912.062	16402
912.176	16653
912.291	16538
912.405	16656
912.519	16805
912.633	16725
912.748	16702
912.862	16558
912.976	16481
913.09	16360
913.204	16497
913.318	16523
913.431	16546
913.545	16546
913.659	16618
913.772	16386
913.886	16276
914	16219
914.113	16261
914.226	16291
914.34	16238
914.453	16086
914.566	16249
914.68	16112
914.793	16025
914.906	15838
915.019	15850
915.132	15701
915.245	15831
915.358	15774
915.47	15819
915.583	15846
915.696	15808
915.809	15975
915.921	15895
916.034	15698
916.146	15694
916.259	15675
916.371	15762
916.483	15812
916.595	15595
916.708	15610
916.82	15766
916.932	15572
917.044	15519
917.156	15568
917.268	15424
917.38	15420
917.491	15408
917.603	15462
917.715	15485
917.826	15576
917.938	15389
918.049	15325
918.161	15393
918.272	15466
918.384	15469
918.495	15386
918.606	15195
918.717	15123
918.828	15218
918.939	15199
919.05	15066
919.161	15135
919.272	14937
919.383	14971
919.494	15180
919.604	15367
919.715	15058
919.826	14944
919.936	15135
920.047	15192
920.157	15108
920.267	15408
920.378	15135
920.488	15051
920.598	15237
920.708	15355
920.818	15291
920.928	15260
921.038	15408
921.148	15435
921.258	15085
921.368	14918
921.477	14857
921.587	14937
921.697	14785
921.806	14857
921.916	14769
922.025	14469
922.134	14438
922.244	14476
922.353	14499
922.462	14362
922.571	14389
922.68	14149
922.789	14183
922.898	14240
923.007	14149
923.116	14157
923.224	13959
923.333	14100
923.442	14035
923.55	14054
923.659	14046
923.767	14012
923.876	13906
923.984	13936
924.092	13738
924.201	13883
924.309	13860
924.417	13818
924.525	13750
924.633	13826
924.741	14796
924.849	13525
924.956	13712
925.064	13734
925.172	13483
925.279	13491
925.387	13468
925.494	13529
925.602	13632
925.709	13556
925.816	13438
925.924	13422
926.031	13571
926.138	13422
926.245	13476
926.352	13369
926.459	13529
926.566	13548
926.673	13396
926.779	13335
926.886	13221
926.993	13118
927.099	13103
927.206	13008
927.312	12970
927.419	12981
927.525	13053
927.631	13057
927.737	12947
927.843	12913
927.95	12734
928.056	12859
928.162	12951
928.267	12871
928.373	13411
928.479	12928
928.585	12711
928.69	12844
928.796	12817
928.901	12741
929.007	12525
929.112	12639
929.218	12681
929.323	12646
929.428	12566
929.533	12787
929.638	12486
929.743	12551
929.848	12513
929.953	12536
930.058	12471
930.163	12262
930.267	12243
930.372	12407
930.477	12197
930.581	12418
930.685	12224
930.79	12117
930.894	12155
930.998	12152
931.103	12247
931.207	11874
931.311	11828
931.415	11691
931.519	11490
931.623	11478
