Data from test_V78500241_1906.txt Node
Date: Fri Mar 25 15:55:00 CST 2022
User: usil
Spectrometer: V785-0024
Trigger mode: 0
Integration Time (sec): 4.000000E-1
Scans to average: 1
Nonlinearity correction enabled: false
Boxcar width: 0
Storing dark spectrum: false
XAxis mode: Wavelengths
Number of Pixels in Spectrum: 1024
>>>>>Begin Spectral Data<<<<<
801.071	28797
801.214	28881
801.356	28508
801.499	28531
801.641	28398
801.783	28348
801.926	28405
802.068	28230
802.211	28413
802.353	28238
802.496	28265
802.638	28105
802.78	27991
802.923	28002
803.065	27930
803.208	28063
803.35	28040
803.492	28139
803.635	28265
803.777	28207
803.919	28291
804.061	28672
804.204	28318
804.346	28276
804.488	28135
804.63	28196
804.773	28192
804.915	28280
805.057	28462
805.199	28276
805.341	28386
805.483	28504
805.626	28401
805.768	28325
805.91	28344
806.052	28443
806.194	28303
806.336	28573
806.478	28478
806.62	28451
806.762	28615
806.904	28752
807.046	28900
807.188	28843
807.33	28900
807.472	29075
807.614	28892
807.756	28881
807.898	28774
808.04	28702
808.182	28592
808.324	28759
808.465	28835
808.607	29079
808.749	29094
808.891	29242
809.033	29368
809.174	29159
809.316	29117
809.458	29067
809.6	28999
809.741	29292
809.883	29315
810.025	29486
810.166	29509
810.308	29524
810.45	29368
810.591	29284
810.733	29117
810.875	29117
811.016	28991
811.158	29010
811.299	29235
811.441	29334
811.582	29349
811.724	29151
811.865	29197
812.007	29003
812.148	29204
812.29	29159
812.431	29345
812.573	29547
812.714	29497
812.855	29668
812.997	29897
813.138	29836
813.279	29870
813.421	29714
813.562	29630
813.703	29562
813.845	29303
813.986	29098
814.127	28999
814.268	28778
814.41	28862
814.551	28927
814.692	28824
814.833	28790
814.974	28733
815.115	28755
815.256	28725
815.397	28748
815.539	28831
815.68	28691
815.821	28664
815.962	28672
816.103	28744
816.244	28542
816.385	28424
816.526	28504
816.666	28124
816.807	28261
816.948	28215
817.089	28238
817.23	28173
817.371	27975
817.512	28223
817.653	28032
817.793	28173
817.934	28215
818.075	28139
818.216	28013
818.356	28147
818.497	28109
818.638	27922
818.778	27914
818.919	27873
819.06	28040
819.2	28074
819.341	28044
819.481	28124
819.622	28223
819.762	28470
819.903	28447
820.043	28356
820.184	28257
820.324	28337
820.465	28401
820.605	28401
820.746	28341
820.886	28276
821.026	28162
821.167	28181
821.307	28470
821.447	28200
821.588	28154
821.728	28051
821.868	27762
822.008	27686
822.149	27667
822.289	27538
822.429	27355
822.569	27401
822.709	27393
822.849	27146
822.99	27199
823.13	27100
823.27	27108
823.41	26940
823.55	26826
823.69	26975
823.83	27062
823.97	26998
824.11	26785
824.25	26750
824.389	26773
824.529	26937
824.669	26765
824.809	26952
824.949	27005
825.089	26960
825.228	26940
825.368	26564
825.508	26640
825.648	26625
825.787	26609
825.927	26731
826.067	26727
826.206	26708
826.346	26796
826.485	26792
826.625	26621
826.765	26762
826.904	26686
827.044	26423
827.183	26560
827.323	26278
827.462	26450
827.601	26507
827.741	26351
827.88	26389
828.02	26324
828.159	26294
828.298	26355
828.437	26434
828.577	26229
828.716	26476
828.855	26225
828.994	26092
829.134	26176
829.273	26180
829.412	26111
829.551	26054
829.69	26130
829.829	26183
829.968	26267
830.107	26088
830.246	26134
830.385	26050
830.524	26065
830.663	25849
830.802	25849
830.941	25750
831.08	25677
831.219	25685
831.357	25677
831.496	25902
831.635	25788
831.774	25571
831.913	25632
832.051	25373
832.19	25449
832.329	25464
832.467	25419
832.606	25369
832.744	25156
832.883	25240
833.022	25240
833.16	25400
833.299	25373
833.437	25434
833.576	25430
833.714	25563
833.852	25457
833.991	25438
834.129	25514
834.267	25441
834.406	25365
834.544	25525
834.682	25396
834.821	25441
834.959	25590
835.097	25316
835.235	25324
835.373	25354
835.511	25335
835.65	25350
835.788	25304
835.926	25225
836.064	24981
836.202	25148
836.34	25164
836.478	25278
836.615	25156
836.753	25297
836.891	25407
837.029	25251
837.167	25164
837.305	25141
837.443	25152
837.58	25057
837.718	24985
837.856	25133
837.993	25065
838.131	25004
838.269	24966
838.406	25012
838.544	24764
838.681	24810
838.819	24707
838.956	24513
839.094	24483
839.231	24456
839.369	24768
839.506	24882
839.643	24677
839.781	24578
839.918	24551
840.055	24578
840.193	24403
840.33	24555
840.467	24513
840.604	24525
840.742	24604
840.879	24410
841.016	24285
841.153	24300
841.29	24517
841.427	24445
841.564	24547
841.701	24422
841.838	24365
841.975	24281
842.112	24376
842.249	24357
842.385	24213
842.522	24407
842.659	24224
842.796	24167
842.933	24224
843.069	24205
843.206	24213
843.343	24133
843.479	24228
843.616	24174
843.752	23965
843.889	23946
844.025	24087
844.162	23851
844.298	24102
844.435	23999
844.571	23912
844.708	23999
844.844	24136
844.98	24129
845.117	24030
845.253	23813
845.389	23756
845.525	23889
845.661	23790
845.798	23699
845.934	23733
846.07	23699
846.206	23733
846.342	23931
846.478	23642
846.614	23467
846.75	23277
846.886	23246
847.022	23486
847.158	23414
847.294	23455
847.429	23425
847.565	23387
847.701	23653
847.837	23113
847.972	23117
848.108	23299
848.244	23132
848.379	23083
848.515	22934
848.65	23124
848.786	22968
848.921	22999
849.057	23151
849.192	23029
849.328	23064
849.463	23075
849.598	22866
849.734	22869
849.869	22786
850.004	22729
850.14	22744
850.275	22801
850.41	22656
850.545	22656
850.68	22752
850.815	22729
850.95	22843
851.085	22968
851.22	22869
851.355	22889
851.49	22774
851.625	22774
851.76	22645
851.895	22573
852.03	22679
852.165	22721
852.299	22782
852.434	22831
852.569	22782
852.703	22786
852.838	22752
852.973	22835
853.107	22816
853.242	22637
853.376	22618
853.511	22493
853.645	22603
853.78	22679
853.914	22641
854.048	22687
854.183	22516
854.317	22626
854.451	22892
854.585	22649
854.72	22634
854.854	22645
854.988	22504
855.122	22523
855.256	22360
855.39	22451
855.524	22554
855.658	22546
855.792	22592
855.926	22603
856.06	22641
856.194	22717
856.327	22565
856.461	22497
856.595	22451
856.729	22447
856.862	22790
856.996	22691
857.13	22706
857.263	22759
857.397	22713
857.53	22538
857.664	22694
857.797	22668
857.931	22645
858.064	22812
858.197	22748
858.331	22603
858.464	22519
858.597	22474
858.731	22527
858.864	22462
858.997	22599
859.13	22622
859.263	22618
859.396	22592
859.529	22421
859.662	22542
859.795	22512
859.928	22504
860.061	22706
860.194	22767
860.327	22557
860.46	22557
860.592	22828
860.725	22778
860.858	22653
860.99	22580
861.123	22565
861.256	22523
861.388	22531
861.521	23231
861.653	22424
861.786	22360
861.918	22409
862.05	22508
862.183	22557
862.315	22573
862.447	22516
862.58	22447
862.712	22360
862.844	22253
862.976	22329
863.108	22242
863.24	22774
863.372	22268
863.504	22268
863.636	22306
863.768	22287
863.9	22291
864.032	22105
864.164	22280
864.296	22253
864.428	22421
864.559	22322
864.691	22280
864.823	22322
864.954	22318
865.086	22246
865.217	22112
865.349	22135
865.48	22147
865.612	22249
865.743	22386
865.875	22021
866.006	22177
866.137	22192
866.269	22181
866.4	22112
866.531	22215
866.662	22040
866.793	22063
866.924	22040
867.055	22093
867.186	21991
867.317	22204
867.448	22006
867.579	22150
867.71	21876
867.841	21930
867.972	22048
868.103	22090
868.233	22067
868.364	22120
868.495	22154
868.625	22242
868.756	22451
868.886	22215
869.017	22272
869.147	22382
869.278	22451
869.408	22363
869.539	22310
869.669	22478
869.799	22432
869.929	22523
870.06	22512
870.19	22782
870.32	22584
870.45	22694
870.58	22672
870.71	22786
870.84	22812
870.97	22790
871.1	22752
871.23	22930
871.36	22850
871.489	22801
871.619	22904
871.749	22904
871.879	22900
872.008	22927
872.138	22892
872.267	22908
872.397	22668
872.526	22725
872.656	22577
872.785	22790
872.915	22995
873.044	22984
873.173	22911
873.303	22877
873.432	22869
873.561	23086
873.69	22976
873.819	22961
873.948	23025
874.077	23067
874.206	22953
874.335	22995
874.464	23132
874.593	23041
874.722	23083
874.851	23231
874.979	23227
875.108	23246
875.237	23018
875.365	23083
875.494	23090
875.623	23178
875.751	23189
875.88	23231
876.008	23292
876.136	23315
876.265	23398
876.393	23672
876.521	23547
876.65	23627
876.778	23528
876.906	23497
877.034	23520
877.162	23509
877.29	23490
877.418	23512
877.546	23516
877.674	23585
877.802	23558
877.93	23619
878.058	23448
878.185	23235
878.313	23436
878.441	23356
878.568	23311
878.696	23471
878.824	23421
878.951	23467
879.079	23684
879.206	23874
879.333	23627
879.461	23512
879.588	23756
879.715	23596
879.842	23916
879.97	23775
880.097	23223
880.224	23212
880.351	23356
880.478	23341
880.605	23265
880.732	23231
880.859	23619
880.986	23410
881.112	23315
881.239	23254
881.366	22957
881.493	23071
881.619	22896
881.746	22911
881.872	22809
881.999	22797
882.125	22889
882.252	22828
882.378	22668
882.505	22927
882.631	22740
882.757	22592
882.883	22565
883.01	22508
883.136	22459
883.262	22337
883.388	22344
883.514	22561
883.64	22561
883.766	22375
883.892	22363
884.018	22188
884.143	22462
884.269	22504
884.395	22257
884.52	22090
884.646	22287
884.772	22173
884.897	21968
885.023	22238
885.148	22261
885.274	22280
885.399	22192
885.524	22268
885.65	22299
885.775	22230
885.9	22162
886.025	22284
886.15	22192
886.275	22120
886.4	21972
886.525	22120
886.65	22173
886.775	22166
886.9	22150
887.025	22352
887.149	22154
887.274	21918
887.399	21926
887.523	21880
887.648	21880
887.773	21892
887.897	21964
888.021	22036
888.146	21876
888.27	21857
888.395	22029
888.519	21949
888.643	21861
888.767	21960
888.891	21819
889.015	21797
889.139	21781
889.263	21625
889.387	21816
889.511	21960
889.635	21835
889.759	21618
889.883	21694
890.006	21728
890.13	21793
890.254	21720
890.377	21641
890.501	21469
890.624	21344
890.748	21382
890.871	21351
890.995	21283
891.118	21150
891.241	21256
891.364	21237
891.488	21424
891.611	21252
891.734	21249
891.857	21412
891.98	21256
892.103	21370
892.226	21226
892.349	21256
892.471	20986
892.594	21192
892.717	21138
892.839	21294
892.962	21093
893.085	21165
893.207	21066
893.33	21150
893.452	21051
893.575	21142
893.697	21020
893.819	21226
893.941	21325
894.064	21374
894.186	21116
894.308	21070
894.43	21268
894.552	21214
894.674	21211
894.796	21066
894.918	21150
895.04	21047
895.161	21207
895.283	21192
895.405	21093
895.526	21116
895.648	21051
895.769	21108
895.891	21203
896.012	21051
896.134	21249
896.255	21222
896.376	21195
896.498	21017
896.619	21188
896.74	21260
896.861	21104
896.982	21504
897.103	21564
897.224	21378
897.345	21416
897.466	21336
897.587	21329
897.708	21477
897.828	21336
897.949	21260
898.07	21192
898.19	21222
898.311	21283
898.431	21325
898.552	21279
898.672	21283
898.792	21519
898.913	21359
899.033	21161
899.153	21180
899.273	21039
899.393	21093
899.513	21150
899.633	20979
899.753	21104
899.873	20914
899.993	21104
900.113	20872
900.232	21135
900.352	21017
900.472	20842
900.591	20868
900.711	20788
900.83	20682
900.95	20982
901.069	20819
901.189	20739
901.308	20434
901.427	20423
901.546	20339
901.665	20377
901.784	20377
901.904	20267
902.023	20271
902.141	19947
902.26	19875
902.379	19978
902.498	19887
902.617	19788
902.735	19826
902.854	19845
902.973	19818
903.091	19696
903.21	19525
903.328	19533
903.446	19460
903.565	19335
903.683	19384
903.801	19209
903.919	19232
904.038	19164
904.156	19118
904.274	19213
904.392	19110
904.51	19107
904.627	19038
904.745	19088
904.863	19122
904.981	18913
905.098	18715
905.216	18753
905.334	18817
905.451	18772
905.569	18726
905.686	18711
905.803	18753
905.921	18551
906.038	18563
906.155	18578
906.272	18536
906.389	18486
906.506	18323
906.623	18399
906.74	18300
906.857	18239
906.974	18178
907.091	18391
907.208	18403
907.324	18277
907.441	18277
907.557	18019
907.674	18030
907.79	18041
907.907	18083
908.023	18087
908.139	17889
908.256	17904
908.372	17840
908.488	17942
908.604	17764
908.72	17653
908.836	17691
908.952	17718
909.068	17741
909.184	17764
909.3	17634
909.415	17676
909.531	17737
909.647	17383
909.762	17524
909.878	17353
909.993	17398
910.108	17436
910.224	17356
910.339	17410
910.454	17174
910.57	17250
910.685	17235
910.8	17406
910.915	17322
911.03	17273
911.145	17060
911.259	17041
911.374	16968
911.489	16873
911.604	16919
911.718	16668
911.833	16839
911.947	16694
912.062	16615
912.176	16736
912.291	16721
912.405	16805
912.519	16968
912.633	16934
912.748	16782
912.862	16782
912.976	16573
913.09	16470
913.204	16497
913.318	16584
913.431	16679
913.545	16554
913.659	16706
913.772	16512
913.886	16497
914	16428
914.113	16360
914.226	16428
914.34	16405
914.453	16242
914.566	16405
914.68	16169
914.793	16207
914.906	15987
915.019	15895
915.132	15930
915.245	15922
915.358	15903
915.47	15876
915.583	15812
915.696	15941
915.809	16071
915.921	16071
916.034	15911
916.146	15766
916.259	15800
916.371	15918
916.483	15812
916.595	15835
916.708	15648
916.82	15637
916.932	15728
917.044	15682
917.156	15614
917.268	15488
917.38	15591
917.491	15538
917.603	15568
917.715	15561
917.826	15618
917.938	15405
918.049	15332
918.161	15431
918.272	15538
918.384	15625
918.495	15412
918.606	15291
918.717	15245
918.828	15332
918.939	15203
919.05	15218
919.161	15256
919.272	15020
919.383	15081
919.494	15359
919.604	15485
919.715	15230
919.826	15089
919.936	15222
920.047	15169
920.157	15275
920.267	15340
920.378	15184
920.488	15237
920.598	15359
920.708	15481
920.818	15408
920.928	15408
921.038	15507
921.148	15401
921.258	15123
921.368	15081
921.477	15001
921.587	14948
921.697	14868
921.806	15001
921.916	14826
922.025	14655
922.134	14480
922.244	14556
922.353	14587
922.462	14381
922.571	14396
922.68	14267
922.789	14191
922.898	14183
923.007	14084
923.116	14248
923.224	14221
923.333	14119
923.442	14096
923.55	14050
923.659	13997
923.767	14168
923.876	13936
923.984	14168
924.092	13989
924.201	13917
924.309	13997
924.417	13833
924.525	13868
924.633	13925
924.741	14689
924.849	13776
924.956	13761
925.064	13624
925.172	13468
925.279	13556
925.387	13670
925.494	13723
925.602	13719
925.709	13666
925.816	13480
925.924	13578
926.031	13575
926.138	13529
926.245	13480
926.352	13400
926.459	13510
926.566	13575
926.673	13552
926.779	13301
926.886	13228
926.993	13164
927.099	13137
927.206	13095
927.312	13076
927.419	13225
927.525	13187
927.631	13103
927.737	13019
927.843	12962
927.95	12833
928.056	12924
928.162	12932
928.267	13019
928.373	13575
928.479	13023
928.585	12730
928.69	12840
928.796	12882
928.901	12795
929.007	12616
929.112	12757
929.218	12806
929.323	12631
929.428	12635
929.533	12829
929.638	12563
929.743	12646
929.848	12677
929.953	12578
930.058	12494
930.163	12403
930.267	12372
930.372	12521
930.477	12254
930.581	12544
930.685	12342
930.79	12159
930.894	12216
930.998	12205
931.103	12369
931.207	11980
931.311	11783
931.415	11821
931.519	11615
931.623	11535
