Data from test_V78500241_3306.txt Node
Date: Fri Mar 25 16:04:42 CST 2022
User: usil
Spectrometer: V785-0024
Trigger mode: 0
Integration Time (sec): 4.000000E-1
Scans to average: 1
Nonlinearity correction enabled: false
Boxcar width: 0
Storing dark spectrum: false
XAxis mode: Wavelengths
Number of Pixels in Spectrum: 1024
>>>>>Begin Spectral Data<<<<<
801.071	28679
801.214	28828
801.356	28459
801.499	28447
801.641	28150
801.783	28398
801.926	28462
802.068	28230
802.211	28162
802.353	28344
802.496	28055
802.638	27846
802.78	28032
802.923	27945
803.065	27975
803.208	27926
803.35	27922
803.492	28082
803.635	28249
803.777	28051
803.919	28215
804.061	28398
804.204	28341
804.346	28158
804.488	28158
804.63	28265
804.773	27998
804.915	28246
805.057	28432
805.199	28265
805.341	28253
805.483	28409
805.626	28337
805.768	28249
805.91	28322
806.052	28417
806.194	28344
806.336	28542
806.478	28314
806.62	28409
806.762	28474
806.904	28675
807.046	29037
807.188	28755
807.33	28877
807.472	28858
807.614	28653
807.756	28759
807.898	28721
808.04	28672
808.182	28645
808.324	28683
808.465	28801
808.607	28881
808.749	29056
808.891	29064
809.033	29273
809.174	29048
809.316	29147
809.458	28942
809.6	29003
809.741	29200
809.883	29223
810.025	29398
810.166	29318
810.308	29493
810.45	29383
810.591	29143
810.733	29090
810.875	29052
811.016	28953
811.158	28911
811.299	29280
811.441	29121
811.582	29341
811.724	29033
811.865	29143
812.007	28987
812.148	29117
812.29	29204
812.431	29284
812.573	29570
812.714	29547
812.855	29535
812.997	29581
813.138	29855
813.279	29634
813.421	29703
813.562	29490
813.703	29379
813.845	29486
813.986	29048
814.127	28957
814.268	28759
814.41	28946
814.551	28763
814.692	28866
814.833	28660
814.974	28603
815.115	28805
815.256	28626
815.397	28721
815.539	28729
815.68	28401
815.821	28577
815.962	28599
816.103	28618
816.244	28394
816.385	28382
816.526	28280
816.666	28154
816.807	28074
816.948	28166
817.089	28268
817.23	28101
817.371	28090
817.512	28135
817.653	28177
817.793	28074
817.934	28177
818.075	28101
818.216	28112
818.356	28078
818.497	28002
818.638	27979
818.778	27873
818.919	27892
819.06	28025
819.2	27941
819.341	28230
819.481	28185
819.622	28306
819.762	28432
819.903	28329
820.043	28379
820.184	28325
820.324	28234
820.465	28226
820.605	28306
820.746	28249
820.886	28192
821.026	28211
821.167	28207
821.307	28382
821.447	28268
821.588	28025
821.728	28048
821.868	27736
822.008	27629
822.149	27633
822.289	27591
822.429	27462
822.569	27237
822.709	27332
822.849	27180
822.99	27180
823.13	27028
823.27	27017
823.41	26891
823.55	26655
823.69	26952
823.83	26807
823.97	26674
824.11	26735
824.25	26667
824.389	26838
824.529	26788
824.669	26929
824.809	26925
824.949	26967
825.089	26849
825.228	26678
825.368	26724
825.508	26499
825.648	26609
825.787	26678
825.927	26632
826.067	26640
826.206	26514
826.346	26720
826.485	26686
826.625	26651
826.765	26743
826.904	26606
827.044	26488
827.183	26233
827.323	26431
827.462	26564
827.601	26465
827.741	26282
827.88	26358
828.02	26229
828.159	26358
828.298	26328
828.437	26240
828.577	26233
828.716	26423
828.855	26271
828.994	25932
829.134	25978
829.273	26142
829.412	25932
829.551	26024
829.69	25925
829.829	26096
829.968	26100
830.107	26157
830.246	26111
830.385	26107
830.524	25852
830.663	25818
830.802	25731
830.941	25681
831.08	25548
831.219	25666
831.357	25639
831.496	25772
831.635	25643
831.774	25540
831.913	25601
832.051	25533
832.19	25381
832.329	25472
832.467	25316
832.606	25209
832.744	25316
832.883	25434
833.022	25126
833.16	25194
833.299	25331
833.437	25289
833.576	25430
833.714	25415
833.852	25499
833.991	25365
834.129	25464
834.267	25449
834.406	25407
834.544	25373
834.682	25377
834.821	25388
834.959	25502
835.097	25301
835.235	25339
835.373	25441
835.511	25407
835.65	25236
835.788	25251
835.926	25046
836.064	24973
836.202	25072
836.34	25175
836.478	25247
836.615	25152
836.753	25202
836.891	25221
837.029	25343
837.167	25050
837.305	25072
837.443	25183
837.58	25190
837.718	25057
837.856	25012
837.993	25065
838.131	25031
838.269	24951
838.406	24996
838.544	24905
838.681	24665
838.819	24692
838.956	24464
839.094	24490
839.231	24570
839.369	24692
839.506	24829
839.643	24776
839.781	24391
839.918	24471
840.055	24525
840.193	24475
840.33	24407
840.467	24422
840.604	24456
840.742	24639
840.879	24251
841.016	24254
841.153	24285
841.29	24365
841.427	24403
841.564	24623
841.701	24262
841.838	24273
841.975	24247
842.112	24285
842.249	24247
842.385	24174
842.522	24311
842.659	24220
842.796	24216
842.933	24117
843.069	24148
843.206	24148
843.343	24270
843.479	24152
843.616	24087
843.752	24026
843.889	23961
844.025	24171
844.162	23866
844.298	23912
844.435	23912
844.571	23817
844.708	23969
844.844	23999
844.98	24045
845.117	23965
845.253	23870
845.389	23882
845.525	23745
845.661	23916
845.798	23627
845.934	23752
846.07	23661
846.206	23646
846.342	23745
846.478	23493
846.614	23440
846.75	23261
846.886	23376
847.022	23368
847.158	23349
847.294	23322
847.429	23429
847.565	23391
847.701	23604
847.837	23197
847.972	23113
848.108	23166
848.244	23124
848.379	23094
848.515	22965
848.65	23022
848.786	22972
848.921	23014
849.057	23102
849.192	22915
849.328	22972
849.463	22984
849.598	22755
849.734	22847
849.869	22835
850.004	22854
850.14	22812
850.275	22706
850.41	22691
850.545	22565
850.68	22694
850.815	22771
850.95	22649
851.085	22873
851.22	22858
851.355	22702
851.49	22698
851.625	22679
851.76	22710
851.895	22767
852.03	22596
852.165	22721
852.299	22771
852.434	22885
852.569	22881
852.703	22778
852.838	22858
852.973	22862
853.107	22793
853.242	22618
853.376	22641
853.511	22504
853.645	22523
853.78	22774
853.914	22481
854.048	22493
854.183	22516
854.317	22618
854.451	22729
854.585	22565
854.72	22504
854.854	22504
854.988	22485
855.122	22607
855.256	22508
855.39	22466
855.524	22588
855.658	22440
855.792	22588
855.926	22649
856.06	22637
856.194	22538
856.327	22565
856.461	22371
856.595	22466
856.729	22580
856.862	22698
856.996	22596
857.13	22641
857.263	22649
857.397	22656
857.53	22607
857.664	22573
857.797	22660
857.931	22588
858.064	22630
858.197	22626
858.331	22569
858.464	22550
858.597	22538
858.731	22577
858.864	22443
858.997	22531
859.13	22535
859.263	22611
859.396	22542
859.529	22519
859.662	22561
859.795	22504
859.928	22653
860.061	22786
860.194	22774
860.327	22607
860.46	22637
860.592	22691
860.725	22702
860.858	22615
860.99	22478
861.123	22500
861.256	22565
861.388	22611
861.521	23204
861.653	22489
861.786	22333
861.918	22272
862.05	22432
862.183	22497
862.315	22497
862.447	22584
862.58	22394
862.712	22211
862.844	22257
862.976	22329
863.108	22223
863.24	22752
863.372	22238
863.504	22341
863.636	22169
863.768	22325
863.9	22242
864.032	22265
864.164	22295
864.296	22314
864.428	22466
864.559	22455
864.691	22242
864.823	22291
864.954	22226
865.086	22322
865.217	22192
865.349	22021
865.48	22101
865.612	22135
865.743	22329
865.875	22196
866.006	22162
866.137	22169
866.269	22162
866.4	22063
866.531	22086
866.662	22006
866.793	21968
866.924	22063
867.055	22101
867.186	22051
867.317	22017
867.448	21956
867.579	22128
867.71	22055
867.841	22120
867.972	22040
868.103	21983
868.233	22070
868.364	22078
868.495	22131
868.625	22188
868.756	22402
868.886	22200
869.017	22303
869.147	22287
869.278	22428
869.408	22341
869.539	22200
869.669	22405
869.799	22375
869.929	22394
870.06	22421
870.19	22436
870.32	22611
870.45	22622
870.58	22713
870.71	22831
870.84	22801
870.97	22710
871.1	22725
871.23	22824
871.36	22904
871.489	22774
871.619	22889
871.749	22915
871.879	22862
872.008	23079
872.138	22904
872.267	22915
872.397	22759
872.526	22717
872.656	22713
872.785	22824
872.915	22881
873.044	22938
873.173	22850
873.303	22858
873.432	22995
873.561	23140
873.69	22869
873.819	22911
873.948	23056
874.077	23010
874.206	22854
874.335	23029
874.464	22999
874.593	23178
874.722	23109
874.851	23185
874.979	23288
875.108	23250
875.237	23052
875.365	23098
875.494	23098
875.623	23216
875.751	23155
875.88	23231
876.008	23280
876.136	23311
876.265	23471
876.393	23638
876.521	23665
876.65	23627
876.778	23551
876.906	23516
877.034	23551
877.162	23444
877.29	23368
877.418	23600
877.546	23505
877.674	23520
877.802	23497
877.93	23410
878.058	23528
878.185	23410
878.313	23353
878.441	23463
878.568	23311
878.696	23414
878.824	23528
878.951	23611
879.079	23600
879.206	23786
879.333	23570
879.461	23547
879.588	23577
879.715	23741
879.842	23748
879.97	23547
880.097	23493
880.224	23341
880.351	23318
880.478	23235
880.605	23185
880.732	23189
880.859	23558
880.986	23356
881.112	23364
881.239	23197
881.366	23018
881.493	23124
881.619	22915
881.746	22919
881.872	22805
881.999	22847
882.125	22679
882.252	22778
882.378	22889
882.505	22873
882.631	22683
882.757	22634
882.883	22656
883.01	22489
883.136	22402
883.262	22413
883.388	22371
883.514	22519
883.64	22691
883.766	22500
883.892	22261
884.018	22337
884.143	22538
884.269	22626
884.395	22287
884.52	22109
884.646	22303
884.772	22181
884.897	22253
885.023	22090
885.148	22185
885.274	22261
885.399	22341
885.524	22246
885.65	22120
885.775	22093
885.9	22173
886.025	22299
886.15	22318
886.275	22162
886.4	22090
886.525	22078
886.65	22112
886.775	22036
886.9	22257
887.025	22363
887.149	22188
887.274	21918
887.399	22074
887.523	21949
887.648	21930
887.773	21888
887.897	22002
888.021	22032
888.146	21861
888.27	21869
888.395	21903
888.519	21888
888.643	21903
888.767	21915
888.891	21865
889.015	21751
889.139	21793
889.263	21778
889.387	21743
889.511	21899
889.635	21854
889.759	21679
889.883	21652
890.006	21770
890.13	21747
890.254	21667
890.377	21667
890.501	21496
890.624	21488
890.748	21492
890.871	21348
890.995	21252
891.118	21188
891.241	21466
891.364	21180
891.488	21310
891.611	21245
891.734	21119
891.857	21378
891.98	21294
892.103	21382
892.226	21207
892.349	21169
892.471	21009
892.594	21062
892.717	21207
892.839	21074
892.962	21119
893.085	21154
893.207	21214
893.33	21020
893.452	21089
893.575	21237
893.697	21154
893.819	21241
893.941	21336
894.064	21287
894.186	21085
894.308	21051
894.43	21222
894.552	21260
894.674	21184
894.796	20925
894.918	21180
895.04	20998
895.161	21138
895.283	21233
895.405	21017
895.526	21108
895.648	21062
895.769	21055
895.891	21180
896.012	21249
896.134	21287
896.255	21100
896.376	21142
896.498	21169
896.619	21222
896.74	21127
896.861	21066
896.982	21488
897.103	21515
897.224	21374
897.345	21344
897.466	21233
897.587	21268
897.708	21435
897.828	21401
897.949	21226
898.07	21146
898.19	21302
898.311	21500
898.431	21207
898.552	21355
898.672	21397
898.792	21389
898.913	21382
899.033	21100
899.153	21096
899.273	21154
899.393	21070
899.513	21039
899.633	21100
899.753	21070
899.873	20956
899.993	21024
900.113	21017
900.232	20967
900.352	20952
900.472	20895
900.591	20800
900.711	20792
900.83	20823
900.95	20960
901.069	20868
901.189	20705
901.308	20518
901.427	20298
901.546	20492
901.665	20446
901.784	20617
901.904	20320
902.023	20107
902.141	19963
902.26	19986
902.379	20027
902.498	20012
902.617	19807
902.735	19879
902.854	19826
902.973	19723
903.091	19624
903.21	19540
903.328	19620
903.446	19510
903.565	19369
903.683	19430
903.801	19126
903.919	19240
904.038	19247
904.156	18985
904.274	19171
904.392	18977
904.51	19110
904.627	19050
904.745	19065
904.863	19145
904.981	18935
905.098	18715
905.216	18703
905.334	18840
905.451	18787
905.569	18783
905.686	18760
905.803	18779
905.921	18464
906.038	18646
906.155	18566
906.272	18433
906.389	18502
906.506	18311
906.623	18262
906.74	18338
906.857	18083
906.974	18262
907.091	18357
907.208	18395
907.324	18361
907.441	18114
907.557	18064
907.674	17977
907.79	17977
907.907	17984
908.023	18095
908.139	17973
908.256	18003
908.372	17836
908.488	17855
908.604	17710
908.72	17585
908.836	17748
908.952	17714
909.068	17691
909.184	17843
909.3	17798
909.415	17779
909.531	17630
909.647	17482
909.762	17444
909.878	17391
909.993	17356
910.108	17368
910.224	17341
910.339	17334
910.454	17220
910.57	17208
910.685	17212
910.8	17539
910.915	17337
911.03	17231
911.145	17029
911.259	17018
911.374	16831
911.489	16904
911.604	16831
911.718	16763
911.833	16752
911.947	16615
912.062	16588
912.176	16660
912.291	16786
912.405	16835
912.519	16972
912.633	16919
912.748	16698
912.862	16721
912.976	16592
913.09	16371
913.204	16474
913.318	16440
913.431	16641
913.545	16622
913.659	16618
913.772	16481
913.886	16386
914	16299
914.113	16363
914.226	16554
914.34	16363
914.453	16128
914.566	16367
914.68	16177
914.793	16143
914.906	16097
915.019	15926
915.132	15899
915.245	15922
915.358	15941
915.47	16002
915.583	15987
915.696	15949
915.809	15934
915.921	16071
916.034	15793
916.146	15812
916.259	15816
916.371	15736
916.483	15831
916.595	15633
916.708	15755
916.82	15694
916.932	15644
917.044	15785
917.156	15671
917.268	15595
917.38	15557
917.491	15469
917.603	15507
917.715	15576
917.826	15587
917.938	15519
918.049	15291
918.161	15507
918.272	15675
918.384	15542
918.495	15450
918.606	15370
918.717	15192
918.828	15321
918.939	15374
919.05	15180
919.161	15249
919.272	15116
919.383	15237
919.494	15317
919.604	15348
919.715	15245
919.826	15100
919.936	15176
920.047	15249
920.157	15184
920.267	15332
920.378	15211
920.488	15192
920.598	15359
920.708	15584
920.818	15291
920.928	15287
921.038	15488
921.148	15439
921.258	15203
921.368	15097
921.477	14937
921.587	15005
921.697	14834
921.806	14971
921.916	14785
922.025	14579
922.134	14617
922.244	14537
922.353	14655
922.462	14404
922.571	14381
922.68	14237
922.789	14206
922.898	14282
923.007	14134
923.116	14278
923.224	14088
923.333	14138
923.442	14084
923.55	13909
923.659	14096
923.767	14084
923.876	14077
923.984	13970
924.092	13902
924.201	13974
924.309	13890
924.417	13902
924.525	13803
924.633	13776
924.741	14861
924.849	13643
924.956	13871
925.064	13696
925.172	13487
925.279	13628
925.387	13571
925.494	13643
925.602	13727
925.709	13609
925.816	13476
925.924	13495
926.031	13662
926.138	13514
926.245	13639
926.352	13411
926.459	13609
926.566	13636
926.673	13487
926.779	13316
926.886	13339
926.993	13244
927.099	13118
927.206	13114
927.312	13129
927.419	13168
927.525	13179
927.631	13171
927.737	13069
927.843	13107
927.95	12928
928.056	12954
928.162	13076
928.267	13031
928.373	13658
928.479	12996
928.585	12814
928.69	12856
928.796	12897
928.901	12814
929.007	12608
929.112	12886
929.218	12787
929.323	12608
929.428	12681
929.533	12703
929.638	12601
929.743	12585
929.848	12696
929.953	12585
930.058	12471
930.163	12369
930.267	12300
930.372	12445
930.477	12308
930.581	12460
930.685	12460
930.79	12140
930.894	12258
930.998	12133
931.103	12361
931.207	11999
931.311	11882
931.415	11760
931.519	11668
931.623	11585
