Data from test_V78500241_58.txt Node
Date: Fri Mar 25 15:42:12 CST 2022
User: usil
Spectrometer: V785-0024
Trigger mode: 0
Integration Time (sec): 4.000000E-1
Scans to average: 1
Nonlinearity correction enabled: false
Boxcar width: 0
Storing dark spectrum: false
XAxis mode: Wavelengths
Number of Pixels in Spectrum: 1024
>>>>>Begin Spectral Data<<<<<
801.071	29551
801.214	29676
801.356	29170
801.499	29159
801.641	29204
801.783	29185
801.926	29003
802.068	29037
802.211	28953
802.353	28919
802.496	28675
802.638	28820
802.78	28691
802.923	28664
803.065	28516
803.208	28523
803.35	28554
803.492	28694
803.635	28930
803.777	28786
803.919	28805
804.061	29094
804.204	28740
804.346	28630
804.488	28744
804.63	28713
804.773	28725
804.915	28713
805.057	28877
805.199	28687
805.341	28854
805.483	28809
805.626	28763
805.768	28839
805.91	28877
806.052	28896
806.194	28786
806.336	28991
806.478	28881
806.62	28831
806.762	29109
806.904	29067
807.046	29254
807.188	29231
807.33	29246
807.472	29258
807.614	29113
807.756	29212
807.898	29006
808.04	29094
808.182	29060
808.324	29094
808.465	29162
808.607	29117
808.749	29383
808.891	29303
809.033	29516
809.174	29577
809.316	29387
809.458	29444
809.6	29246
809.741	29463
809.883	29611
810.025	29493
810.166	29691
810.308	29699
810.45	29493
810.591	29554
810.733	29372
810.875	29280
811.016	29307
811.158	29212
811.299	29284
811.441	29421
811.582	29486
811.724	29391
811.865	29280
812.007	29322
812.148	29174
812.29	29318
812.431	29417
812.573	29649
812.714	29684
812.855	29809
812.997	29798
813.138	29977
813.279	29927
813.421	29771
813.562	29916
813.703	29642
813.845	29433
813.986	29113
814.127	29056
814.268	28877
814.41	28965
814.551	28923
814.692	28896
814.833	28759
814.974	28850
815.115	28805
815.256	28755
815.397	28645
815.539	28805
815.68	28630
815.821	28531
815.962	28713
816.103	28725
816.244	28390
816.385	28386
816.526	28470
816.666	28093
816.807	27934
816.948	28112
817.089	28169
817.23	28029
817.371	27945
817.512	27934
817.653	27911
817.793	27869
817.934	27983
818.075	27873
818.216	27968
818.356	27876
818.497	27876
818.638	27686
818.778	27797
818.919	27686
819.06	27857
819.2	27846
819.341	27907
819.481	27774
819.622	27998
819.762	28234
819.903	27968
820.043	28029
820.184	28032
820.324	27865
820.465	28097
820.605	28074
820.746	27869
820.886	27808
821.026	27968
821.167	27903
821.307	27983
821.447	27884
821.588	27739
821.728	27629
821.868	27572
822.008	27260
822.149	27355
822.289	27199
822.429	27085
822.569	27047
822.709	26857
822.849	26769
822.99	26750
823.13	26625
823.27	26739
823.41	26617
823.55	26469
823.69	26412
823.83	26530
823.97	26480
824.11	26237
824.25	26313
824.389	26374
824.529	26362
824.669	26343
824.809	26473
824.949	26305
825.089	26351
825.228	26423
825.368	26058
825.508	26077
825.648	26252
825.787	26134
825.927	26107
826.067	26126
826.206	26073
826.346	26065
826.485	26267
826.625	26058
826.765	26168
826.904	26161
827.044	25883
827.183	25993
827.323	25696
827.462	25860
827.601	25776
827.741	25708
827.88	25807
828.02	25632
828.159	25761
828.298	25795
828.437	25814
828.577	25719
828.716	25769
828.855	25590
828.994	25457
829.134	25491
829.273	25434
829.412	25278
829.551	25316
829.69	25407
829.829	25350
829.968	25476
830.107	25438
830.246	25358
830.385	25301
830.524	25289
830.663	25164
830.802	25023
830.941	24962
831.08	24856
831.219	24947
831.357	24935
831.496	25187
831.635	25004
831.774	24951
831.913	24859
832.051	24791
832.19	24654
832.329	24707
832.467	24593
832.606	24623
832.744	24479
832.883	24486
833.022	24445
833.16	24574
833.299	24639
833.437	24623
833.576	24555
833.714	24525
833.852	24711
833.991	24566
834.129	24631
834.267	24616
834.406	24555
834.544	24486
834.682	24532
834.821	24490
834.959	24570
835.097	24505
835.235	24559
835.373	24505
835.511	24483
835.65	24445
835.788	24395
835.926	24174
836.064	24083
836.202	24178
836.34	24285
836.478	24342
836.615	24403
836.753	24471
836.891	24372
837.029	24407
837.167	24289
837.305	24220
837.443	24216
837.58	24155
837.718	24289
837.856	24174
837.993	24106
838.131	24281
838.269	24087
838.406	24159
838.544	24003
838.681	23878
838.819	23790
838.956	23619
839.094	23676
839.231	23524
839.369	23691
839.506	23980
839.643	23745
839.781	23611
839.918	23471
840.055	23665
840.193	23417
840.33	23402
840.467	23425
840.604	23596
840.742	23695
840.879	23440
841.016	23322
841.153	23322
841.29	23570
841.427	23391
841.564	23398
841.701	23406
841.838	23436
841.975	23345
842.112	23368
842.249	23227
842.385	23185
842.522	23448
842.659	23288
842.796	23056
842.933	23128
843.069	23052
843.206	23029
843.343	23212
843.479	23105
843.616	23105
843.752	22839
843.889	22885
844.025	23185
844.162	22843
844.298	22904
844.435	22889
844.571	22778
844.708	22980
844.844	22911
844.98	22987
845.117	22896
845.253	22710
845.389	22687
845.525	22862
845.661	22660
845.798	22637
845.934	22554
846.07	22455
846.206	22546
846.342	22596
846.478	22493
846.614	22314
846.75	22333
846.886	22398
847.022	22402
847.158	22375
847.294	22379
847.429	22371
847.565	22329
847.701	22451
847.837	21953
847.972	21808
848.108	22017
848.244	22021
848.379	21930
848.515	21911
848.65	21720
848.786	21899
848.921	21774
849.057	21937
849.192	21846
849.328	21842
849.463	21819
849.598	21812
849.734	21679
849.869	21656
850.004	21610
850.14	21667
850.275	21393
850.41	21477
850.545	21351
850.68	21492
850.815	21580
850.95	21622
851.085	21701
851.22	21652
851.355	21564
851.49	21386
851.625	21393
851.76	21420
851.895	21466
852.03	21462
852.165	21530
852.299	21576
852.434	21557
852.569	21576
852.703	21412
852.838	21545
852.973	21622
853.107	21770
853.242	21405
853.376	21302
853.511	21264
853.645	21260
853.78	21435
853.914	21325
854.048	21272
854.183	21397
854.317	21321
854.451	21488
854.585	21275
854.72	21374
854.854	21340
854.988	21252
855.122	21321
855.256	21237
855.39	21306
855.524	21256
855.658	21340
855.792	21279
855.926	21325
856.06	21367
856.194	21450
856.327	21218
856.461	21230
856.595	21287
856.729	21199
856.862	21420
856.996	21317
857.13	21332
857.263	21416
857.397	21249
857.53	21157
857.664	21241
857.797	21397
857.931	21378
858.064	21264
858.197	21332
858.331	21214
858.464	21192
858.597	21256
858.731	21192
858.864	21260
858.997	21032
859.13	21275
859.263	21283
859.396	21351
859.529	21173
859.662	21093
859.795	21203
859.928	21135
860.061	21283
860.194	21317
860.327	21214
860.46	21096
860.592	21184
860.725	21294
860.858	21408
860.99	21085
861.123	21207
861.256	21062
861.388	21222
861.521	21930
861.653	21051
861.786	21017
861.918	21123
862.05	21089
862.183	21241
862.315	21249
862.447	21355
862.58	21245
862.712	21116
862.844	20925
862.976	21100
863.108	20994
863.24	21252
863.372	20807
863.504	20872
863.636	20883
863.768	20864
863.9	20849
864.032	20804
864.164	20788
864.296	21024
864.428	20971
864.559	20956
864.691	20952
864.823	20868
864.954	20921
865.086	20804
865.217	20727
865.349	20743
865.48	20842
865.612	20914
865.743	20872
865.875	20792
866.006	20682
866.137	20773
866.269	20765
866.4	20727
866.531	20788
866.662	20636
866.793	20640
866.924	20743
867.055	20819
867.186	20743
867.317	20686
867.448	20552
867.579	20674
867.71	20579
867.841	20583
867.972	20727
868.103	20670
868.233	20705
868.364	20716
868.495	20788
868.625	21017
868.756	21074
868.886	20819
869.017	20872
869.147	20914
869.278	20952
869.408	20906
869.539	20952
869.669	20963
869.799	20998
869.929	21070
870.06	21020
870.19	21165
870.32	21116
870.45	21321
870.58	21492
870.71	21462
870.84	21408
870.97	21302
871.1	21317
871.23	21439
871.36	21561
871.489	21329
871.619	21572
871.749	21431
871.879	21530
872.008	21610
872.138	21477
872.267	21576
872.397	21363
872.526	21424
872.656	21462
872.785	21317
872.915	21561
873.044	21553
873.173	21644
873.303	21663
873.432	21622
873.561	21774
873.69	21561
873.819	21500
873.948	21625
874.077	21587
874.206	21629
874.335	21633
874.464	21663
874.593	21793
874.722	21850
874.851	21762
874.979	21770
875.108	21960
875.237	21785
875.365	21667
875.494	21743
875.623	21823
875.751	21781
875.88	21804
876.008	21998
876.136	21907
876.265	22276
876.393	22413
876.521	22310
876.65	22234
876.778	22192
876.906	22177
877.034	22158
877.162	22135
877.29	22112
877.418	22097
877.546	22021
877.674	22093
877.802	22105
877.93	22093
878.058	22192
878.185	22135
878.313	22150
878.441	22196
878.568	21998
878.696	22055
878.824	22143
878.951	22287
879.079	22325
879.206	22402
879.333	22367
879.461	22169
879.588	22318
879.715	22333
879.842	22443
879.97	22246
880.097	21956
880.224	21842
880.351	21975
880.478	22002
880.605	21880
880.732	22010
880.859	22124
880.986	21975
881.112	21953
881.239	21812
881.366	21739
881.493	21743
881.619	21557
881.746	21492
881.872	21492
881.999	21572
882.125	21534
882.252	21583
882.378	21526
882.505	21781
882.631	21416
882.757	21420
882.883	21329
883.01	21313
883.136	21184
883.262	21135
883.388	21032
883.514	21279
883.64	21351
883.766	21272
883.892	21093
884.018	21173
884.143	21184
884.269	21321
884.395	20982
884.52	20960
884.646	20979
884.772	20811
884.897	20765
885.023	21020
885.148	20986
885.274	21119
885.399	21009
885.524	20891
885.65	20819
885.775	20998
885.9	20910
886.025	21017
886.15	21013
886.275	20895
886.4	20731
886.525	20773
886.65	20807
886.775	20807
886.9	20990
887.025	21058
887.149	20804
887.274	20640
887.399	20556
887.523	20674
887.648	20640
887.773	20541
887.897	20712
888.021	20575
888.146	20556
888.27	20708
888.395	20727
888.519	20583
888.643	20575
888.767	20739
888.891	20526
889.015	20526
889.139	20427
889.263	20476
889.387	20507
889.511	20621
889.635	20473
889.759	20313
889.883	20419
890.006	20469
890.13	20507
890.254	20412
890.377	20415
890.501	20199
890.624	20020
890.748	20142
890.871	20100
890.995	20054
891.118	19997
891.241	19986
891.364	19967
891.488	20199
891.611	19936
891.734	20062
891.857	20031
891.98	20012
892.103	20103
892.226	20024
892.349	20005
892.471	19704
892.594	19860
892.717	19947
892.839	19909
892.962	19925
893.085	19932
893.207	19940
893.33	19803
893.452	19894
893.575	19963
893.697	19845
893.819	20035
893.941	20149
894.064	19951
894.186	19925
894.308	19769
894.43	19940
894.552	20092
894.674	19978
894.796	19871
894.918	19894
895.04	19928
895.161	20054
895.283	19860
895.405	19833
895.526	19925
895.648	19921
895.769	20005
895.891	19944
896.012	20012
896.134	20020
896.255	20073
896.376	19917
896.498	19887
896.619	19982
896.74	19932
896.861	20065
896.982	20305
897.103	20408
897.224	20256
897.345	20183
897.466	20100
897.587	20130
897.708	20275
897.828	20298
897.949	20081
898.07	19951
898.19	20081
898.311	20191
898.431	20008
898.552	20073
898.672	20180
898.792	20084
898.913	20142
899.033	20005
899.153	19928
899.273	19780
899.393	19788
899.513	19936
899.633	19818
899.753	19791
899.873	19723
899.993	19822
900.113	19807
900.232	19830
900.352	19708
900.472	19647
900.591	19552
900.711	19658
900.83	19571
900.95	19677
901.069	19731
901.189	19582
901.308	19236
901.427	19282
901.546	19206
901.665	19133
901.784	19228
901.904	19031
902.023	19034
902.141	18722
902.26	18730
902.379	18768
902.498	18658
902.617	18661
902.735	18620
902.854	18673
902.973	18661
903.091	18471
903.21	18300
903.328	18330
903.446	18342
903.565	18178
903.683	18190
903.801	18163
903.919	18110
904.038	18034
904.156	17920
904.274	18064
904.392	17901
904.51	17920
904.627	17912
904.745	18011
904.863	17973
904.981	17794
905.098	17600
905.216	17558
905.334	17562
905.451	17623
905.569	17611
905.686	17684
905.803	17657
905.921	17417
906.038	17482
906.155	17364
906.272	17318
906.389	17269
906.506	17064
906.623	17117
906.74	17003
906.857	16995
906.974	17056
907.091	17151
907.208	17242
907.324	17239
907.441	16923
907.557	16885
907.674	16889
907.79	16843
907.907	16797
908.023	16828
908.139	16771
908.256	16694
908.372	16752
908.488	16550
908.604	16523
908.72	16516
908.836	16474
908.952	16356
909.068	16561
909.184	16542
909.3	16512
909.415	16481
909.531	16436
909.647	16204
909.762	16139
909.878	16181
909.993	16196
910.108	16211
910.224	16188
910.339	16177
910.454	16002
910.57	15998
910.685	15911
910.8	16169
910.915	16185
911.03	15972
911.145	15854
911.259	15854
911.374	15816
911.489	15770
911.604	15591
911.718	15462
911.833	15599
911.947	15363
912.062	15294
912.176	15568
912.291	15553
912.405	15576
912.519	15781
912.633	15728
912.748	15568
912.862	15443
912.976	15351
913.09	15260
913.204	15241
913.318	15294
913.431	15370
913.545	15363
913.659	15367
913.772	15230
913.886	15165
914	15135
914.113	15207
914.226	15325
914.34	15252
914.453	14990
914.566	15275
914.68	15047
914.793	14891
914.906	14819
915.019	14826
915.132	14689
915.245	14743
915.358	14769
915.47	14731
915.583	14720
915.696	14746
915.809	14861
915.921	14956
916.034	14781
916.146	14613
916.259	14541
916.371	14819
916.483	14720
916.595	14530
916.708	14670
916.82	14568
916.932	14552
917.044	14530
917.156	14465
917.268	14400
917.38	14393
917.491	14400
917.603	14423
917.715	14488
917.826	14423
917.938	14377
918.049	14229
918.161	14389
918.272	14552
918.384	14434
918.495	14396
918.606	14225
918.717	14168
918.828	14180
918.939	14172
919.05	14027
919.161	14164
919.272	13906
919.383	13947
919.494	14191
919.604	14374
919.715	14008
919.826	14058
919.936	14073
920.047	14290
920.157	14103
920.267	14259
920.378	14153
920.488	13997
920.598	14286
920.708	14450
920.818	14195
920.928	14096
921.038	14476
921.148	14347
921.258	14039
921.368	13970
921.477	13807
921.587	13818
921.697	13647
921.806	13841
921.916	13647
922.025	13537
922.134	13491
922.244	13373
922.353	13506
922.462	13331
922.571	13206
922.68	13160
922.789	13129
922.898	13149
923.007	13091
923.116	13099
923.224	13057
923.333	13095
923.442	13000
923.55	12935
923.659	12901
923.767	13046
923.876	12878
923.984	12996
924.092	12814
924.201	12871
924.309	12897
924.417	12897
924.525	12837
924.633	12764
924.741	13704
924.849	12627
924.956	12795
925.064	12509
925.172	12433
925.279	12570
925.387	12589
925.494	12498
925.602	12650
925.709	12658
925.816	12399
925.924	12452
926.031	12517
926.138	12456
926.245	12578
926.352	12426
926.459	12475
926.566	12540
926.673	12464
926.779	12456
926.886	12273
926.993	12194
927.099	12072
927.206	12083
927.312	12163
927.419	12171
927.525	12083
927.631	12144
927.737	12079
927.843	11958
927.95	11866
928.056	11935
928.162	11935
928.267	11999
928.373	12642
928.479	11969
928.585	11676
928.69	11836
928.796	11908
928.901	11851
929.007	11722
929.112	11794
929.218	11745
929.323	11672
929.428	11581
929.533	11859
929.638	11520
929.743	11684
929.848	11630
929.953	11653
930.058	11554
930.163	11288
930.267	11406
930.372	11501
930.477	11303
930.581	11509
930.685	11391
930.79	11318
930.894	11303
930.998	11227
931.103	11303
931.207	10934
931.311	10980
931.415	10805
931.519	10626
931.623	10637
