Data from test_V78500241_889.txt Node
Date: Fri Mar 25 15:47:57 CST 2022
User: usil
Spectrometer: V785-0024
Trigger mode: 0
Integration Time (sec): 4.000000E-1
Scans to average: 1
Nonlinearity correction enabled: false
Boxcar width: 0
Storing dark spectrum: false
XAxis mode: Wavelengths
Number of Pixels in Spectrum: 1024
>>>>>Begin Spectral Data<<<<<
801.071	28158
801.214	28124
801.356	27831
801.499	27865
801.641	27766
801.783	27869
801.926	27770
802.068	27838
802.211	27816
802.353	27705
802.496	27469
802.638	27530
802.78	27382
802.923	27344
803.065	27275
803.208	27405
803.35	27492
803.492	27625
803.635	27675
803.777	27534
803.919	27751
804.061	27888
804.204	27838
804.346	27698
804.488	27644
804.63	27751
804.773	27625
804.915	27656
805.057	27755
805.199	27606
805.341	27838
805.483	27827
805.626	27876
805.768	27694
805.91	27755
806.052	27911
806.194	27903
806.336	28006
806.478	27922
806.62	27804
806.762	27873
806.904	28025
807.046	28329
807.188	28219
807.33	28337
807.472	28481
807.614	28318
807.756	28299
807.898	28090
808.04	27956
808.182	28067
808.324	28078
808.465	28048
808.607	28432
808.749	28459
808.891	28546
809.033	28584
809.174	28497
809.316	28451
809.458	28344
809.6	28550
809.741	28611
809.883	28668
810.025	28930
810.166	28752
810.308	28812
810.45	28729
810.591	28721
810.733	28710
810.875	28478
811.016	28584
811.158	28470
811.299	28512
811.441	28721
811.582	28679
811.724	28634
811.865	28561
812.007	28424
812.148	28432
812.29	28500
812.431	28687
812.573	28938
812.714	28999
812.855	29060
812.997	29162
813.138	29269
813.279	29193
813.421	29090
813.562	28934
813.703	28984
813.845	28866
813.986	28500
814.127	28375
814.268	28185
814.41	28185
814.551	28154
814.692	28230
814.833	28181
814.974	28223
815.115	28238
815.256	27930
815.397	28070
815.539	28040
815.68	28006
815.821	27998
815.962	28055
816.103	28013
816.244	27770
816.385	27800
816.526	27934
816.666	27728
816.807	27583
816.948	27549
817.089	27660
817.23	27686
817.371	27534
817.512	27534
817.653	27564
817.793	27469
817.934	27523
818.075	27622
818.216	27469
818.356	27435
818.497	27382
818.638	27291
818.778	27317
818.919	27237
819.06	27344
819.2	27291
819.341	27603
819.481	27336
819.622	27743
819.762	27846
819.903	27884
820.043	27766
820.184	27686
820.324	27686
820.465	27736
820.605	27660
820.746	27671
820.886	27603
821.026	27614
821.167	27561
821.307	27694
821.447	27526
821.588	27473
821.728	27340
821.868	27180
822.008	27096
822.149	27005
822.289	27036
822.429	26670
822.569	26724
822.709	26667
822.849	26541
822.99	26541
823.13	26568
823.27	26423
823.41	26313
823.55	26195
823.69	26324
823.83	26324
823.97	26404
824.11	26096
824.25	26244
824.389	26252
824.529	26271
824.669	26183
824.809	26347
824.949	26286
825.089	26267
825.228	26107
825.368	26077
825.508	26073
825.648	26088
825.787	26107
825.927	26187
826.067	25940
826.206	26100
826.346	26031
826.485	26069
826.625	26111
826.765	26096
826.904	26130
827.044	25814
827.183	25677
827.323	25719
827.462	25852
827.601	25681
827.741	25784
827.88	25917
828.02	25696
828.159	25708
828.298	25769
828.437	25761
828.577	25696
828.716	25685
828.855	25609
828.994	25346
829.134	25419
829.273	25521
829.412	25426
829.551	25377
829.69	25567
829.829	25445
829.968	25438
830.107	25441
830.246	25426
830.385	25384
830.524	25327
830.663	25289
830.802	25110
830.941	25122
831.08	24989
831.219	25156
831.357	25221
831.496	25232
831.635	25023
831.774	25103
831.913	24856
832.051	24856
832.19	24814
832.329	24829
832.467	24627
832.606	24612
832.744	24677
832.883	24730
833.022	24589
833.16	24738
833.299	24814
833.437	24730
833.576	24795
833.714	24806
833.852	24764
833.991	24871
834.129	24779
834.267	24741
834.406	24757
834.544	24700
834.682	24871
834.821	24715
834.959	25042
835.097	24745
835.235	24806
835.373	24703
835.511	24711
835.65	24696
835.788	24673
835.926	24608
836.064	24414
836.202	24433
836.34	24639
836.478	24623
836.615	24635
836.753	24551
836.891	24707
837.029	24486
837.167	24513
837.305	24574
837.443	24414
837.58	24429
837.718	24532
837.856	24471
837.993	24361
838.131	24403
838.269	24353
838.406	24525
838.544	24277
838.681	24079
838.819	24064
838.956	23958
839.094	23767
839.231	23874
839.369	23965
839.506	24346
839.643	24174
839.781	23897
839.918	23885
840.055	23859
840.193	23870
840.33	23832
840.467	23809
840.604	23828
840.742	24117
840.879	23843
841.016	23733
841.153	23741
841.29	23870
841.427	23783
841.564	23855
841.701	23703
841.838	23786
841.975	23786
842.112	23805
842.249	23634
842.385	23512
842.522	23771
842.659	23714
842.796	23634
842.933	23577
843.069	23478
843.206	23486
843.343	23638
843.479	23581
843.616	23554
843.752	23330
843.889	23368
844.025	23398
844.162	23360
844.298	23509
844.435	23391
844.571	23220
844.708	23307
844.844	23524
844.98	23528
845.117	23459
845.253	23242
845.389	23246
845.525	23334
845.661	22995
845.798	22984
845.934	23090
846.07	23079
846.206	23121
846.342	23277
846.478	23056
846.614	22828
846.75	22774
846.886	22782
847.022	22843
847.158	22790
847.294	22843
847.429	22790
847.565	22767
847.701	23132
847.837	22607
847.972	22508
848.108	22554
848.244	22565
848.379	22485
848.515	22500
848.65	22405
848.786	22432
848.921	22337
849.057	22440
849.192	22379
849.328	22421
849.463	22371
849.598	22333
849.734	22344
849.869	22234
850.004	22128
850.14	22215
850.275	22257
850.41	21968
850.545	22086
850.68	22154
850.815	22207
850.95	22150
851.085	22299
851.22	22219
851.355	22139
851.49	22265
851.625	22162
851.76	22200
851.895	22139
852.03	21937
852.165	22135
852.299	22200
852.434	22169
852.569	22169
852.703	22276
852.838	22177
852.973	22284
853.107	22204
853.242	22158
853.376	21987
853.511	21949
853.645	21949
853.78	22032
853.914	21892
854.048	22021
854.183	22063
854.317	21918
854.451	22246
854.585	21972
854.72	22055
854.854	22086
854.988	21926
855.122	22029
855.256	21816
855.39	21899
855.524	22051
855.658	21918
855.792	22029
855.926	22010
856.06	21934
856.194	22055
856.327	21975
856.461	21903
856.595	21926
856.729	21857
856.862	22124
856.996	22051
857.13	22109
857.263	21983
857.397	21991
857.53	22086
857.664	22006
857.797	22082
857.931	22044
858.064	22032
858.197	22139
858.331	21903
858.464	21953
858.597	21888
858.731	21953
858.864	21941
858.997	21827
859.13	22025
859.263	22013
859.396	22086
859.529	21930
859.662	21934
859.795	21968
859.928	21953
860.061	22200
860.194	22158
860.327	22070
860.46	21934
860.592	22013
860.725	22246
860.858	21953
860.99	22086
861.123	21926
861.256	21930
861.388	21934
861.521	22694
861.653	21819
861.786	21785
861.918	21762
862.05	21888
862.183	21800
862.315	21915
862.447	22044
862.58	21774
862.712	21804
862.844	21770
862.976	21591
863.108	21857
863.24	22112
863.372	21648
863.504	21614
863.636	21568
863.768	21629
863.9	21690
864.032	21698
864.164	21713
864.296	21755
864.428	21895
864.559	21732
864.691	21751
864.823	21781
864.954	21793
865.086	21606
865.217	21507
865.349	21652
865.48	21564
865.612	21656
865.743	21762
865.875	21595
866.006	21439
866.137	21606
866.269	21572
866.4	21580
866.531	21488
866.662	21561
866.793	21545
866.924	21488
867.055	21549
867.186	21481
867.317	21466
867.448	21374
867.579	21511
867.71	21454
867.841	21313
867.972	21530
868.103	21462
868.233	21618
868.364	21542
868.495	21538
868.625	21675
868.756	21911
868.886	21724
869.017	21743
869.147	21937
869.278	21857
869.408	21720
869.539	21804
869.669	21816
869.799	21781
869.929	21850
870.06	21808
870.19	22078
870.32	22093
870.45	22188
870.58	22048
870.71	22211
870.84	22291
870.97	22177
871.1	22021
871.23	22291
871.36	22333
871.489	22188
871.619	22268
871.749	22337
871.879	22375
872.008	22413
872.138	22421
872.267	22242
872.397	22173
872.526	22169
872.656	22238
872.785	22230
872.915	22356
873.044	22459
873.173	22390
873.303	22428
873.432	22402
873.561	22554
873.69	22417
873.819	22451
873.948	22538
874.077	22421
874.206	22356
874.335	22284
874.464	22405
874.593	22565
874.722	22592
874.851	22615
874.979	22592
875.108	22679
875.237	22474
875.365	22478
875.494	22470
875.623	22706
875.751	22504
875.88	22557
876.008	22603
876.136	22835
876.265	22999
876.393	23048
876.521	23113
876.65	23033
876.778	23025
876.906	22885
877.034	22896
877.162	22919
877.29	22858
877.418	23006
877.546	22965
877.674	22942
877.802	22862
877.93	22942
878.058	22908
878.185	22854
878.313	22866
878.441	22873
878.568	22733
878.696	22839
878.824	23018
878.951	23170
879.079	22961
879.206	23208
879.333	23044
879.461	22995
879.588	22976
879.715	23090
879.842	23105
879.97	23044
880.097	22706
880.224	22645
880.351	22831
880.478	22702
880.605	22675
880.732	22778
880.859	23083
880.986	22831
881.112	22850
881.239	22569
881.366	22379
881.493	22421
881.619	22386
881.746	22421
881.872	22375
881.999	22280
882.125	22226
882.252	22306
882.378	22341
882.505	22322
882.631	22112
882.757	21918
882.883	22135
883.01	22002
883.136	21903
883.262	22025
883.388	21911
883.514	22013
883.64	21991
883.766	21888
883.892	21732
884.018	21869
884.143	21960
884.269	22032
884.395	21656
884.52	21587
884.646	21629
884.772	21420
884.897	21538
885.023	21622
885.148	21781
885.274	21774
885.399	21736
885.524	21591
885.65	21587
885.775	21656
885.9	21648
886.025	21827
886.15	21751
886.275	21625
886.4	21443
886.525	21542
886.65	21523
886.775	21587
886.9	21747
887.025	21895
887.149	21633
887.274	21488
887.399	21351
887.523	21424
887.648	21264
887.773	21192
887.897	21481
888.021	21450
888.146	21344
888.27	21447
888.395	21538
888.519	21458
888.643	21523
888.767	21462
888.891	21298
889.015	21211
889.139	21317
889.263	21176
889.387	21287
889.511	21359
889.635	21317
889.759	21138
889.883	21184
890.006	21184
890.13	21279
890.254	21142
890.377	21104
890.501	20910
890.624	20891
890.748	21146
890.871	20899
890.995	20777
891.118	20663
891.241	20826
891.364	20674
891.488	20762
891.611	20902
891.734	20792
891.857	20823
891.98	20785
892.103	20750
892.226	20788
892.349	20674
892.471	20556
892.594	20537
892.717	20644
892.839	20667
892.962	20598
893.085	20712
893.207	20663
893.33	20533
893.452	20492
893.575	20739
893.697	20590
893.819	20834
893.941	20891
894.064	20765
894.186	20587
894.308	20556
894.43	20648
894.552	20765
894.674	20743
894.796	20473
894.918	20655
895.04	20613
895.161	20640
895.283	20621
895.405	20503
895.526	20697
895.648	20537
895.769	20716
895.891	20785
896.012	20655
896.134	20598
896.255	20636
896.376	20613
896.498	20708
896.619	20720
896.74	20514
896.861	20697
896.982	21039
897.103	21131
897.224	20956
897.345	20838
897.466	20720
897.587	20769
897.708	21036
897.828	20975
897.949	20739
898.07	20648
898.19	20697
898.311	20853
898.431	20712
898.552	20929
898.672	20910
898.792	20910
898.913	20849
899.033	20724
899.153	20632
899.273	20537
899.393	20602
899.513	20617
899.633	20625
899.753	20564
899.873	20313
899.993	20621
900.113	20526
900.232	20511
900.352	20442
900.472	20469
900.591	20438
900.711	20507
900.83	20317
900.95	20461
901.069	20514
901.189	20256
901.308	20035
901.427	19868
901.546	19932
901.665	19932
901.784	19875
901.904	19734
902.023	19658
902.141	19525
902.26	19388
902.379	19666
902.498	19396
902.617	19422
902.735	19396
902.854	19419
902.973	19335
903.091	19129
903.21	19133
903.328	19061
903.446	18996
903.565	18886
903.683	18882
903.801	18753
903.919	18859
904.038	18894
904.156	18734
904.274	18654
904.392	18665
904.51	18650
904.627	18597
904.745	18677
904.863	18654
904.981	18574
905.098	18277
905.216	18262
905.334	18418
905.451	18380
905.569	18232
905.686	18410
905.803	18270
905.921	18205
906.038	18247
906.155	18144
906.272	18045
906.389	18015
906.506	17882
906.623	17920
906.74	17874
906.857	17821
906.974	17805
907.091	17939
907.208	17851
907.324	17935
907.441	17775
907.557	17551
907.674	17653
907.79	17528
907.907	17535
908.023	17665
908.139	17524
908.256	17459
908.372	17467
908.488	17562
908.604	17277
908.72	17273
908.836	17379
908.952	17265
909.068	17204
909.184	17330
909.3	17204
909.415	17474
909.531	17197
909.647	17048
909.762	17056
909.878	16968
909.993	17056
910.108	16949
910.224	16949
910.339	16896
910.454	16946
910.57	16816
910.685	16736
910.8	16972
910.915	16847
911.03	16725
911.145	16622
911.259	16649
911.374	16626
911.489	16504
911.604	16462
911.718	16314
911.833	16352
911.947	16318
912.062	16188
912.176	16360
912.291	16337
912.405	16424
912.519	16474
912.633	16519
912.748	16379
912.862	16246
912.976	16268
913.09	16006
913.204	16109
913.318	16097
913.431	16188
913.545	16265
913.659	16226
913.772	16147
913.886	15968
914	15930
914.113	16048
914.226	16059
914.34	16002
914.453	15827
914.566	15861
914.68	15888
914.793	15747
914.906	15682
915.019	15599
915.132	15393
915.245	15504
915.358	15542
915.47	15492
915.583	15466
915.696	15538
915.809	15663
915.921	15603
916.034	15534
916.146	15519
916.259	15515
916.371	15542
916.483	15454
916.595	15302
916.708	15272
916.82	15355
916.932	15264
917.044	15325
917.156	15230
917.268	15241
917.38	15188
917.491	15119
917.603	15173
917.715	15135
917.826	15252
917.938	15093
918.049	14990
918.161	15116
918.272	15268
918.384	15226
918.495	15066
918.606	14952
918.717	14864
918.828	14895
918.939	14925
919.05	14807
919.161	14937
919.272	14750
919.383	14686
919.494	14956
919.604	15108
919.715	14914
919.826	14830
919.936	14785
920.047	14982
920.157	14910
920.267	15017
920.378	14921
920.488	14861
920.598	14960
920.708	15184
920.818	15097
920.928	14982
921.038	15176
921.148	15074
921.258	14769
921.368	14823
921.477	14625
921.587	14625
921.697	14454
921.806	14621
921.916	14480
922.025	14290
922.134	14202
922.244	14202
922.353	14328
922.462	14202
922.571	13986
922.68	13868
922.789	13826
922.898	13845
923.007	13795
923.116	13852
923.224	13909
923.333	13803
923.442	13712
923.55	13677
923.659	13734
923.767	13769
923.876	13651
923.984	13818
924.092	13510
924.201	13655
924.309	13689
924.417	13518
924.525	13590
924.633	13636
924.741	14533
924.849	13327
924.956	13430
925.064	13388
925.172	13255
925.279	13187
925.387	13289
925.494	13232
925.602	13312
925.709	13365
925.816	13232
925.924	13198
926.031	13381
926.138	13278
926.245	13240
926.352	13103
926.459	13259
926.566	13183
926.673	13118
926.779	12939
926.886	12993
926.993	12840
927.099	12901
927.206	12738
927.312	12719
927.419	12928
927.525	12821
927.631	12897
927.737	12760
927.843	12597
927.95	12525
928.056	12597
928.162	12677
928.267	12715
928.373	13141
928.479	12711
928.585	12460
928.69	12574
928.796	12627
928.901	12460
929.007	12399
929.112	12506
929.218	12471
929.323	12346
929.428	12414
929.533	12395
929.638	12285
929.743	12475
929.848	12346
929.953	12342
930.058	12220
930.163	11954
930.267	12072
930.372	12163
930.477	12045
930.581	12228
930.685	12133
930.79	11931
930.894	11908
930.998	11901
931.103	12007
931.207	11691
931.311	11551
931.415	11490
931.519	11398
931.623	11277
