Data from test_V78500241_1014.txt Node
Date: Fri Mar 25 15:48:49 CST 2022
User: usil
Spectrometer: V785-0024
Trigger mode: 0
Integration Time (sec): 4.000000E-1
Scans to average: 1
Nonlinearity correction enabled: false
Boxcar width: 0
Storing dark spectrum: false
XAxis mode: Wavelengths
Number of Pixels in Spectrum: 1024
>>>>>Begin Spectral Data<<<<<
801.071	28139
801.214	28196
801.356	27865
801.499	27759
801.641	27705
801.783	27717
801.926	27785
802.068	27713
802.211	27610
802.353	27553
802.496	27374
802.638	27408
802.78	27340
802.923	27332
803.065	27195
803.208	27096
803.35	27260
803.492	27496
803.635	27416
803.777	27378
803.919	27435
804.061	27831
804.204	27557
804.346	27416
804.488	27416
804.63	27439
804.773	27359
804.915	27511
805.057	27542
805.199	27557
805.341	27591
805.483	27648
805.626	27572
805.768	27599
805.91	27686
806.052	27599
806.194	27622
806.336	27884
806.478	27774
806.62	27663
806.762	27629
806.904	27800
807.046	28131
807.188	28086
807.33	28021
807.472	28188
807.614	28032
807.756	28002
807.898	28021
808.04	27884
808.182	27998
808.324	28048
808.465	27998
808.607	28207
808.749	28272
808.891	28447
809.033	28459
809.174	28333
809.316	28261
809.458	28341
809.6	28413
809.741	28409
809.883	28538
810.025	28687
810.166	28721
810.308	28672
810.45	28618
810.591	28417
810.733	28413
810.875	28367
811.016	28303
811.158	28299
811.299	28421
811.441	28489
811.582	28519
811.724	28565
811.865	28363
812.007	28284
812.148	28360
812.29	28329
812.431	28485
812.573	28675
812.714	28809
812.855	29048
812.997	28755
813.138	29094
813.279	29037
813.421	29033
813.562	28984
813.703	28660
813.845	28588
813.986	28310
814.127	28150
814.268	28090
814.41	28196
814.551	28074
814.692	28006
814.833	27975
814.974	27953
815.115	28063
815.256	27922
815.397	27895
815.539	27857
815.68	27778
815.821	27800
815.962	27899
816.103	27861
816.244	27751
816.385	27576
816.526	27618
816.666	27439
816.807	27135
816.948	27306
817.089	27496
817.23	27359
817.371	27298
817.512	27359
817.653	27458
817.793	27306
817.934	27401
818.075	27264
818.216	27355
818.356	27211
818.497	27211
818.638	26998
818.778	27104
818.919	27032
819.06	27154
819.2	27313
819.341	27367
819.481	27355
819.622	27466
819.762	27709
819.903	27701
820.043	27614
820.184	27340
820.324	27507
820.465	27549
820.605	27500
820.746	27435
820.886	27272
821.026	27412
821.167	27507
821.307	27496
821.447	27378
821.588	27188
821.728	27058
821.868	27127
822.008	26834
822.149	26781
822.289	26845
822.429	26465
822.569	26541
822.709	26514
822.849	26237
822.99	26290
823.13	26370
823.27	26278
823.41	26111
823.55	26065
823.69	26187
823.83	26126
823.97	26092
824.11	25902
824.25	25833
824.389	25978
824.529	26020
824.669	26001
824.809	26069
824.949	26043
825.089	26016
825.228	26024
825.368	25864
825.508	25849
825.648	25898
825.787	25822
825.927	25837
826.067	25780
826.206	25761
826.346	25841
826.485	25925
826.625	25826
826.765	25974
826.904	25871
827.044	25632
827.183	25677
827.323	25533
827.462	25605
827.601	25597
827.741	25518
827.88	25518
828.02	25499
828.159	25411
828.298	25518
828.437	25655
828.577	25400
828.716	25601
828.855	25540
828.994	25099
829.134	25225
829.273	25198
829.412	25179
829.551	25145
829.69	25225
829.829	25183
829.968	25289
830.107	25247
830.246	25213
830.385	25198
830.524	25145
830.663	25015
830.802	24875
830.941	24890
831.08	24905
831.219	24977
831.357	24901
831.496	24905
831.635	24837
831.774	24753
831.913	24707
832.051	24616
832.19	24658
832.329	24715
832.467	24464
832.606	24429
832.744	24471
832.883	24601
833.022	24483
833.16	24566
833.299	24566
833.437	24635
833.576	24544
833.714	24513
833.852	24616
833.991	24661
834.129	24806
834.267	24540
834.406	24616
834.544	24593
834.682	24555
834.821	24566
834.959	24722
835.097	24418
835.235	24551
835.373	24517
835.511	24513
835.65	24330
835.788	24437
835.926	24357
836.064	24182
836.202	24270
836.34	24319
836.478	24525
836.615	24445
836.753	24532
836.891	24483
837.029	24376
837.167	24327
837.305	24254
837.443	24270
837.58	24159
837.718	24327
837.856	24197
837.993	24190
838.131	24251
838.269	24049
838.406	24213
838.544	24201
838.681	23893
838.819	23859
838.956	23634
839.094	23680
839.231	23661
839.369	23843
839.506	24083
839.643	23901
839.781	23619
839.918	23619
840.055	23707
840.193	23703
840.33	23714
840.467	23703
840.604	23760
840.742	24057
840.879	23478
841.016	23604
841.153	23524
841.29	23649
841.427	23653
841.564	23726
841.701	23547
841.838	23512
841.975	23570
842.112	23505
842.249	23368
842.385	23444
842.522	23634
842.659	23395
842.796	23326
842.933	23280
843.069	23299
843.206	23395
843.343	23493
843.479	23288
843.616	23326
843.752	23159
843.889	23151
844.025	23349
844.162	23162
844.298	23132
844.435	23265
844.571	23064
844.708	23303
844.844	23330
844.98	23265
845.117	23151
845.253	23136
845.389	23064
845.525	22957
845.661	23010
845.798	23003
845.934	22927
846.07	22995
846.206	22911
846.342	22953
846.478	22759
846.614	22641
846.75	22546
846.886	22656
847.022	22584
847.158	22599
847.294	22588
847.429	22687
847.565	22615
847.701	22782
847.837	22344
847.972	22348
848.108	22500
848.244	22386
848.379	22356
848.515	22135
848.65	22223
848.786	22272
848.921	22139
849.057	22405
849.192	22276
849.328	22204
849.463	22280
849.598	22120
849.734	22078
849.869	22002
850.004	21991
850.14	22006
850.275	21972
850.41	22029
850.545	21972
850.68	21979
850.815	21956
850.95	21930
851.085	22112
851.22	22150
851.355	21956
851.49	21964
851.625	21831
851.76	21975
851.895	21865
852.03	21937
852.165	21991
852.299	22010
852.434	22131
852.569	21991
852.703	21979
852.838	22021
852.973	21949
853.107	22040
853.242	21884
853.376	21903
853.511	21641
853.645	21842
853.78	21884
853.914	21823
854.048	21804
854.183	21713
854.317	21812
854.451	22021
854.585	21850
854.72	21690
854.854	21892
854.988	21732
855.122	21850
855.256	21652
855.39	21679
855.524	21808
855.658	21804
855.792	21762
855.926	21876
856.06	21808
856.194	21934
856.327	21720
856.461	21743
856.595	21717
856.729	21766
856.862	21911
856.996	21812
857.13	21850
857.263	21869
857.397	21865
857.53	21690
857.664	21789
857.797	21846
857.931	21880
858.064	21739
858.197	21930
858.331	21804
858.464	21755
858.597	21831
858.731	21816
858.864	21770
858.997	21701
859.13	21861
859.263	21781
859.396	21827
859.529	21797
859.662	21747
859.795	21701
859.928	21766
860.061	21972
860.194	21911
860.327	21835
860.46	21816
860.592	21888
860.725	22078
860.858	21835
860.99	21625
861.123	21816
861.256	21717
861.388	21827
861.521	22679
861.653	21671
861.786	21610
861.918	21530
862.05	21679
862.183	21648
862.315	21694
862.447	21671
862.58	21690
862.712	21557
862.844	21340
862.976	21500
863.108	21526
863.24	21895
863.372	21367
863.504	21534
863.636	21393
863.768	21515
863.9	21469
864.032	21496
864.164	21439
864.296	21526
864.428	21568
864.559	21526
864.691	21530
864.823	21485
864.954	21351
865.086	21363
865.217	21466
865.349	21363
865.48	21294
865.612	21408
865.743	21580
865.875	21397
866.006	21416
866.137	21340
866.269	21378
866.4	21340
866.531	21412
866.662	21203
866.793	21336
866.924	21268
867.055	21378
867.186	21344
867.317	21363
867.448	21089
867.579	21466
867.71	21176
867.841	21245
867.972	21241
868.103	21450
868.233	21344
868.364	21211
868.495	21439
868.625	21481
868.756	21652
868.886	21408
869.017	21431
869.147	21709
869.278	21679
869.408	21603
869.539	21447
869.669	21679
869.799	21694
869.929	21675
870.06	21667
870.19	21926
870.32	21846
870.45	21941
870.58	21941
870.71	21998
870.84	22029
870.97	21964
871.1	21850
871.23	22021
871.36	22158
871.489	22040
871.619	22048
871.749	22097
871.879	22185
872.008	22268
872.138	22230
872.267	22139
872.397	22029
872.526	21998
872.656	21975
872.785	21975
872.915	22265
873.044	22261
873.173	22192
873.303	22109
873.432	22375
873.561	22109
873.69	22211
873.819	22128
873.948	22295
874.077	22131
874.206	22048
874.335	22158
874.464	22196
874.593	22287
874.722	22318
874.851	22512
874.979	22322
875.108	22440
875.237	22303
875.365	22207
875.494	22257
875.623	22500
875.751	22363
875.88	22360
876.008	22474
876.136	22584
876.265	22683
876.393	22786
876.521	22828
876.65	22915
876.778	22668
876.906	22710
877.034	22786
877.162	22744
877.29	22698
877.418	22615
877.546	22801
877.674	22660
877.802	22744
877.93	22774
878.058	22664
878.185	22622
878.313	22599
878.441	22668
878.568	22523
878.696	22641
878.824	22698
878.951	22938
879.079	22911
879.206	23090
879.333	22820
879.461	22771
879.588	22805
879.715	22862
879.842	23060
879.97	22854
880.097	22622
880.224	22516
880.351	22554
880.478	22531
880.605	22493
880.732	22538
880.859	22812
880.986	22485
881.112	22557
881.239	22375
881.366	22223
881.493	22234
881.619	22021
881.746	22128
881.872	22211
881.999	22082
882.125	21911
882.252	22036
882.378	22230
882.505	22234
882.631	22040
882.757	21595
882.883	21968
883.01	21816
883.136	21759
883.262	21690
883.388	21660
883.514	21743
883.64	21819
883.766	21698
883.892	21534
884.018	21614
884.143	21751
884.269	21679
884.395	21485
884.52	21523
884.646	21526
884.772	21420
884.897	21336
885.023	21469
885.148	21435
885.274	21507
885.399	21439
885.524	21466
885.65	21420
885.775	21412
885.9	21405
886.025	21545
886.15	21477
886.275	21405
886.4	21401
886.525	21462
886.65	21359
886.775	21256
886.9	21511
887.025	21698
887.149	21393
887.274	21249
887.399	21211
887.523	21313
887.648	21104
887.773	21195
887.897	21157
888.021	21173
888.146	21116
888.27	21173
888.395	21230
888.519	21310
888.643	21272
888.767	21294
888.891	21154
889.015	20967
889.139	21013
889.263	20971
889.387	21123
889.511	21195
889.635	21138
889.759	20994
889.883	20982
890.006	20967
890.13	21142
890.254	20887
890.377	20830
890.501	20693
890.624	20678
890.748	20712
890.871	20625
890.995	20621
891.118	20442
891.241	20609
891.364	20583
891.488	20781
891.611	20606
891.734	20583
891.857	20678
891.98	20564
892.103	20625
892.226	20533
892.349	20438
892.471	20370
892.594	20609
892.717	20575
892.839	20385
892.962	20427
893.085	20457
893.207	20499
893.33	20328
893.452	20351
893.575	20556
893.697	20404
893.819	20594
893.941	20575
894.064	20560
894.186	20298
894.308	20381
894.43	20507
894.552	20579
894.674	20511
894.796	20434
894.918	20423
895.04	20381
895.161	20507
895.283	20446
895.405	20492
895.526	20461
895.648	20419
895.769	20492
895.891	20568
896.012	20537
896.134	20514
896.255	20476
896.376	20427
896.498	20385
896.619	20457
896.74	20473
896.861	20522
896.982	20708
897.103	20921
897.224	20705
897.345	20663
897.466	20682
897.587	20655
897.708	20773
897.828	20670
897.949	20640
898.07	20560
898.19	20697
898.311	20823
898.431	20636
898.552	20651
898.672	20781
898.792	20792
898.913	20583
899.033	20636
899.153	20484
899.273	20366
899.393	20423
899.513	20336
899.633	20370
899.753	20427
899.873	20393
899.993	20518
900.113	20351
900.232	20419
900.352	20252
900.472	20256
900.591	20202
900.711	20214
900.83	20256
900.95	20328
901.069	20138
901.189	20107
901.308	19784
901.427	19696
901.546	19738
901.665	19750
901.784	19715
901.904	19677
902.023	19487
902.141	19362
902.26	19350
902.379	19396
902.498	19350
902.617	19156
902.735	19392
902.854	19255
902.973	19156
903.091	18920
903.21	18920
903.328	19057
903.446	18837
903.565	18783
903.683	18772
903.801	18642
903.919	18646
904.038	18722
904.156	18551
904.274	18601
904.392	18437
904.51	18570
904.627	18483
904.745	18525
904.863	18608
904.981	18262
905.098	18232
905.216	18155
905.334	18243
905.451	18148
905.569	18121
905.686	18289
905.803	18106
905.921	17935
906.038	18068
906.155	18026
906.272	17790
906.389	17767
906.506	17710
906.623	17726
906.74	17729
906.857	17562
906.974	17592
907.091	17805
907.208	17824
907.324	17722
907.441	17600
907.557	17360
907.674	17471
907.79	17406
907.907	17444
908.023	17433
908.139	17448
908.256	17349
908.372	17288
908.488	17265
908.604	17204
908.72	17140
908.836	17098
908.952	17124
909.068	17246
909.184	17181
909.3	17124
909.415	17174
909.531	17143
909.647	16911
909.762	16900
909.878	16866
909.993	16702
910.108	16869
910.224	16793
910.339	16702
910.454	16668
910.57	16668
910.685	16634
910.8	16873
910.915	16759
911.03	16546
911.145	16405
911.259	16443
911.374	16443
911.489	16382
911.604	16276
911.718	16105
911.833	16204
911.947	16162
912.062	16040
912.176	16200
912.291	16276
912.405	16276
912.519	16428
912.633	16363
912.748	16230
912.862	16013
912.976	16040
913.09	15873
913.204	15991
913.318	15918
913.431	16204
913.545	16021
913.659	16109
913.772	15884
913.886	15819
914	15781
914.113	15838
914.226	15915
914.34	15800
914.453	15713
914.566	15743
914.68	15682
914.793	15671
914.906	15507
915.019	15420
915.132	15359
915.245	15348
915.358	15405
915.47	15310
915.583	15393
915.696	15420
915.809	15496
915.921	15488
916.034	15428
916.146	15329
916.259	15157
916.371	15408
916.483	15329
916.595	15214
916.708	15272
916.82	15173
916.932	15226
917.044	15097
917.156	15142
917.268	15043
917.38	15070
917.491	15032
917.603	15089
917.715	15070
917.826	15150
917.938	14979
918.049	14895
918.161	15024
918.272	15116
918.384	15089
918.495	14941
918.606	14686
918.717	14804
918.828	14861
918.939	14807
919.05	14739
919.161	14758
919.272	14560
919.383	14655
919.494	14849
919.604	14918
919.715	14743
919.826	14613
919.936	14621
920.047	14796
920.157	14765
920.267	14876
920.378	14739
920.488	14682
920.598	14899
920.708	15020
920.818	14895
920.928	14914
921.038	15047
921.148	15093
921.258	14575
921.368	14621
921.477	14469
921.587	14370
921.697	14339
921.806	14408
921.916	14393
922.025	14157
922.134	14126
922.244	14149
922.353	14202
922.462	14050
922.571	13913
922.68	13868
922.789	13746
922.898	13666
923.007	13662
923.116	13841
923.224	13822
923.333	13605
923.442	13578
923.55	13677
923.659	13628
923.767	13533
923.876	13556
923.984	13696
924.092	13483
924.201	13525
924.309	13506
924.417	13453
924.525	13373
924.633	13445
924.741	14271
924.849	13187
924.956	13354
925.064	13149
925.172	13194
925.279	13145
925.387	13179
925.494	13156
925.602	13247
925.709	13206
925.816	13084
925.924	12989
926.031	13202
926.138	13107
926.245	13141
926.352	13095
926.459	13141
926.566	13202
926.673	13019
926.779	12882
926.886	12897
926.993	12810
927.099	12764
927.206	12684
927.312	12760
927.419	12738
927.525	12730
927.631	12703
927.737	12665
927.843	12601
927.95	12532
928.056	12532
928.162	12525
928.267	12551
928.373	13110
928.479	12635
928.585	12380
928.69	12445
928.796	12525
928.901	12376
929.007	12258
929.112	12391
929.218	12296
929.323	12311
929.428	12277
929.533	12350
929.638	12167
929.743	12171
929.848	12232
929.953	12171
930.058	12102
930.163	11927
930.267	11946
930.372	12045
930.477	11870
930.581	12197
930.685	11946
930.79	11836
930.894	11805
930.998	11786
931.103	11927
931.207	11600
931.311	11444
931.415	11482
931.519	11216
931.623	11246
