Data from test_V78500241_1513.txt Node
Date: Fri Mar 25 15:52:16 CST 2022
User: usil
Spectrometer: V785-0024
Trigger mode: 0
Integration Time (sec): 4.000000E-1
Scans to average: 1
Nonlinearity correction enabled: false
Boxcar width: 0
Storing dark spectrum: false
XAxis mode: Wavelengths
Number of Pixels in Spectrum: 1024
>>>>>Begin Spectral Data<<<<<
801.071	28181
801.214	28166
801.356	27918
801.499	27922
801.641	27629
801.783	27526
801.926	27804
802.068	27610
802.211	27701
802.353	27466
802.496	27351
802.638	27348
802.78	27382
802.923	27275
803.065	27230
803.208	27294
803.35	27389
803.492	27526
803.635	27686
803.777	27355
803.919	27564
804.061	27793
804.204	27614
804.346	27610
804.488	27526
804.63	27633
804.773	27488
804.915	27530
805.057	27705
805.199	27637
805.341	27542
805.483	27812
805.626	27728
805.768	27595
805.91	27759
806.052	27770
806.194	27644
806.336	27739
806.478	27945
806.62	27701
806.762	27926
806.904	27968
807.046	28261
807.188	28036
807.33	28226
807.472	28219
807.614	28116
807.756	28143
807.898	28074
808.04	28074
808.182	28010
808.324	28097
808.465	28120
808.607	28226
808.749	28337
808.891	28516
809.033	28508
809.174	28310
809.316	28223
809.458	28390
809.6	28421
809.741	28546
809.883	28649
810.025	28854
810.166	28618
810.308	28668
810.45	28687
810.591	28474
810.733	28375
810.875	28565
811.016	28234
811.158	28272
811.299	28500
811.441	28573
811.582	28603
811.724	28512
811.865	28337
812.007	28265
812.148	28421
812.29	28527
812.431	28489
812.573	28630
812.714	28767
812.855	28919
812.997	28934
813.138	29170
813.279	29132
813.421	28961
813.562	28976
813.703	28790
813.845	28584
813.986	28504
814.127	28200
814.268	28154
814.41	28211
814.551	28086
814.692	28211
814.833	28067
814.974	27968
815.115	27968
815.256	27865
815.397	27914
815.539	27934
815.68	27903
815.821	27884
815.962	27850
816.103	27892
816.244	27778
816.385	27759
816.526	27580
816.666	27382
816.807	27355
816.948	27511
817.089	27591
817.23	27454
817.371	27408
817.512	27401
817.653	27393
817.793	27401
817.934	27492
818.075	27439
818.216	27378
818.356	27321
818.497	27302
818.638	27245
818.778	27272
818.919	27154
819.06	27154
819.2	27313
819.341	27226
819.481	27378
819.622	27534
819.762	27682
819.903	27572
820.043	27553
820.184	27447
820.324	27424
820.465	27545
820.605	27538
820.746	27420
820.886	27355
821.026	27473
821.167	27431
821.307	27523
821.447	27348
821.588	27279
821.728	27256
821.868	26929
822.008	26967
822.149	27013
822.289	26910
822.429	26575
822.569	26556
822.709	26678
822.849	26434
822.99	26499
823.13	26381
823.27	26271
823.41	26172
823.55	26096
823.69	26084
823.83	26100
823.97	26005
824.11	26039
824.25	26058
824.389	25986
824.529	26130
824.669	25993
824.809	26058
824.949	26153
825.089	26172
825.228	26115
825.368	25605
825.508	25803
825.648	26016
825.787	25932
825.927	26008
826.067	25966
826.206	26073
826.346	25959
826.485	25940
826.625	25909
826.765	26035
826.904	25951
827.044	25693
827.183	25674
827.323	25712
827.462	25670
827.601	25681
827.741	25639
827.88	25590
828.02	25510
828.159	25651
828.298	25537
828.437	25674
828.577	25582
828.716	25624
828.855	25506
828.994	25304
829.134	25251
829.273	25407
829.412	25221
829.551	25377
829.69	25244
829.829	25320
829.968	25403
830.107	25377
830.246	25301
830.385	25232
830.524	25236
830.663	25080
830.802	25008
830.941	24954
831.08	24779
831.219	25042
831.357	25118
831.496	25114
831.635	24901
831.774	24791
831.913	24730
832.051	24810
832.19	24715
832.329	24730
832.467	24677
832.606	24528
832.744	24540
832.883	24509
833.022	24525
833.16	24650
833.299	24665
833.437	24574
833.576	24677
833.714	24547
833.852	24738
833.991	24734
834.129	24837
834.267	24806
834.406	24688
834.544	24604
834.682	24654
834.821	24631
834.959	24814
835.097	24547
835.235	24661
835.373	24612
835.511	24661
835.65	24498
835.788	24566
835.926	24365
836.064	24380
836.202	24308
836.34	24544
836.478	24700
836.615	24342
836.753	24437
836.891	24566
837.029	24426
837.167	24422
837.305	24410
837.443	24361
837.58	24144
837.718	24365
837.856	24407
837.993	24224
838.131	24239
838.269	24106
838.406	24167
838.544	24098
838.681	23954
838.819	23832
838.956	23901
839.094	23790
839.231	23794
839.369	24064
839.506	24133
839.643	23969
839.781	23897
839.918	23760
840.055	23703
840.193	23733
840.33	23786
840.467	23665
840.604	23851
840.742	23961
840.879	23596
841.016	23703
841.153	23509
841.29	23840
841.427	23649
841.564	23756
841.701	23596
841.838	23486
841.975	23516
842.112	23566
842.249	23440
842.385	23349
842.522	23611
842.659	23577
842.796	23448
842.933	23433
843.069	23349
843.206	23448
843.343	23467
843.479	23383
843.616	23436
843.752	23216
843.889	23200
844.025	23349
844.162	23242
844.298	23334
844.435	23181
844.571	23155
844.708	23147
844.844	23429
844.98	23372
845.117	23235
845.253	23227
845.389	23029
845.525	23094
845.661	23094
845.798	22812
845.934	22919
846.07	22930
846.206	22919
846.342	22976
846.478	22938
846.614	22649
846.75	22698
846.886	22664
847.022	22698
847.158	22801
847.294	22672
847.429	22793
847.565	22702
847.701	22934
847.837	22333
847.972	22394
848.108	22550
848.244	22500
848.379	22363
848.515	22341
848.65	22268
848.786	22413
848.921	22242
849.057	22352
849.192	22196
849.328	22337
849.463	22219
849.598	22230
849.734	22181
849.869	22025
850.004	22055
850.14	22006
850.275	22082
850.41	21888
850.545	21915
850.68	21975
850.815	22128
850.95	21964
851.085	22215
851.22	22101
851.355	22021
851.49	22055
851.625	22036
851.76	21926
851.895	21842
852.03	21895
852.165	22029
852.299	22032
852.434	22032
852.569	21998
852.703	21922
852.838	22207
852.973	22169
853.107	22082
853.242	21937
853.376	21816
853.511	21762
853.645	21808
853.78	21922
853.914	21918
854.048	21755
854.183	21686
854.317	21865
854.451	22002
854.585	21827
854.72	21941
854.854	21998
854.988	21789
855.122	21972
855.256	21800
855.39	21835
855.524	21949
855.658	21983
855.792	21922
855.926	21926
856.06	21903
856.194	21816
856.327	21854
856.461	21720
856.595	21804
856.729	21861
856.862	22048
856.996	21869
857.13	21949
857.263	21968
857.397	21991
857.53	21831
857.664	21854
857.797	22036
857.931	22082
858.064	21979
858.197	21949
858.331	21888
858.464	21880
858.597	21724
858.731	21915
858.864	21880
858.997	21930
859.13	21880
859.263	21922
859.396	22025
859.529	21865
859.662	21899
859.795	21895
859.928	21975
860.061	22002
860.194	21987
860.327	21991
860.46	21766
860.592	22029
860.725	22048
860.858	21945
860.99	21846
861.123	21888
861.256	21827
861.388	21991
861.521	22386
861.653	21759
861.786	21759
861.918	21751
862.05	21751
862.183	21911
862.315	21736
862.447	21876
862.58	21797
862.712	21561
862.844	21553
862.976	21652
863.108	21568
863.24	22093
863.372	21583
863.504	21587
863.636	21599
863.768	21610
863.9	21717
864.032	21526
864.164	21526
864.296	21564
864.428	21675
864.559	21637
864.691	21603
864.823	21679
864.954	21580
865.086	21580
865.217	21485
865.349	21435
865.48	21416
865.612	21576
865.743	21641
865.875	21496
866.006	21523
866.137	21462
866.269	21568
866.4	21443
866.531	21351
866.662	21336
866.793	21329
866.924	21485
867.055	21408
867.186	21420
867.317	21321
867.448	21450
867.579	21291
867.71	21264
867.841	21317
867.972	21298
868.103	21344
868.233	21382
868.364	21359
868.495	21542
868.625	21557
868.756	21739
868.886	21515
869.017	21591
869.147	21850
869.278	21667
869.408	21793
869.539	21561
869.669	21880
869.799	21618
869.929	21675
870.06	21698
870.19	21949
870.32	21911
870.45	21880
870.58	21926
870.71	22128
870.84	22082
870.97	22044
871.1	22032
871.23	22204
871.36	22265
871.489	22185
871.619	22344
871.749	22188
871.879	22291
872.008	22375
872.138	22360
872.267	22219
872.397	22013
872.526	22055
872.656	22097
872.785	22116
872.915	22226
873.044	22390
873.173	22276
873.303	22242
873.432	22352
873.561	22375
873.69	22272
873.819	22261
873.948	22379
874.077	22249
874.206	22169
874.335	22337
874.464	22371
874.593	22649
874.722	22516
874.851	22398
874.979	22462
875.108	22641
875.237	22474
875.365	22257
875.494	22516
875.623	22481
875.751	22470
875.88	22516
876.008	22645
876.136	22626
876.265	22816
876.393	23003
876.521	23029
876.65	23041
876.778	22949
876.906	22713
877.034	22831
877.162	22885
877.29	22831
877.418	22831
877.546	22949
877.674	22900
877.802	22938
877.93	22915
878.058	22759
878.185	22596
878.313	22873
878.441	22710
878.568	22565
878.696	22736
878.824	22839
878.951	22953
879.079	22968
879.206	23166
879.333	22991
879.461	22862
879.588	22927
879.715	23094
879.842	23113
879.97	22904
880.097	22771
880.224	22679
880.351	22744
880.478	22645
880.605	22664
880.732	22797
880.859	22771
880.986	22733
881.112	22577
881.239	22531
881.366	22405
881.493	22314
881.619	22196
881.746	22280
881.872	22173
881.999	22261
882.125	22097
882.252	22272
882.378	22234
882.505	22276
882.631	22070
882.757	21888
882.883	21987
883.01	21960
883.136	21778
883.262	21751
883.388	21625
883.514	21861
883.64	21831
883.766	21892
883.892	21694
884.018	21739
884.143	21781
884.269	21873
884.395	21542
884.52	21519
884.646	21538
884.772	21454
884.897	21408
885.023	21488
885.148	21504
885.274	21682
885.399	21587
885.524	21538
885.65	21553
885.775	21515
885.9	21549
886.025	21701
886.15	21736
886.275	21587
886.4	21462
886.525	21545
886.65	21564
886.775	21553
886.9	21610
887.025	21774
887.149	21591
887.274	21386
887.399	21302
887.523	21302
887.648	21275
887.773	21279
887.897	21310
888.021	21344
888.146	21222
888.27	21462
888.395	21344
888.519	21359
888.643	21313
888.767	21313
888.891	21218
889.015	21135
889.139	21154
889.263	21020
889.387	21222
889.511	21294
889.635	21233
889.759	21020
889.883	21005
890.006	21222
890.13	21260
890.254	20937
890.377	21089
890.501	20796
890.624	20811
890.748	20857
890.871	20792
890.995	20663
891.118	20609
891.241	20629
891.364	20689
891.488	20830
891.611	20693
891.734	20708
891.857	20674
891.98	20632
892.103	20636
892.226	20674
892.349	20629
892.471	20427
892.594	20629
892.717	20659
892.839	20511
892.962	20571
893.085	20644
893.207	20556
893.33	20503
893.452	20518
893.575	20526
893.697	20446
893.819	20682
893.941	20724
894.064	20663
894.186	20499
894.308	20465
894.43	20727
894.552	20708
894.674	20560
894.796	20404
894.918	20522
895.04	20499
895.161	20609
895.283	20549
895.405	20602
895.526	20648
895.648	20625
895.769	20549
895.891	20590
896.012	20571
896.134	20571
896.255	20545
896.376	20511
896.498	20533
896.619	20545
896.74	20648
896.861	20689
896.982	20781
897.103	20929
897.224	20887
897.345	20720
897.466	20785
897.587	20777
897.708	20937
897.828	20724
897.949	20667
898.07	20575
898.19	20667
898.311	20796
898.431	20686
898.552	20845
898.672	20727
898.792	20792
898.913	20773
899.033	20674
899.153	20678
899.273	20404
899.393	20587
899.513	20686
899.633	20476
899.753	20457
899.873	20434
899.993	20522
900.113	20507
900.232	20457
900.352	20317
900.472	20214
900.591	20324
900.711	20298
900.83	20229
900.95	20393
901.069	20400
901.189	20191
901.308	19982
901.427	19906
901.546	19879
901.665	19883
901.784	19898
901.904	19788
902.023	19651
902.141	19495
902.26	19396
902.379	19422
902.498	19384
902.617	19297
902.735	19350
902.854	19278
902.973	19282
903.091	18985
903.21	19004
903.328	18958
903.446	18920
903.565	18719
903.683	18878
903.801	18730
903.919	18825
904.038	18631
904.156	18673
904.274	18578
904.392	18532
904.51	18536
904.627	18654
904.745	18623
904.863	18661
904.981	18308
905.098	18247
905.216	18369
905.334	18296
905.451	18289
905.569	18216
905.686	18308
905.803	18258
905.921	18045
906.038	18106
906.155	17988
906.272	18129
906.389	17954
906.506	17771
906.623	17821
906.74	17798
906.857	17649
906.974	17764
907.091	17908
907.208	17866
907.324	17760
907.441	17752
907.557	17566
907.674	17589
907.79	17532
907.907	17501
908.023	17562
908.139	17493
908.256	17459
908.372	17474
908.488	17353
908.604	17193
908.72	17124
908.836	17231
908.952	17220
909.068	17265
909.184	17227
909.3	17117
909.415	17227
909.531	17242
909.647	16965
909.762	16862
909.878	16873
909.993	16934
910.108	16866
910.224	16824
910.339	16816
910.454	16866
910.57	16767
910.685	16656
910.8	16972
910.915	16850
911.03	16782
911.145	16660
911.259	16538
911.374	16493
911.489	16402
911.604	16413
911.718	16219
911.833	16249
911.947	16249
912.062	16082
912.176	16280
912.291	16268
912.405	16280
912.519	16459
912.633	16436
912.748	16272
912.862	16257
912.976	16109
913.09	16048
913.204	16082
913.318	16128
913.431	16177
913.545	16162
913.659	16109
913.772	16017
913.886	15873
914	15804
914.113	15880
914.226	16040
914.34	15922
914.453	15762
914.566	15922
914.68	15808
914.793	15717
914.906	15511
915.019	15435
915.132	15408
915.245	15507
915.358	15485
915.47	15416
915.583	15443
915.696	15534
915.809	15675
915.921	15534
916.034	15416
916.146	15393
916.259	15332
916.371	15443
916.483	15405
916.595	15268
916.708	15310
916.82	15317
916.932	15211
917.044	15249
917.156	15180
917.268	15104
917.38	15039
917.491	15154
917.603	15005
917.715	15233
917.826	15245
917.938	15055
918.049	14960
918.161	15066
918.272	15165
918.384	15161
918.495	15047
918.606	14864
918.717	14849
918.828	14880
918.939	14857
919.05	14815
919.161	14750
919.272	14655
919.383	14640
919.494	14845
919.604	15047
919.715	14853
919.826	14720
919.936	14777
920.047	14853
920.157	14708
920.267	15074
920.378	14830
920.488	14800
920.598	15020
920.708	15100
920.818	14921
920.928	14830
921.038	15085
921.148	15074
921.258	14727
921.368	14651
921.477	14514
921.587	14469
921.697	14355
921.806	14465
921.916	14454
922.025	14336
922.134	14119
922.244	14149
922.353	14176
922.462	14103
922.571	14005
922.68	13906
922.789	13852
922.898	13845
923.007	13864
923.116	13837
923.224	13799
923.333	13780
923.442	13704
923.55	13594
923.659	13769
923.767	13746
923.876	13685
923.984	13681
924.092	13559
924.201	13666
924.309	13578
924.417	13609
924.525	13445
924.633	13525
924.741	14351
924.849	13312
924.956	13415
925.064	13297
925.172	13225
925.279	13122
925.387	13266
925.494	13225
925.602	13434
925.709	13362
925.816	13103
925.924	13263
926.031	13206
926.138	13266
926.245	13244
926.352	13110
926.459	13320
926.566	13152
926.673	13145
926.779	12947
926.886	12943
926.993	12791
927.099	12844
927.206	12749
927.312	12707
927.419	12970
927.525	12715
927.631	12833
927.737	12574
927.843	12700
927.95	12540
928.056	12627
928.162	12677
928.267	12703
928.373	13217
928.479	12791
928.585	12399
928.69	12532
928.796	12544
928.901	12525
929.007	12342
929.112	12452
929.218	12464
929.323	12350
929.428	12342
929.533	12467
929.638	12281
929.743	12304
929.848	12350
929.953	12296
930.058	12201
930.163	11965
930.267	12072
930.372	12178
930.477	11935
930.581	12175
930.685	12064
930.79	11897
930.894	11965
930.998	11897
931.103	12060
931.207	11722
931.311	11562
931.415	11532
931.519	11254
931.623	11311
