Data from test_V78500241_318.txt Node
Date: Fri Mar 25 15:44:00 CST 2022
User: usil
Spectrometer: V785-0024
Trigger mode: 0
Integration Time (sec): 4.000000E-1
Scans to average: 1
Nonlinearity correction enabled: false
Boxcar width: 0
Storing dark spectrum: false
XAxis mode: Wavelengths
Number of Pixels in Spectrum: 1024
>>>>>Begin Spectral Data<<<<<
801.071	29870
801.214	29767
801.356	29642
801.499	29657
801.641	29433
801.783	29330
801.926	29433
802.068	29341
802.211	29277
802.353	29181
802.496	29109
802.638	29086
802.78	29052
802.923	29033
803.065	28999
803.208	28999
803.35	29140
803.492	29037
803.635	29299
803.777	29136
803.919	29170
804.061	29596
804.204	29273
804.346	29239
804.488	29204
804.63	29174
804.773	29113
804.915	29292
805.057	29375
805.199	29239
805.341	29322
805.483	29452
805.626	29372
805.768	29178
805.91	29406
806.052	29318
806.194	29379
806.336	29516
806.478	29531
806.62	29368
806.762	29467
806.904	29615
807.046	29870
807.188	29862
807.33	29832
807.472	29798
807.614	29790
807.756	29790
807.898	29581
808.04	29509
808.182	29573
808.324	29661
808.465	29611
808.607	29767
808.749	29958
808.891	30068
809.033	30152
809.174	30091
809.316	30140
809.458	29973
809.6	30018
809.741	30076
809.883	30167
810.025	30315
810.166	30338
810.308	30422
810.45	30292
810.591	30369
810.733	30083
810.875	30011
811.016	29965
811.158	30022
811.299	30114
811.441	30178
811.582	30136
811.724	29977
811.865	30190
812.007	30079
812.148	29855
812.29	30072
812.431	30281
812.573	30224
812.714	30566
812.855	30566
812.997	30646
813.138	30760
813.279	30601
813.421	30517
813.562	30563
813.703	30167
813.845	30228
813.986	29912
814.127	29817
814.268	29604
814.41	29611
814.551	29493
814.692	29767
814.833	29608
814.974	29554
815.115	29726
815.256	29474
815.397	29524
815.539	29497
815.68	29440
815.821	29551
815.962	29436
816.103	29299
816.244	29402
816.385	29261
816.526	29181
816.666	29086
816.807	28888
816.948	28987
817.089	29181
817.23	29071
817.371	28972
817.512	28923
817.653	28740
817.793	28816
817.934	28900
818.075	28927
818.216	28965
818.356	28710
818.497	28847
818.638	28630
818.778	28729
818.919	28683
819.06	28793
819.2	28847
819.341	28706
819.481	28782
819.622	28957
819.762	29181
819.903	29189
820.043	28984
820.184	28843
820.324	29064
820.465	28999
820.605	29006
820.746	28976
820.886	28809
821.026	28976
821.167	28911
821.307	28930
821.447	28869
821.588	28740
821.728	28615
821.868	28538
822.008	28242
822.149	28291
822.289	28325
822.429	28192
822.569	28074
822.709	27949
822.849	27797
822.99	27861
823.13	27732
823.27	27610
823.41	27599
823.55	27466
823.69	27481
823.83	27477
823.97	27542
824.11	27382
824.25	27214
824.389	27477
824.529	27481
824.669	27310
824.809	27481
824.949	27435
825.089	27549
825.228	27469
825.368	27173
825.508	27317
825.648	27272
825.787	27252
825.927	27317
826.067	27169
826.206	27325
826.346	27393
826.485	27169
826.625	27142
826.765	27386
826.904	27230
827.044	27032
827.183	26940
827.323	27017
827.462	27058
827.601	27116
827.741	26887
827.88	27039
828.02	26914
828.159	27058
828.298	26918
828.437	26925
828.577	26952
828.716	26998
828.855	26754
828.994	26632
829.134	26587
829.273	26876
829.412	26663
829.551	26537
829.69	26594
829.829	26583
829.968	26686
830.107	26765
830.246	26556
830.385	26431
830.524	26442
830.663	26465
830.802	26385
830.941	26111
831.08	26172
831.219	26058
831.357	26233
831.496	26347
831.635	26069
831.774	26058
831.913	26180
832.051	25978
832.19	25951
832.329	25944
832.467	25856
832.606	25811
832.744	25719
832.883	25883
833.022	25791
833.16	25723
833.299	25799
833.437	25928
833.576	25902
833.714	25795
833.852	25947
833.991	25959
834.129	25818
834.267	25780
834.406	25856
834.544	25788
834.682	25826
834.821	25921
834.959	25963
835.097	25674
835.235	25887
835.373	25776
835.511	25712
835.65	25723
835.788	25632
835.926	25616
836.064	25392
836.202	25438
836.34	25712
836.478	25658
836.615	25651
836.753	25628
836.891	25670
837.029	25719
837.167	25514
837.305	25586
837.443	25335
837.58	25441
837.718	25426
837.856	25506
837.993	25373
838.131	25415
838.269	25381
838.406	25464
838.544	25213
838.681	25141
838.819	24977
838.956	24692
839.094	24905
839.231	24954
839.369	25050
839.506	25403
839.643	25133
839.781	24886
839.918	24798
840.055	24947
840.193	24741
840.33	24798
840.467	24760
840.604	24837
840.742	25015
840.879	24719
841.016	24620
841.153	24616
841.29	24909
841.427	24745
841.564	24726
841.701	24669
841.838	24673
841.975	24593
842.112	24642
842.249	24650
842.385	24513
842.522	24757
842.659	24532
842.796	24505
842.933	24228
843.069	24380
843.206	24471
843.343	24479
843.479	24414
843.616	24433
843.752	24273
843.889	24357
844.025	24334
844.162	24220
844.298	24338
844.435	24304
844.571	24171
844.708	24098
844.844	24315
844.98	24384
845.117	24292
845.253	24083
845.389	24117
845.525	24117
845.661	24098
845.798	23954
845.934	23977
846.07	23954
846.206	23965
846.342	23958
846.478	23882
846.614	23596
846.75	23608
846.886	23600
847.022	23680
847.158	23657
847.294	23657
847.429	23615
847.565	23684
847.701	23798
847.837	23265
847.972	23376
848.108	23402
848.244	23410
848.379	23235
848.515	23143
848.65	23060
848.786	23227
848.921	23261
849.057	23387
849.192	23189
849.328	23170
849.463	23090
849.598	23235
849.734	23060
849.869	23121
850.004	23010
850.14	23064
850.275	23006
850.41	22908
850.545	22801
850.68	22854
850.815	22877
850.95	22881
851.085	23132
851.22	22927
851.355	22930
851.49	22881
851.625	22873
851.76	22869
851.895	22809
852.03	22911
852.165	22972
852.299	23006
852.434	22892
852.569	22896
852.703	22820
852.838	22953
852.973	23014
853.107	23018
853.242	22877
853.376	22793
853.511	22554
853.645	22767
853.78	22713
853.914	22797
854.048	22725
854.183	22763
854.317	22630
854.451	22778
854.585	22713
854.72	22744
854.854	22816
854.988	22641
855.122	22706
855.256	22580
855.39	22649
855.524	22862
855.658	22729
855.792	22687
855.926	22797
856.06	22839
856.194	22767
856.327	22577
856.461	22683
856.595	22687
856.729	22592
856.862	22771
856.996	22725
857.13	22809
857.263	22816
857.397	22828
857.53	22615
857.664	22675
857.797	22694
857.931	22805
858.064	22656
858.197	22854
858.331	22664
858.464	22656
858.597	22630
858.731	22736
858.864	22691
858.997	22584
859.13	22596
859.263	22698
859.396	22698
859.529	22755
859.662	22573
859.795	22592
859.928	22618
860.061	22801
860.194	22904
860.327	22599
860.46	22565
860.592	22740
860.725	22679
860.858	22824
860.99	22653
861.123	22618
861.256	22710
861.388	22584
861.521	23345
861.653	22527
861.786	22474
861.918	22508
862.05	22656
862.183	22660
862.315	22767
862.447	22820
862.58	22527
862.712	22428
862.844	22409
862.976	22462
863.108	22440
863.24	22843
863.372	22352
863.504	22344
863.636	22348
863.768	22413
863.9	22341
864.032	22367
864.164	22299
864.296	22440
864.428	22481
864.559	22478
864.691	22402
864.823	22382
864.954	22352
865.086	22284
865.217	22242
865.349	22196
865.48	22207
865.612	22234
865.743	22352
865.875	22215
866.006	22131
866.137	22192
866.269	22261
866.4	22188
866.531	22120
866.662	22234
866.793	22242
866.924	22207
867.055	22219
867.186	22147
867.317	21968
867.448	22147
867.579	22029
867.71	22036
867.841	22074
867.972	22200
868.103	22207
868.233	22154
868.364	22097
868.495	22261
868.625	22394
868.756	22557
868.886	22314
869.017	22405
869.147	22481
869.278	22478
869.408	22413
869.539	22325
869.669	22443
869.799	22379
869.929	22497
870.06	22462
870.19	22702
870.32	22599
870.45	22854
870.58	22763
870.71	22896
870.84	22889
870.97	22786
871.1	22771
871.23	22908
871.36	22972
871.489	22904
871.619	22915
871.749	23003
871.879	22923
872.008	23136
872.138	22995
872.267	22927
872.397	22847
872.526	22835
872.656	22911
872.785	22824
872.915	23029
873.044	23041
873.173	22919
873.303	23064
873.432	23117
873.561	23071
873.69	23056
873.819	23010
873.948	23136
874.077	23140
874.206	22930
874.335	23010
874.464	23105
874.593	23166
874.722	23147
874.851	23220
874.979	23151
875.108	23220
875.237	23265
875.365	23010
875.494	23273
875.623	23239
875.751	23174
875.88	23246
876.008	23406
876.136	23433
876.265	23680
876.393	23737
876.521	23596
876.65	23589
876.778	23573
876.906	23554
877.034	23478
877.162	23497
877.29	23425
877.418	23463
877.546	23604
877.674	23539
877.802	23554
877.93	23497
878.058	23478
878.185	23368
878.313	23455
878.441	23543
878.568	23402
878.696	23341
878.824	23566
878.951	23497
879.079	23642
879.206	23714
879.333	23798
879.461	23436
879.588	23600
879.715	23604
879.842	23805
879.97	23531
880.097	23520
880.224	23436
880.351	23356
880.478	23387
880.605	23235
880.732	23444
880.859	23539
880.986	23341
881.112	23398
881.239	23239
881.366	23006
881.493	23018
881.619	22927
881.746	22987
881.872	22812
881.999	22782
882.125	22889
882.252	22946
882.378	22934
882.505	23018
882.631	22847
882.757	22740
882.883	22603
883.01	22710
883.136	22584
883.262	22493
883.388	22348
883.514	22561
883.64	22573
883.766	22554
883.892	22356
884.018	22341
884.143	22405
884.269	22535
884.395	22185
884.52	22139
884.646	22287
884.772	22147
884.897	22143
885.023	22268
885.148	22272
885.274	22402
885.399	22299
885.524	22173
885.65	22211
885.775	22139
885.9	22299
886.025	22367
886.15	22257
886.275	22158
886.4	22169
886.525	22154
886.65	22059
886.775	22021
886.9	22405
887.025	22447
887.149	22124
887.274	22078
887.399	21960
887.523	21941
887.648	22010
887.773	21797
887.897	21937
888.021	21949
888.146	21922
888.27	22101
888.395	22063
888.519	21979
888.643	21865
888.767	22059
888.891	21827
889.015	21755
889.139	21835
889.263	21720
889.387	21842
889.511	21911
889.635	21956
889.759	21660
889.883	21690
890.006	21762
890.13	21793
890.254	21614
890.377	21663
890.501	21587
890.624	21424
890.748	21610
890.871	21443
890.995	21321
891.118	21131
891.241	21306
891.364	21302
891.488	21397
891.611	21310
891.734	21367
891.857	21294
891.98	21211
892.103	21256
892.226	21291
892.349	21332
892.471	21146
892.594	21260
892.717	21283
892.839	21150
892.962	21135
893.085	21279
893.207	21142
893.33	21051
893.452	21070
893.575	21154
893.697	21135
893.819	21370
893.941	21412
894.064	21283
894.186	21150
894.308	21135
894.43	21245
894.552	21325
894.674	21283
894.796	21089
894.918	21146
895.04	21161
895.161	21252
895.283	21104
895.405	21100
895.526	21203
895.648	21214
895.769	21154
895.891	21203
896.012	21275
896.134	21199
896.255	21169
896.376	21135
896.498	21230
896.619	21173
896.74	21203
896.861	21336
896.982	21530
897.103	21641
897.224	21408
897.345	21447
897.466	21382
897.587	21431
897.708	21405
897.828	21454
897.949	21412
898.07	21123
898.19	21272
898.311	21462
898.431	21306
898.552	21329
898.672	21393
898.792	21428
898.913	21264
899.033	21408
899.153	21161
899.273	21005
899.393	21093
899.513	20994
899.633	21131
899.753	20967
899.873	20861
899.993	21112
900.113	21047
900.232	21028
900.352	21047
900.472	20971
900.591	20785
900.711	20800
900.83	20765
900.95	21020
901.069	20956
901.189	20727
901.308	20511
901.427	20499
901.546	20377
901.665	20518
901.784	20324
901.904	20218
902.023	20001
902.141	19963
902.26	19841
902.379	19978
902.498	19928
902.617	19811
902.735	19921
902.854	19868
902.973	19826
903.091	19578
903.21	19468
903.328	19502
903.446	19457
903.565	19381
903.683	19449
903.801	19285
903.919	19304
904.038	19278
904.156	19110
904.274	19152
904.392	19206
904.51	19072
904.627	19057
904.745	19103
904.863	19076
904.981	18954
905.098	18787
905.216	18829
905.334	18817
905.451	18776
905.569	18734
905.686	18646
905.803	18806
905.921	18566
906.038	18642
906.155	18536
906.272	18426
906.389	18525
906.506	18254
906.623	18273
906.74	18277
906.857	18235
906.974	18148
907.091	18338
907.208	18380
907.324	18228
907.441	18228
907.557	18019
907.674	17923
907.79	17897
907.907	17973
908.023	17988
908.139	17916
908.256	17889
908.372	17923
908.488	17828
908.604	17668
908.72	17657
908.836	17733
908.952	17672
909.068	17623
909.184	17634
909.3	17634
909.415	17668
909.531	17516
909.647	17402
909.762	17414
909.878	17288
909.993	17421
910.108	17318
910.224	17231
910.339	17379
910.454	17212
910.57	17151
910.685	17048
910.8	17303
910.915	17288
911.03	17143
911.145	16999
911.259	16812
911.374	16934
911.489	16797
911.604	16611
911.718	16630
911.833	16733
911.947	16577
912.062	16535
912.176	16615
912.291	16645
912.405	16554
912.519	16835
912.633	16744
912.748	16637
912.862	16592
912.976	16386
913.09	16322
913.204	16379
913.318	16421
913.431	16512
913.545	16455
913.659	16455
913.772	16348
913.886	16310
914	16162
914.113	16299
914.226	16409
914.34	16265
914.453	16067
914.566	16287
914.68	16105
914.793	16010
914.906	15911
915.019	15831
915.132	15778
915.245	15873
915.358	15873
915.47	15713
915.583	15838
915.696	15857
915.809	15888
915.921	15907
916.034	15759
916.146	15800
916.259	15682
916.371	15743
916.483	15789
916.595	15557
916.708	15656
916.82	15576
916.932	15523
917.044	15477
917.156	15481
917.268	15424
917.38	15561
917.491	15439
917.603	15466
917.715	15466
917.826	15561
917.938	15294
918.049	15222
918.161	15389
918.272	15538
918.384	15507
918.495	15355
918.606	15188
918.717	15173
918.828	15116
918.939	15279
919.05	15028
919.161	15298
919.272	14963
919.383	14990
919.494	15207
919.604	15325
919.715	15131
919.826	15070
919.936	15135
920.047	15176
920.157	15135
920.267	15313
920.378	15146
920.488	15119
920.598	15287
920.708	15329
920.818	15161
920.928	15173
921.038	15241
921.148	15367
921.258	14967
921.368	15009
921.477	14876
921.587	14838
921.697	14602
921.806	14769
921.916	14659
922.025	14423
922.134	14530
922.244	14393
922.353	14469
922.462	14347
922.571	14267
922.68	14164
922.789	14077
922.898	14088
923.007	14020
923.116	14065
923.224	14123
923.333	14005
923.442	13989
923.55	13875
923.659	13898
923.767	13951
923.876	13841
923.984	13845
924.092	13776
924.201	13868
924.309	13818
924.417	13757
924.525	13769
924.633	13666
924.741	14708
924.849	13518
924.956	13643
925.064	13533
925.172	13460
925.279	13476
925.387	13529
925.494	13445
925.602	13521
925.709	13472
925.816	13384
925.924	13518
926.031	13365
926.138	13255
926.245	13400
926.352	13282
926.459	13434
926.566	13476
926.673	13259
926.779	13198
926.886	13202
926.993	13027
927.099	13000
927.206	12973
927.312	12928
927.419	13046
927.525	12970
927.631	13061
927.737	12848
927.843	12932
927.95	12802
928.056	12871
928.162	12829
928.267	12867
928.373	13567
928.479	12859
928.585	12684
928.69	12783
928.796	12662
928.901	12722
929.007	12563
929.112	12650
929.218	12578
929.323	12540
929.428	12498
929.533	12627
929.638	12365
929.743	12464
929.848	12555
929.953	12467
930.058	12395
930.163	12182
930.267	12216
930.372	12384
930.477	12133
930.581	12350
930.685	12175
930.79	12079
930.894	12136
930.998	12064
931.103	12114
931.207	11889
931.311	11733
931.415	11600
931.519	11486
931.623	11376
