Data from test_V78500241_3429.txt Node
Date: Fri Mar 25 16:05:33 CST 2022
User: usil
Spectrometer: V785-0024
Trigger mode: 0
Integration Time (sec): 4.000000E-1
Scans to average: 1
Nonlinearity correction enabled: false
Boxcar width: 0
Storing dark spectrum: false
XAxis mode: Wavelengths
Number of Pixels in Spectrum: 1024
>>>>>Begin Spectral Data<<<<<
801.071	28923
801.214	28862
801.356	28687
801.499	28599
801.641	28447
801.783	28367
801.926	28493
802.068	28394
802.211	28352
802.353	28443
802.496	28211
802.638	28006
802.78	28120
802.923	28051
803.065	28013
803.208	28109
803.35	28139
803.492	28329
803.635	28348
803.777	28253
803.919	28367
804.061	28752
804.204	28455
804.346	28363
804.488	28284
804.63	28337
804.773	28352
804.915	28455
805.057	28523
805.199	28322
805.341	28462
805.483	28527
805.626	28577
805.768	28382
805.91	28634
806.052	28611
806.194	28596
806.336	28641
806.478	28546
806.62	28577
806.762	28702
806.904	28877
807.046	29155
807.188	28942
807.33	29044
807.472	29033
807.614	29006
807.756	28835
807.898	28869
808.04	28771
808.182	28987
808.324	28850
808.465	29010
808.607	29033
808.749	29337
808.891	29284
809.033	29337
809.174	29372
809.316	29334
809.458	29216
809.6	29220
809.741	29433
809.883	29398
810.025	29608
810.166	29638
810.308	29512
810.45	29440
810.591	29379
810.733	29349
810.875	29292
811.016	29174
811.158	29083
811.299	29299
811.441	29375
811.582	29433
811.724	29395
811.865	29307
812.007	29341
812.148	29235
812.29	29356
812.431	29429
812.573	29687
812.714	29699
812.855	29813
812.997	29923
813.138	29984
813.279	30026
813.421	29764
813.562	29775
813.703	29623
813.845	29600
813.986	29071
814.127	29113
814.268	29090
814.41	28877
814.551	29052
814.692	29109
814.833	29136
814.974	29003
815.115	29003
815.256	28748
815.397	29029
815.539	28869
815.68	28763
815.821	28885
815.962	28774
816.103	28748
816.244	28710
816.385	28561
816.526	28367
816.666	28386
816.807	28322
816.948	28428
817.089	28405
817.23	28196
817.371	28398
817.512	28306
817.653	28417
817.793	28344
817.934	28253
818.075	28303
818.216	28306
818.356	28329
818.497	28303
818.638	28124
818.778	28154
818.919	28036
819.06	28215
819.2	28234
819.341	28284
819.481	28375
819.622	28447
819.762	28710
819.903	28637
820.043	28466
820.184	28516
820.324	28481
820.465	28474
820.605	28641
820.746	28318
820.886	28329
821.026	28447
821.167	28295
821.307	28497
821.447	28497
821.588	28299
821.728	28013
821.868	28021
822.008	27793
822.149	27606
822.289	27854
822.429	27614
822.569	27485
822.709	27500
822.849	27397
822.99	27332
823.13	27203
823.27	27207
823.41	27195
823.55	26971
823.69	27066
823.83	27009
823.97	27058
824.11	27051
824.25	26944
824.389	26944
824.529	27062
824.669	26933
824.809	27211
824.949	27184
825.089	27093
825.228	27055
825.368	26750
825.508	26853
825.648	26872
825.787	26880
825.927	26956
826.067	26807
826.206	26910
826.346	26933
826.485	26823
826.625	26906
826.765	26971
826.904	27077
827.044	26629
827.183	26743
827.323	26503
827.462	26689
827.601	26621
827.741	26575
827.88	26549
828.02	26507
828.159	26541
828.298	26522
828.437	26629
828.577	26545
828.716	26590
828.855	26579
828.994	26324
829.134	26172
829.273	26408
829.412	26309
829.551	26206
829.69	26396
829.829	26362
829.968	26248
830.107	26244
830.246	26259
830.385	26396
830.524	26142
830.663	25978
830.802	25986
830.941	25841
831.08	25765
831.219	25917
831.357	26024
831.496	25970
831.635	25830
831.774	25712
831.913	25704
832.051	25620
832.19	25594
832.329	25753
832.467	25590
832.606	25506
832.744	25476
832.883	25426
833.022	25472
833.16	25514
833.299	25674
833.437	25635
833.576	25628
833.714	25556
833.852	25674
833.991	25537
834.129	25616
834.267	25765
834.406	25750
834.544	25601
834.682	25563
834.821	25578
834.959	25890
835.097	25578
835.235	25727
835.373	25696
835.511	25639
835.65	25521
835.788	25483
835.926	25335
836.064	25285
836.202	25213
836.34	25464
836.478	25514
836.615	25312
836.753	25468
836.891	25533
837.029	25533
837.167	25392
837.305	25346
837.443	25304
837.58	25244
837.718	25350
837.856	25251
837.993	25202
838.131	25171
838.269	25099
838.406	25164
838.544	25038
838.681	24947
838.819	24875
838.956	24798
839.094	24673
839.231	24837
839.369	24848
839.506	25072
839.643	25012
839.781	24795
839.918	24654
840.055	24658
840.193	24700
840.33	24532
840.467	24715
840.604	24745
840.742	24897
840.879	24502
841.016	24589
841.153	24528
841.29	24715
841.427	24612
841.564	24639
841.701	24658
841.838	24597
841.975	24483
842.112	24582
842.249	24502
842.385	24361
842.522	24707
842.659	24422
842.796	24384
842.933	24350
843.069	24300
843.206	24308
843.343	24395
843.479	24270
843.616	24403
843.752	24121
843.889	24258
844.025	24342
844.162	24216
844.298	24296
844.435	24194
844.571	24064
844.708	24159
844.844	24338
844.98	24232
845.117	24190
845.253	24129
845.389	24018
845.525	24060
845.661	23939
845.798	23843
845.934	24068
846.07	23908
846.206	23828
846.342	23999
846.478	23935
846.614	23653
846.75	23615
846.886	23668
847.022	23649
847.158	23623
847.294	23581
847.429	23657
847.565	23611
847.701	23832
847.837	23417
847.972	23398
848.108	23482
848.244	23425
848.379	23239
848.515	23197
848.65	23155
848.786	23216
848.921	23113
849.057	23334
849.192	23265
849.328	23250
849.463	23265
849.598	23200
849.734	23124
849.869	23124
850.004	22995
850.14	22976
850.275	23014
850.41	22946
850.545	22866
850.68	22908
850.815	23060
850.95	22854
851.085	23204
851.22	23090
851.355	23010
851.49	23010
851.625	22987
851.76	22965
851.895	22923
852.03	22809
852.165	22942
852.299	22991
852.434	23014
852.569	23014
852.703	22961
852.838	23102
852.973	22980
853.107	22984
853.242	22828
853.376	22759
853.511	22744
853.645	22755
853.78	23003
853.914	22740
854.048	22782
854.183	22729
854.317	22816
854.451	23094
854.585	22805
854.72	22919
854.854	22889
854.988	22740
855.122	22733
855.256	22645
855.39	22774
855.524	22896
855.658	22885
855.792	22847
855.926	22679
856.06	22805
856.194	22938
856.327	22744
856.461	22710
856.595	22797
856.729	22717
856.862	22930
856.996	22786
857.13	22858
857.263	22927
857.397	22839
857.53	22873
857.664	22824
857.797	22835
857.931	22938
858.064	22854
858.197	22908
858.331	22824
858.464	22755
858.597	22675
858.731	22778
858.864	22706
858.997	22725
859.13	22824
859.263	22869
859.396	22847
859.529	22828
859.662	22759
859.795	22778
859.928	22771
860.061	22946
860.194	23079
860.327	22816
860.46	22740
860.592	22866
860.725	23018
860.858	22850
860.99	22809
861.123	22740
861.256	22847
861.388	22904
861.521	23448
861.653	22561
861.786	22729
861.918	22573
862.05	22630
862.183	22744
862.315	22774
862.447	22828
862.58	22706
862.712	22481
862.844	22500
862.976	22603
863.108	22584
863.24	22847
863.372	22295
863.504	22474
863.636	22413
863.768	22516
863.9	22573
864.032	22432
864.164	22481
864.296	22497
864.428	22607
864.559	22542
864.691	22516
864.823	22519
864.954	22493
865.086	22618
865.217	22447
865.349	22268
865.48	22409
865.612	22356
865.743	22626
865.875	22478
866.006	22371
866.137	22417
866.269	22424
866.4	22322
866.531	22306
866.662	22188
866.793	22291
866.924	22242
867.055	22268
867.186	22287
867.317	22280
867.448	22188
867.579	22135
867.71	22223
867.841	22124
867.972	22356
868.103	22348
868.233	22295
868.364	22223
868.495	22455
868.625	22580
868.756	22588
868.886	22512
869.017	22672
869.147	22634
869.278	22626
869.408	22504
869.539	22580
869.669	22535
869.799	22535
869.929	22759
870.06	22577
870.19	22835
870.32	22782
870.45	22847
870.58	22904
870.71	23033
870.84	23060
870.97	22961
871.1	22930
871.23	23200
871.36	23098
871.489	22957
871.619	23029
871.749	23048
871.879	23299
872.008	23212
872.138	23060
872.267	23151
872.397	23010
872.526	22953
872.656	22949
872.785	22869
872.915	23174
873.044	23239
873.173	23117
873.303	23216
873.432	23174
873.561	23326
873.69	23181
873.819	23071
873.948	23239
874.077	23277
874.206	23200
874.335	23216
874.464	23178
874.593	23379
874.722	23395
874.851	23528
874.979	23250
875.108	23497
875.237	23353
875.365	23227
875.494	23265
875.623	23520
875.751	23368
875.88	23376
876.008	23414
876.136	23505
876.265	23745
876.393	23783
876.521	23885
876.65	23729
876.778	23764
876.906	23722
877.034	23771
877.162	23649
877.29	23573
877.418	23707
877.546	23775
877.674	23771
877.802	23627
877.93	23691
878.058	23539
878.185	23642
878.313	23634
878.441	23718
878.568	23562
878.696	23543
878.824	23695
878.951	23771
879.079	23893
879.206	24038
879.333	23935
879.461	23760
879.588	23733
879.715	23802
879.842	23859
879.97	23828
880.097	23482
880.224	23604
880.351	23444
880.478	23581
880.605	23383
880.732	23615
880.859	23775
880.986	23516
881.112	23657
881.239	23383
881.366	23174
881.493	23189
881.619	23124
881.746	23200
881.872	23178
881.999	23067
882.125	23064
882.252	23079
882.378	23029
882.505	23132
882.631	22987
882.757	22816
882.883	22702
883.01	22744
883.136	22740
883.262	22672
883.388	22542
883.514	22786
883.64	22854
883.766	22694
883.892	22599
884.018	22622
884.143	22660
884.269	22752
884.395	22466
884.52	22363
884.646	22363
884.772	22337
884.897	22253
885.023	22390
885.148	22577
885.274	22523
885.399	22436
885.524	22402
885.65	22306
885.775	22310
885.9	22348
886.025	22478
886.15	22379
886.275	22272
886.4	22379
886.525	22443
886.65	22215
886.775	22192
886.9	22405
887.025	22573
887.149	22382
887.274	22120
887.399	22109
887.523	22074
887.648	22055
887.773	21934
887.897	22261
888.021	22002
888.146	21975
888.27	22204
888.395	22128
888.519	22181
888.643	22154
888.767	22051
888.891	22025
889.015	22017
889.139	21956
889.263	21842
889.387	21918
889.511	22162
889.635	21903
889.759	21930
889.883	21953
890.006	21953
890.13	22063
890.254	21880
890.377	21930
890.501	21682
890.624	21606
890.748	21759
890.871	21511
890.995	21553
891.118	21348
891.241	21393
891.364	21469
891.488	21542
891.611	21408
891.734	21564
891.857	21386
891.98	21485
892.103	21477
892.226	21412
892.349	21443
892.471	21241
892.594	21454
892.717	21378
892.839	21431
892.962	21492
893.085	21401
893.207	21389
893.33	21260
893.452	21260
893.575	21416
893.697	21294
893.819	21408
893.941	21675
894.064	21424
894.186	21233
894.308	21294
894.43	21332
894.552	21530
894.674	21321
894.796	21131
894.918	21401
895.04	21393
895.161	21367
895.283	21443
895.405	21329
895.526	21291
895.648	21241
895.769	21393
895.891	21332
896.012	21412
896.134	21245
896.255	21321
896.376	21298
896.498	21207
896.619	21348
896.74	21443
896.861	21359
896.982	21667
897.103	21739
897.224	21606
897.345	21523
897.466	21428
897.587	21431
897.708	21633
897.828	21595
897.949	21416
898.07	21344
898.19	21454
898.311	21568
898.431	21416
898.552	21469
898.672	21629
898.792	21564
898.913	21530
899.033	21397
899.153	21260
899.273	21272
899.393	21298
899.513	21218
899.633	21272
899.753	21222
899.873	21260
899.993	21275
900.113	21211
900.232	21154
900.352	21096
900.472	21017
900.591	20986
900.711	20960
900.83	20899
900.95	21142
901.069	21138
901.189	20967
901.308	20705
901.427	20476
901.546	20526
901.665	20689
901.784	20659
901.904	20461
902.023	20370
902.141	20065
902.26	20054
902.379	20161
902.498	20115
902.617	20084
902.735	20115
902.854	20069
902.973	20016
903.091	19826
903.21	19681
903.328	19727
903.446	19655
903.565	19597
903.683	19533
903.801	19449
903.919	19468
904.038	19396
904.156	19312
904.274	19354
904.392	19221
904.51	19190
904.627	19160
904.745	19312
904.863	19308
904.981	19129
905.098	18977
905.216	19072
905.334	18970
905.451	18924
905.569	18958
905.686	18939
905.803	18943
905.921	18730
906.038	18798
906.155	18631
906.272	18692
906.389	18658
906.506	18437
906.623	18486
906.74	18418
906.857	18346
906.974	18346
907.091	18506
907.208	18620
907.324	18509
907.441	18422
907.557	18144
907.674	18228
907.79	18083
907.907	18186
908.023	18292
908.139	18091
908.256	18148
908.372	18057
908.488	18087
908.604	17912
908.72	17904
908.836	17950
908.952	17764
909.068	17935
909.184	17980
909.3	17805
909.415	17870
909.531	17718
909.647	17585
909.762	17665
909.878	17604
909.993	17634
910.108	17562
910.224	17478
910.339	17722
910.454	17497
910.57	17341
910.685	17379
910.8	17516
910.915	17410
911.03	17429
911.145	17231
911.259	17246
911.374	17159
911.489	17075
911.604	17045
911.718	16942
911.833	16786
911.947	16824
912.062	16752
912.176	16908
912.291	16942
912.405	16877
912.519	17071
912.633	17178
912.748	16949
912.862	16877
912.976	16755
913.09	16550
913.204	16630
913.318	16694
913.431	16759
913.545	16767
913.659	16805
913.772	16584
913.886	16508
914	16523
914.113	16599
914.226	16656
914.34	16561
914.453	16352
914.566	16474
914.68	16322
914.793	16249
914.906	16147
915.019	16109
915.132	16036
915.245	16097
915.358	16067
915.47	16036
915.583	15998
915.696	16128
915.809	16162
915.921	16135
916.034	15983
916.146	15991
916.259	15865
916.371	16002
916.483	16097
916.595	15895
916.708	15785
916.82	15861
916.932	15892
917.044	15819
917.156	15770
917.268	15694
917.38	15694
917.491	15724
917.603	15755
917.715	15751
917.826	15808
917.938	15694
918.049	15462
918.161	15587
918.272	15739
918.384	15663
918.495	15576
918.606	15408
918.717	15336
918.828	15401
918.939	15435
919.05	15397
919.161	15336
919.272	15222
919.383	15233
919.494	15458
919.604	15660
919.715	15382
919.826	15294
919.936	15374
920.047	15500
920.157	15420
920.267	15557
920.378	15389
920.488	15408
920.598	15477
920.708	15644
920.818	15622
920.928	15519
921.038	15637
921.148	15644
921.258	15332
921.368	15321
921.477	15161
921.587	15077
921.697	14902
921.806	15116
921.916	14937
922.025	14712
922.134	14712
922.244	14724
922.353	14815
922.462	14568
922.571	14556
922.68	14434
922.789	14366
922.898	14415
923.007	14267
923.116	14377
923.224	14343
923.333	14419
923.442	14225
923.55	14229
923.659	14275
923.767	14221
923.876	14115
923.984	14237
924.092	14176
924.201	14138
924.309	13955
924.417	14062
924.525	14016
924.633	13925
924.741	14929
924.849	13788
924.956	13970
925.064	13731
925.172	13655
925.279	13708
925.387	13750
925.494	13799
925.602	13871
925.709	13788
925.816	13674
925.924	13693
926.031	13791
926.138	13590
926.245	13674
926.352	13636
926.459	13613
926.566	13727
926.673	13571
926.779	13464
926.886	13476
926.993	13354
927.099	13179
927.206	13247
927.312	13171
927.419	13373
927.525	13168
927.631	13217
927.737	13251
927.843	13175
927.95	12958
928.056	13061
928.162	13015
928.267	13072
928.373	13651
928.479	13168
928.585	12901
928.69	12973
928.796	13069
928.901	12886
929.007	12844
929.112	12916
929.218	12894
929.323	12753
929.428	12817
929.533	12901
929.638	12650
929.743	12734
929.848	12745
929.953	12711
930.058	12612
930.163	12490
930.267	12429
930.372	12502
930.477	12448
930.581	12582
930.685	12540
930.79	12376
930.894	12388
930.998	12273
931.103	12506
931.207	12019
931.311	11965
931.415	11878
931.519	11608
931.623	11642
