Data from test_V78500241_619.txt Node
Date: Fri Mar 25 15:46:05 CST 2022
User: usil
Spectrometer: V785-0024
Trigger mode: 0
Integration Time (sec): 4.000000E-1
Scans to average: 1
Nonlinearity correction enabled: false
Boxcar width: 0
Storing dark spectrum: false
XAxis mode: Wavelengths
Number of Pixels in Spectrum: 1024
>>>>>Begin Spectral Data<<<<<
801.071	27641
801.214	27530
801.356	27321
801.499	27321
801.641	27024
801.783	27165
801.926	27207
802.068	27058
802.211	26929
802.353	27055
802.496	26853
802.638	26621
802.78	26792
802.923	26697
803.065	26849
803.208	26811
803.35	26849
803.492	26853
803.635	26872
803.777	26705
803.919	27005
804.061	27211
804.204	26940
804.346	26868
804.488	26720
804.63	26998
804.773	26891
804.915	26937
805.057	27017
805.199	26937
805.341	26853
805.483	27108
805.626	27180
805.768	27047
805.91	27055
806.052	27116
806.194	26937
806.336	27355
806.478	27100
806.62	27089
806.762	27089
806.904	27173
807.046	27606
807.188	27599
807.33	27561
807.472	27473
807.614	27443
807.756	27344
807.898	27203
808.04	27313
808.182	27249
808.324	27211
808.465	27329
808.607	27553
808.749	27701
808.891	27888
809.033	27861
809.174	27835
809.316	27747
809.458	27724
809.6	27736
809.741	27739
809.883	27766
810.025	27926
810.166	27983
810.308	28093
810.45	28029
810.591	27861
810.733	27614
810.875	27656
811.016	27557
811.158	27648
811.299	27808
811.441	27892
811.582	27778
811.724	27686
811.865	27667
812.007	27759
812.148	27739
812.29	27762
812.431	27972
812.573	27994
812.714	28097
812.855	28207
812.997	28105
813.138	28409
813.279	28303
813.421	28226
813.562	28325
813.703	28082
813.845	27911
813.986	27606
814.127	27424
814.268	27427
814.41	27454
814.551	27310
814.692	27458
814.833	27393
814.974	27412
815.115	27401
815.256	27313
815.397	27287
815.539	27199
815.68	27256
815.821	27188
815.962	27252
816.103	27161
816.244	27058
816.385	26952
816.526	26845
816.666	26921
816.807	26530
816.948	26743
817.089	26864
817.23	26609
817.371	26609
817.512	26697
817.653	26644
817.793	26598
817.934	26670
818.075	26697
818.216	26788
818.356	26701
818.497	26522
818.638	26370
818.778	26488
818.919	26434
819.06	26415
819.2	26590
819.341	26590
819.481	26655
819.622	26769
819.762	27058
819.903	27001
820.043	26823
820.184	26720
820.324	26762
820.465	26868
820.605	26739
820.746	26746
820.886	26678
821.026	26788
821.167	26705
821.307	26739
821.447	26511
821.588	26590
821.728	26461
821.868	26412
822.008	26168
822.149	26134
822.289	26092
822.429	25883
822.569	25731
822.709	25761
822.849	25601
822.99	25681
823.13	25662
823.27	25586
823.41	25499
823.55	25483
823.69	25422
823.83	25422
823.97	25381
824.11	25202
824.25	25126
824.389	25168
824.529	25304
824.669	25308
824.809	25247
824.949	25247
825.089	25430
825.228	25335
825.368	25061
825.508	25145
825.648	25274
825.787	25118
825.927	25175
826.067	25187
826.206	25156
826.346	25141
826.485	25160
826.625	25076
826.765	25187
826.904	25069
827.044	24795
827.183	24947
827.323	24760
827.462	24730
827.601	24905
827.741	24791
827.88	24856
828.02	24661
828.159	24753
828.298	24833
828.437	24890
828.577	24719
828.716	24985
828.855	24798
828.994	24513
829.134	24483
829.273	24635
829.412	24437
829.551	24551
829.69	24623
829.829	24627
829.968	24540
830.107	24616
830.246	24578
830.385	24403
830.524	24407
830.663	24350
830.802	24232
830.941	24098
831.08	24087
831.219	24251
831.357	24125
831.496	24452
831.635	24270
831.774	23973
831.913	23893
832.051	23950
832.19	23859
832.329	23950
832.467	23786
832.606	23836
832.744	23783
832.883	23828
833.022	23817
833.16	23779
833.299	23813
833.437	23824
833.576	23946
833.714	23885
833.852	23817
833.991	23973
834.129	23912
834.267	23927
834.406	23870
834.544	23775
834.682	23904
834.821	23821
834.959	23958
835.097	23745
835.235	23942
835.373	23805
835.511	23722
835.65	23737
835.788	23710
835.926	23661
836.064	23566
836.202	23551
836.34	23718
836.478	23722
836.615	23570
836.753	23733
836.891	23904
837.029	23771
837.167	23657
837.305	23562
837.443	23524
837.58	23471
837.718	23676
837.856	23554
837.993	23505
838.131	23520
838.269	23322
838.406	23505
838.544	23299
838.681	23102
838.819	23235
838.956	23018
839.094	22915
839.231	23075
839.369	23200
839.506	23387
839.643	23417
839.781	23014
839.918	23025
840.055	23079
840.193	23022
840.33	22991
840.467	22835
840.604	22961
840.742	23337
840.879	22828
841.016	22915
841.153	22778
841.29	23014
841.427	22866
841.564	22850
841.701	22850
841.838	22672
841.975	22828
842.112	22839
842.249	22782
842.385	22717
842.522	22900
842.659	22850
842.796	22588
842.933	22702
843.069	22653
843.206	22710
843.343	22767
843.479	22603
843.616	22683
843.752	22497
843.889	22508
844.025	22672
844.162	22402
844.298	22519
844.435	22424
844.571	22375
844.708	22500
844.844	22607
844.98	22630
845.117	22565
845.253	22474
845.389	22204
845.525	22341
845.661	22322
845.798	22173
845.934	22154
846.07	22341
846.206	22329
846.342	22386
846.478	22249
846.614	21949
846.75	21720
846.886	21888
847.022	22013
847.158	22010
847.294	21899
847.429	21880
847.565	21857
847.701	22219
847.837	21732
847.972	21603
848.108	21736
848.244	21698
848.379	21603
848.515	21603
848.65	21526
848.786	21523
848.921	21618
849.057	21663
849.192	21701
849.328	21644
849.463	21439
849.598	21618
849.734	21431
849.869	21401
850.004	21275
850.14	21374
850.275	21386
850.41	21119
850.545	21294
850.68	21256
850.815	21222
850.95	21294
851.085	21344
851.22	21374
851.355	21344
851.49	21154
851.625	21378
851.76	21283
851.895	21169
852.03	21233
852.165	21321
852.299	21363
852.434	21321
852.569	21310
852.703	21264
852.838	21249
852.973	21561
853.107	21412
853.242	21199
853.376	21081
853.511	20948
853.645	21058
853.78	21176
853.914	21104
854.048	20914
854.183	21074
854.317	21123
854.451	21424
854.585	21013
854.72	21165
854.854	21180
854.988	21043
855.122	21058
855.256	20910
855.39	21195
855.524	21157
855.658	21165
855.792	21146
855.926	21070
856.06	21108
856.194	21192
856.327	20994
856.461	21104
856.595	21020
856.729	21066
856.862	21173
856.996	21146
857.13	21195
857.263	21291
857.397	21211
857.53	21001
857.664	21161
857.797	21188
857.931	21214
858.064	21112
858.197	21203
858.331	21077
858.464	20994
858.597	20960
858.731	21089
858.864	21047
858.997	21032
859.13	21032
859.263	21070
859.396	21252
859.529	21119
859.662	21146
859.795	20998
859.928	21036
860.061	21321
860.194	21317
860.327	21165
860.46	21176
860.592	21157
860.725	21287
860.858	21237
860.99	21108
861.123	20960
861.256	21001
861.388	21142
861.521	21679
861.653	20975
861.786	20929
861.918	20986
862.05	21081
862.183	20986
862.315	21142
862.447	21020
862.58	20967
862.712	20826
862.844	20724
862.976	20872
863.108	20918
863.24	21123
863.372	20674
863.504	20765
863.636	20758
863.768	20933
863.9	20807
864.032	20670
864.164	20769
864.296	20883
864.428	20918
864.559	20838
864.691	20929
864.823	20842
864.954	20834
865.086	20849
865.217	20754
865.349	20625
865.48	20697
865.612	20750
865.743	20906
865.875	20667
866.006	20636
866.137	20609
866.269	20705
866.4	20716
866.531	20587
866.662	20503
866.793	20644
866.924	20655
867.055	20568
867.186	20667
867.317	20693
867.448	20625
867.579	20590
867.71	20526
867.841	20560
867.972	20693
868.103	20735
868.233	20625
868.364	20708
868.495	20731
868.625	20937
868.756	21070
868.886	20815
869.017	20921
869.147	21051
869.278	21055
869.408	20941
869.539	20853
869.669	20975
869.799	20872
869.929	20979
870.06	21100
870.19	21298
870.32	21218
870.45	21245
870.58	21321
870.71	21504
870.84	21420
870.97	21306
871.1	21245
871.23	21504
871.36	21382
871.489	21420
871.619	21443
871.749	21500
871.879	21488
872.008	21629
872.138	21454
872.267	21496
872.397	21416
872.526	21245
872.656	21336
872.785	21355
872.915	21557
873.044	21545
873.173	21530
873.303	21564
873.432	21507
873.561	21538
873.69	21622
873.819	21405
873.948	21545
874.077	21553
874.206	21374
874.335	21633
874.464	21667
874.593	21804
874.722	21724
874.851	21823
874.979	21918
875.108	21804
875.237	21679
875.365	21633
875.494	21808
875.623	21850
875.751	21732
875.88	21755
876.008	21785
876.136	21960
876.265	22128
876.393	22291
876.521	22147
876.65	22280
876.778	22090
876.906	22131
877.034	22074
877.162	22078
877.29	22048
877.418	22101
877.546	22086
877.674	22238
877.802	22048
877.93	22147
878.058	22112
878.185	21930
878.313	21949
878.441	22078
878.568	21994
878.696	22040
878.824	22101
878.951	22093
879.079	22306
879.206	22257
879.333	22265
879.461	22169
879.588	22185
879.715	22226
879.842	22390
879.97	22078
880.097	21964
880.224	21945
880.351	21975
880.478	22010
880.605	21911
880.732	21903
880.859	22078
880.986	22029
881.112	21918
881.239	21857
881.366	21720
881.493	21564
881.619	21515
881.746	21515
881.872	21462
881.999	21538
882.125	21473
882.252	21519
882.378	21412
882.505	21595
882.631	21336
882.757	21226
882.883	21245
883.01	21150
883.136	21077
883.262	21085
883.388	21013
883.514	21222
883.64	21211
883.766	21173
883.892	21070
884.018	21017
884.143	21157
884.269	21249
884.395	21005
884.52	20800
884.646	20861
884.772	20887
884.897	20663
885.023	20925
885.148	20918
885.274	21085
885.399	20906
885.524	20781
885.65	20807
885.775	20800
885.9	20781
886.025	20979
886.15	20929
886.275	20838
886.4	20788
886.525	20823
886.65	20796
886.775	20762
886.9	20868
887.025	21013
887.149	20823
887.274	20670
887.399	20686
887.523	20762
887.648	20686
887.773	20499
887.897	20640
888.021	20674
888.146	20469
888.27	20754
888.395	20708
888.519	20655
888.643	20712
888.767	20632
888.891	20629
889.015	20415
889.139	20461
889.263	20385
889.387	20423
889.511	20602
889.635	20514
889.759	20446
889.883	20248
890.006	20461
890.13	20461
890.254	20495
890.377	20434
890.501	20214
890.624	20122
890.748	20256
890.871	19928
890.995	19967
891.118	20008
891.241	20069
891.364	19982
891.488	20012
891.611	19894
891.734	20065
891.857	19974
891.98	20084
892.103	20016
892.226	19989
892.349	19947
892.471	19921
892.594	20016
892.717	19947
892.839	19890
892.962	19986
893.085	19909
893.207	19909
893.33	19860
893.452	19845
893.575	19879
893.697	19978
893.819	20050
893.941	20100
894.064	20024
894.186	19700
894.308	19712
894.43	19997
894.552	20050
894.674	20020
894.796	19795
894.918	19837
895.04	19902
895.161	19959
895.283	19917
895.405	19890
895.526	19833
895.648	19780
895.769	19902
895.891	19947
896.012	19947
896.134	19791
896.255	19951
896.376	19826
896.498	19906
896.619	19906
896.74	19803
896.861	20069
896.982	20199
897.103	20259
897.224	20259
897.345	20050
897.466	20115
897.587	20054
897.708	20111
897.828	20145
897.949	20016
898.07	19890
898.19	20092
898.311	20122
898.431	20077
898.552	20119
898.672	20195
898.792	20195
898.913	19982
899.033	20081
899.153	19978
899.273	19795
899.393	19845
899.513	19845
899.633	19974
899.753	19887
899.873	19826
899.993	19864
900.113	19841
900.232	19761
900.352	19765
900.472	19772
900.591	19727
900.711	19769
900.83	19658
900.95	19814
901.069	19811
901.189	19514
901.308	19388
901.427	19301
901.546	19244
901.665	19274
901.784	19244
901.904	19038
902.023	19031
902.141	18897
902.26	18913
902.379	18722
902.498	18715
902.617	18608
902.735	18764
902.854	18783
902.973	18719
903.091	18646
903.21	18403
903.328	18399
903.446	18296
903.565	18247
903.683	18273
903.801	18121
903.919	18171
904.038	18205
904.156	18053
904.274	18076
904.392	17984
904.51	17939
904.627	18087
904.745	17996
904.863	18003
904.981	17779
905.098	17714
905.216	17726
905.334	17710
905.451	17771
905.569	17634
905.686	17623
905.803	17707
905.921	17562
906.038	17611
906.155	17520
906.272	17421
906.389	17349
906.506	17178
906.623	17216
906.74	17307
906.857	17136
906.974	17162
907.091	17391
907.208	17326
907.324	17235
907.441	17162
907.557	16984
907.674	16980
907.79	16889
907.907	16934
908.023	17025
908.139	16900
908.256	16847
908.372	16801
908.488	16774
908.604	16763
908.72	16641
908.836	16725
908.952	16653
909.068	16603
909.184	16820
909.3	16691
909.415	16691
909.531	16668
909.647	16367
909.762	16371
909.878	16360
909.993	16367
910.108	16325
910.224	16299
910.339	16306
910.454	16230
910.57	16131
910.685	16059
910.8	16443
910.915	16360
911.03	16196
911.145	16071
911.259	16036
911.374	15975
911.489	15857
911.604	15873
911.718	15713
911.833	15641
911.947	15679
912.062	15538
912.176	15743
912.291	15846
912.405	15785
912.519	15880
912.633	15812
912.748	15743
912.862	15637
912.976	15504
913.09	15416
913.204	15530
913.318	15557
913.431	15641
913.545	15663
913.659	15614
913.772	15481
913.886	15412
914	15351
914.113	15477
914.226	15408
914.34	15351
914.453	15199
914.566	15370
914.68	15252
914.793	15214
914.906	15116
915.019	14948
915.132	14868
915.245	14830
915.358	15020
915.47	14990
915.583	14941
915.696	14967
915.809	15081
915.921	15051
916.034	14872
916.146	14823
916.259	14701
916.371	15005
916.483	14933
916.595	14701
916.708	14773
916.82	14792
916.932	14804
917.044	14781
917.156	14693
917.268	14560
917.38	14655
917.491	14602
917.603	14590
917.715	14587
917.826	14636
917.938	14579
918.049	14442
918.161	14511
918.272	14655
918.384	14686
918.495	14564
918.606	14438
918.717	14336
918.828	14366
918.939	14499
919.05	14366
919.161	14438
919.272	14225
919.383	14336
919.494	14317
919.604	14571
919.715	14385
919.826	14301
919.936	14309
920.047	14469
920.157	14370
920.267	14503
920.378	14343
920.488	14282
920.598	14465
920.708	14625
920.818	14560
920.928	14461
921.038	14648
921.148	14632
921.258	14263
921.368	14237
921.477	14054
921.587	14088
921.697	13890
921.806	14084
921.916	13967
922.025	13753
922.134	13814
922.244	13734
922.353	13677
922.462	13636
922.571	13525
922.68	13449
922.789	13350
922.898	13354
923.007	13343
923.116	13365
923.224	13289
923.333	13339
923.442	13282
923.55	13209
923.659	13187
923.767	13297
923.876	13187
923.984	13206
924.092	13107
924.201	13091
924.309	13179
924.417	13095
924.525	12989
924.633	13034
924.741	13959
924.849	12856
924.956	12947
925.064	12787
925.172	12749
925.279	12776
925.387	12795
925.494	12821
925.602	12913
925.709	12920
925.816	12677
925.924	12757
926.031	12882
926.138	12684
926.245	12852
926.352	12715
926.459	12772
926.566	12798
926.673	12646
926.779	12559
926.886	12475
926.993	12441
927.099	12372
927.206	12289
927.312	12323
927.419	12388
927.525	12445
927.631	12372
927.737	12292
927.843	12213
927.95	12121
928.056	12175
928.162	12334
928.267	12308
928.373	12947
928.479	12372
928.585	11977
928.69	12228
928.796	12190
928.901	12152
929.007	11882
929.112	11992
929.218	12015
929.323	12019
929.428	11874
929.533	12053
929.638	11836
929.743	12003
929.848	11977
929.953	11912
930.058	11843
930.163	11623
930.267	11699
930.372	11748
930.477	11573
930.581	11756
930.685	11630
930.79	11452
930.894	11604
930.998	11452
931.103	11562
931.207	11220
931.311	11220
931.415	11098
931.519	10908
931.623	10908
