Data from test_V78500241_1587.txt Node
Date: Fri Mar 25 15:52:47 CST 2022
User: usil
Spectrometer: V785-0024
Trigger mode: 0
Integration Time (sec): 4.000000E-1
Scans to average: 1
Nonlinearity correction enabled: false
Boxcar width: 0
Storing dark spectrum: false
XAxis mode: Wavelengths
Number of Pixels in Spectrum: 1024
>>>>>Begin Spectral Data<<<<<
801.071	28101
801.214	28124
801.356	27770
801.499	27778
801.641	27831
801.783	27812
801.926	27808
802.068	27732
802.211	27549
802.353	27564
802.496	27443
802.638	27416
802.78	27401
802.923	27336
803.065	27302
803.208	27233
803.35	27439
803.492	27587
803.635	27701
803.777	27599
803.919	27648
804.061	27876
804.204	27743
804.346	27595
804.488	27507
804.63	27622
804.773	27717
804.915	27736
805.057	27819
805.199	27720
805.341	27823
805.483	27789
805.626	27781
805.768	27793
805.91	27747
806.052	27884
806.194	27614
806.336	28032
806.478	27895
806.62	27835
806.762	27983
806.904	28025
807.046	28219
807.188	28196
807.33	28112
807.472	28284
807.614	28272
807.756	28280
807.898	28082
808.04	28139
808.182	28051
808.324	28059
808.465	28280
808.607	28352
808.749	28401
808.891	28550
809.033	28607
809.174	28478
809.316	28360
809.458	28512
809.6	28382
809.741	28481
809.883	28630
810.025	28729
810.166	28641
810.308	28702
810.45	28687
810.591	28679
810.733	28535
810.875	28440
811.016	28401
811.158	28314
811.299	28394
811.441	28508
811.582	28615
811.724	28569
811.865	28329
812.007	28390
812.148	28394
812.29	28455
812.431	28565
812.573	28630
812.714	28790
812.855	28965
812.997	29064
813.138	29105
813.279	28976
813.421	29014
813.562	28908
813.703	28771
813.845	28611
813.986	28333
814.127	28280
814.268	28131
814.41	28120
814.551	28086
814.692	28169
814.833	28070
814.974	28143
815.115	28226
815.256	28036
815.397	27968
815.539	28143
815.68	27926
815.821	27884
815.962	28029
816.103	27907
816.244	27789
816.385	27728
816.526	27701
816.666	27591
816.807	27393
816.948	27462
817.089	27606
817.23	27393
817.371	27603
817.512	27397
817.653	27488
817.793	27306
817.934	27412
818.075	27481
818.216	27424
818.356	27424
818.497	27435
818.638	27112
818.778	27252
818.919	27192
819.06	27256
819.2	27321
819.341	27458
819.481	27393
819.622	27534
819.762	27781
819.903	27610
820.043	27523
820.184	27595
820.324	27568
820.465	27675
820.605	27583
820.746	27504
820.886	27408
821.026	27447
821.167	27393
821.307	27618
821.447	27606
821.588	27389
821.728	27230
821.868	27085
822.008	27009
822.149	26960
822.289	27036
822.429	26682
822.569	26686
822.709	26689
822.849	26450
822.99	26495
823.13	26419
823.27	26301
823.41	26187
823.55	26126
823.69	26259
823.83	26248
823.97	26214
824.11	26107
824.25	26115
824.389	26084
824.529	26020
824.669	26130
824.809	26233
824.949	26172
825.089	26210
825.228	25875
825.368	25856
825.508	25898
825.648	25932
825.787	25966
825.927	25970
826.067	25928
826.206	25989
826.346	26126
826.485	26020
826.625	25833
826.765	25997
826.904	25947
827.044	25769
827.183	25613
827.323	25757
827.462	25681
827.601	25655
827.741	25715
827.88	25738
828.02	25400
828.159	25811
828.298	25685
828.437	25715
828.577	25449
828.716	25704
828.855	25605
828.994	25407
829.134	25377
829.273	25297
829.412	25293
829.551	25316
829.69	25301
829.829	25392
829.968	25358
830.107	25301
830.246	25403
830.385	25274
830.524	25320
830.663	25072
830.802	25148
830.941	24810
831.08	24821
831.219	25069
831.357	24886
831.496	25244
831.635	25000
831.774	24764
831.913	24692
832.051	24722
832.19	24707
832.329	24798
832.467	24650
832.606	24635
832.744	24452
832.883	24551
833.022	24486
833.16	24646
833.299	24829
833.437	24620
833.576	24700
833.714	24738
833.852	24700
833.991	24604
834.129	24715
834.267	24627
834.406	24673
834.544	24604
834.682	24555
834.821	24707
834.959	24707
835.097	24551
835.235	24623
835.373	24642
835.511	24574
835.65	24494
835.788	24646
835.926	24445
836.064	24384
836.202	24399
836.34	24502
836.478	24608
836.615	24498
836.753	24528
836.891	24582
837.029	24414
837.167	24635
837.305	24338
837.443	24547
837.58	24311
837.718	24334
837.856	24433
837.993	24235
838.131	24262
838.269	24026
838.406	24182
838.544	24068
838.681	24030
838.819	23946
838.956	23870
839.094	23718
839.231	23889
839.369	23977
839.506	24186
839.643	24194
839.781	23805
839.918	23824
840.055	23824
840.193	23832
840.33	23737
840.467	23798
840.604	23794
840.742	23965
840.879	23600
841.016	23805
841.153	23627
841.29	23775
841.427	23627
841.564	23672
841.701	23764
841.838	23737
841.975	23547
842.112	23687
842.249	23589
842.385	23410
842.522	23661
842.659	23516
842.796	23429
842.933	23516
843.069	23501
843.206	23425
843.343	23596
843.479	23455
843.616	23398
843.752	23280
843.889	23239
844.025	23356
844.162	23178
844.298	23280
844.435	23258
844.571	23140
844.708	23258
844.844	23235
844.98	23258
845.117	23368
845.253	23200
845.389	23067
845.525	23044
845.661	23117
845.798	22869
845.934	22995
846.07	22847
846.206	23018
846.342	23121
846.478	22790
846.614	22797
846.75	22641
846.886	22675
847.022	22843
847.158	22767
847.294	22778
847.429	22740
847.565	22687
847.701	22877
847.837	22421
847.972	22344
848.108	22557
848.244	22531
848.379	22443
848.515	22303
848.65	22249
848.786	22268
848.921	22272
849.057	22356
849.192	22318
849.328	22382
849.463	22322
849.598	22337
849.734	22112
849.869	21968
850.004	22044
850.14	22086
850.275	22048
850.41	21854
850.545	21953
850.68	22131
850.815	22128
850.95	21956
851.085	22181
851.22	22124
851.355	22090
851.49	22162
851.625	21998
851.76	22013
851.895	21941
852.03	22101
852.165	21972
852.299	22067
852.434	22063
852.569	22086
852.703	22074
852.838	22177
852.973	22090
853.107	21983
853.242	21998
853.376	21915
853.511	21823
853.645	21846
853.78	22105
853.914	21895
854.048	21789
854.183	21876
854.317	21895
854.451	22063
854.585	21876
854.72	21800
854.854	21975
854.988	21869
855.122	21808
855.256	21781
855.39	21720
855.524	21892
855.658	21930
855.792	21895
855.926	21762
856.06	21975
856.194	21979
856.327	21850
856.461	21827
856.595	21854
856.729	21880
856.862	21972
856.996	21778
857.13	22002
857.263	21949
857.397	21964
857.53	21892
857.664	21911
857.797	21873
857.931	22029
858.064	21865
858.197	21922
858.331	21907
858.464	21698
858.597	21804
858.731	21854
858.864	21842
858.997	21884
859.13	21823
859.263	21899
859.396	21964
859.529	21808
859.662	21800
859.795	21823
859.928	21797
860.061	22139
860.194	22173
860.327	21926
860.46	21915
860.592	21972
860.725	22006
860.858	21991
860.99	21819
861.123	21812
861.256	21774
861.388	21831
861.521	22519
861.653	21774
861.786	21637
861.918	21755
862.05	21671
862.183	21793
862.315	21907
862.447	21854
862.58	21838
862.712	21766
862.844	21591
862.976	21717
863.108	21591
863.24	22078
863.372	21583
863.504	21644
863.636	21542
863.768	21713
863.9	21587
864.032	21439
864.164	21507
864.296	21564
864.428	21526
864.559	21610
864.691	21633
864.823	21492
864.954	21599
865.086	21481
865.217	21534
865.349	21397
865.48	21481
865.612	21424
865.743	21633
865.875	21519
866.006	21439
866.137	21511
866.269	21424
866.4	21469
866.531	21382
866.662	21408
866.793	21329
866.924	21401
867.055	21412
867.186	21393
867.317	21367
867.448	21260
867.579	21294
867.71	21378
867.841	21344
867.972	21344
868.103	21378
868.233	21485
868.364	21397
868.495	21500
868.625	21656
868.756	21675
868.886	21485
869.017	21637
869.147	21701
869.278	21785
869.408	21739
869.539	21675
869.669	21717
869.799	21652
869.929	21755
870.06	21694
870.19	22105
870.32	22002
870.45	22067
870.58	22112
870.71	22188
870.84	22169
870.97	22093
871.1	22070
871.23	22261
871.36	22211
871.489	22063
871.619	22242
871.749	22131
871.879	22280
872.008	22253
872.138	22207
872.267	22230
872.397	22196
872.526	22036
872.656	21953
872.785	22006
872.915	22219
873.044	22276
873.173	22314
873.303	22276
873.432	22280
873.561	22344
873.69	22268
873.819	22303
873.948	22303
874.077	22303
874.206	22215
874.335	22337
874.464	22386
874.593	22485
874.722	22542
874.851	22531
874.979	22428
875.108	22599
875.237	22413
875.365	22512
875.494	22535
875.623	22561
875.751	22424
875.88	22512
876.008	22580
876.136	22557
876.265	22927
876.393	22930
876.521	22896
876.65	22904
876.778	22911
876.906	22812
877.034	22961
877.162	22873
877.29	22752
877.418	22816
877.546	22877
877.674	22786
877.802	22847
877.93	22843
878.058	22725
878.185	22622
878.313	22763
878.441	22793
878.568	22637
878.696	22752
878.824	22793
878.951	22892
879.079	22972
879.206	23212
879.333	22885
879.461	22892
879.588	22858
879.715	22919
879.842	23098
879.97	22892
880.097	22710
880.224	22729
880.351	22748
880.478	22557
880.605	22660
880.732	22569
880.859	22987
880.986	22592
881.112	22603
881.239	22573
881.366	22322
881.493	22352
881.619	22131
881.746	22287
881.872	22211
881.999	22093
882.125	22253
882.252	22211
882.378	22268
882.505	22333
882.631	22131
882.757	21911
882.883	22002
883.01	21926
883.136	21869
883.262	21903
883.388	21713
883.514	21892
883.64	21899
883.766	21827
883.892	21682
884.018	21648
884.143	21861
884.269	21812
884.395	21595
884.52	21412
884.646	21561
884.772	21485
884.897	21454
885.023	21500
885.148	21660
885.274	21595
885.399	21599
885.524	21561
885.65	21583
885.775	21637
885.9	21466
886.025	21561
886.15	21644
886.275	21458
886.4	21393
886.525	21439
886.65	21511
886.775	21466
886.9	21622
887.025	21835
887.149	21572
887.274	21306
887.399	21348
887.523	21264
887.648	21207
887.773	21226
887.897	21317
888.021	21344
888.146	21310
888.27	21298
888.395	21443
888.519	21355
888.643	21203
888.767	21256
888.891	21161
889.015	21119
889.139	21203
889.263	21131
889.387	21237
889.511	21245
889.635	21165
889.759	21150
889.883	21077
890.006	21165
890.13	21142
890.254	21066
890.377	21119
890.501	20914
890.624	20777
890.748	20986
890.871	20800
890.995	20522
891.118	20511
891.241	20651
891.364	20735
891.488	20708
891.611	20781
891.734	20598
891.857	20655
891.98	20716
892.103	20697
892.226	20530
892.349	20724
892.471	20522
892.594	20560
892.717	20602
892.839	20602
892.962	20518
893.085	20602
893.207	20598
893.33	20393
893.452	20434
893.575	20564
893.697	20564
893.819	20590
893.941	20663
894.064	20609
894.186	20564
894.308	20564
894.43	20651
894.552	20731
894.674	20655
894.796	20476
894.918	20651
895.04	20469
895.161	20636
895.283	20571
895.405	20488
895.526	20556
895.648	20537
895.769	20564
895.891	20522
896.012	20575
896.134	20644
896.255	20507
896.376	20526
896.498	20480
896.619	20625
896.74	20549
896.861	20621
896.982	20792
897.103	20998
897.224	20796
897.345	20777
897.466	20678
897.587	20796
897.708	20887
897.828	20773
897.949	20640
898.07	20484
898.19	20762
898.311	20781
898.431	20663
898.552	20697
898.672	20815
898.792	20785
898.913	20712
899.033	20701
899.153	20499
899.273	20381
899.393	20450
899.513	20484
899.633	20423
899.753	20476
899.873	20454
899.993	20518
900.113	20358
900.232	20602
900.352	20476
900.472	20396
900.591	20252
900.711	20271
900.83	20237
900.95	20415
901.069	20271
901.189	20199
901.308	19970
901.427	19814
901.546	19913
901.665	19906
901.784	19909
901.904	19696
902.023	19632
902.141	19457
902.26	19270
902.379	19499
902.498	19335
902.617	19369
902.735	19392
902.854	19400
902.973	19274
903.091	19057
903.21	19004
903.328	18920
903.446	19015
903.565	18783
903.683	18886
903.801	18779
903.919	18787
904.038	18658
904.156	18620
904.274	18570
904.392	18585
904.51	18536
904.627	18612
904.745	18555
904.863	18582
904.981	18380
905.098	18258
905.216	18171
905.334	18308
905.451	18289
905.569	18232
905.686	18273
905.803	18251
905.921	18041
906.038	18121
906.155	18079
906.272	17927
906.389	18060
906.506	17832
906.623	17805
906.74	17714
906.857	17668
906.974	17707
907.091	17859
907.208	17790
907.324	17760
907.441	17771
907.557	17516
907.674	17505
907.79	17467
907.907	17391
908.023	17562
908.139	17395
908.256	17455
908.372	17455
908.488	17334
908.604	17200
908.72	17151
908.836	17204
908.952	17155
909.068	17269
909.184	17296
909.3	17220
909.415	17311
909.531	17159
909.647	16896
909.762	16953
909.878	16843
909.993	17022
910.108	16927
910.224	16850
910.339	16987
910.454	16733
910.57	16771
910.685	16626
910.8	16934
910.915	16763
911.03	16672
911.145	16474
911.259	16523
911.374	16580
911.489	16516
911.604	16386
911.718	16226
911.833	16303
911.947	16158
912.062	16097
912.176	16257
912.291	16234
912.405	16261
912.519	16382
912.633	16497
912.748	16337
912.862	16265
912.976	16177
913.09	15941
913.204	15983
913.318	16048
913.431	16177
913.545	16158
913.659	16147
913.772	16010
913.886	15892
914	15888
914.113	15964
914.226	16048
914.34	15873
914.453	15778
914.566	15945
914.68	15720
914.793	15644
914.906	15538
915.019	15504
915.132	15363
915.245	15431
915.358	15485
915.47	15504
915.583	15447
915.696	15511
915.809	15564
915.921	15652
916.034	15401
916.146	15359
916.259	15355
916.371	15454
916.483	15435
916.595	15211
916.708	15275
916.82	15336
916.932	15214
917.044	15317
917.156	15287
917.268	15058
917.38	15233
917.491	15032
917.603	15093
917.715	15169
917.826	15142
917.938	15020
918.049	14948
918.161	15039
918.272	15165
918.384	15165
918.495	15017
918.606	14876
918.717	14796
918.828	14872
918.939	14819
919.05	14727
919.161	14807
919.272	14629
919.383	14648
919.494	14876
919.604	14941
919.715	14891
919.826	14701
919.936	14800
920.047	14823
920.157	14838
920.267	14891
920.378	14811
920.488	14804
920.598	14960
920.708	15165
920.818	14899
920.928	14868
921.038	15039
921.148	15070
921.258	14834
921.368	14621
921.477	14511
921.587	14499
921.697	14450
921.806	14541
921.916	14377
922.025	14301
922.134	14172
922.244	14191
922.353	14187
922.462	14046
922.571	14092
922.68	13822
922.789	13807
922.898	13925
923.007	13772
923.116	13875
923.224	13814
923.333	13791
923.442	13742
923.55	13632
923.659	13696
923.767	13677
923.876	13666
923.984	13689
924.092	13491
924.201	13567
924.309	13571
924.417	13624
924.525	13499
924.633	13586
924.741	14393
924.849	13320
924.956	13476
925.064	13202
925.172	13251
925.279	13190
925.387	13304
925.494	13217
925.602	13304
925.709	13175
925.816	13061
925.924	13137
926.031	13297
926.138	13263
926.245	13183
926.352	13107
926.459	13194
926.566	13160
926.673	13126
926.779	12894
926.886	12985
926.993	12833
927.099	12741
927.206	12791
927.312	12730
927.419	12772
927.525	12798
927.631	12772
927.737	12665
927.843	12639
927.95	12498
928.056	12623
928.162	12574
928.267	12642
928.373	13251
928.479	12707
928.585	12441
928.69	12528
928.796	12513
928.901	12448
929.007	12281
929.112	12544
929.218	12414
929.323	12346
929.428	12330
929.533	12407
929.638	12235
929.743	12194
929.848	12262
929.953	12277
930.058	12190
930.163	11961
930.267	12038
930.372	12102
930.477	11950
930.581	12197
930.685	12041
930.79	11885
930.894	11946
930.998	11920
931.103	11988
931.207	11630
931.311	11543
931.415	11482
931.519	11227
931.623	11170
