Data from test_V78500241_1718.txt Node
Date: Fri Mar 25 15:53:42 CST 2022
User: usil
Spectrometer: V785-0024
Trigger mode: 0
Integration Time (sec): 4.000000E-1
Scans to average: 1
Nonlinearity correction enabled: false
Boxcar width: 0
Storing dark spectrum: false
XAxis mode: Wavelengths
Number of Pixels in Spectrum: 1024
>>>>>Begin Spectral Data<<<<<
801.071	28394
801.214	28276
801.356	28097
801.499	27968
801.641	27972
801.783	27949
801.926	27983
802.068	27842
802.211	27854
802.353	27789
802.496	27500
802.638	27595
802.78	27622
802.923	27530
803.065	27545
803.208	27447
803.35	27561
803.492	27618
803.635	27785
803.777	27652
803.919	27865
804.061	28029
804.204	27827
804.346	27831
804.488	27713
804.63	27717
804.773	27599
804.915	27873
805.057	27873
805.199	27781
805.341	27945
805.483	27949
805.626	27869
805.768	27724
805.91	27816
806.052	28006
806.194	27747
806.336	28147
806.478	28002
806.62	28025
806.762	28143
806.904	28200
807.046	28280
807.188	28386
807.33	28348
807.472	28447
807.614	28322
807.756	28360
807.898	28310
808.04	28158
808.182	28169
808.324	28036
808.465	28169
808.607	28523
808.749	28622
808.891	28626
809.033	28599
809.174	28664
809.316	28672
809.458	28569
809.6	28565
809.741	28660
809.883	28748
810.025	28816
810.166	28915
810.308	28923
810.45	28748
810.591	28778
810.733	28577
810.875	28664
811.016	28508
811.158	28363
811.299	28744
811.441	28805
811.582	28752
811.724	28656
811.865	28637
812.007	28489
812.148	28622
812.29	28656
812.431	28691
812.573	28847
812.714	29044
812.855	29151
812.997	29136
813.138	29391
813.279	29143
813.421	29033
813.562	29067
813.703	28968
813.845	28729
813.986	28466
814.127	28428
814.268	28325
814.41	28303
814.551	28443
814.692	28230
814.833	28272
814.974	28386
815.115	28249
815.256	28219
815.397	28143
815.539	28280
815.68	28177
815.821	27960
815.962	28124
816.103	28013
816.244	27838
816.385	27964
816.526	27869
816.666	27652
816.807	27557
816.948	27629
817.089	27728
817.23	27618
817.371	27458
817.512	27633
817.653	27561
817.793	27412
817.934	27614
818.075	27530
818.216	27568
818.356	27511
818.497	27485
818.638	27329
818.778	27222
818.919	27378
819.06	27405
819.2	27526
819.341	27583
819.481	27534
819.622	27812
819.762	27991
819.903	27682
820.043	27755
820.184	27751
820.324	27656
820.465	27743
820.605	27736
820.746	27663
820.886	27671
821.026	27625
821.167	27751
821.307	27759
821.447	27553
821.588	27450
821.728	27431
821.868	27302
822.008	27131
822.149	27169
822.289	27066
822.429	26823
822.569	26804
822.709	26708
822.849	26575
822.99	26579
823.13	26442
823.27	26423
823.41	26381
823.55	26298
823.69	26408
823.83	26499
823.97	26221
824.11	26267
824.25	26176
824.389	26126
824.529	26240
824.669	26157
824.809	26244
824.949	26237
825.089	26469
825.228	26252
825.368	26012
825.508	25955
825.648	26001
825.787	26142
825.927	26176
826.067	25997
826.206	26024
826.346	26054
826.485	26157
826.625	26054
826.765	26202
826.904	26119
827.044	25966
827.183	25830
827.323	25826
827.462	25811
827.601	25932
827.741	25818
827.88	25803
828.02	25662
828.159	25723
828.298	25712
828.437	25769
828.577	25674
828.716	25875
828.855	25567
828.994	25601
829.134	25472
829.273	25559
829.412	25339
829.551	25407
829.69	25518
829.829	25518
829.968	25635
830.107	25605
830.246	25510
830.385	25510
830.524	25438
830.663	25244
830.802	25236
830.941	24973
831.08	25133
831.219	25141
831.357	25042
831.496	25221
831.635	25122
831.774	25053
831.913	24909
832.051	24859
832.19	24745
832.329	24859
832.467	24897
832.606	24764
832.744	24760
832.883	24779
833.022	24623
833.16	24730
833.299	24745
833.437	24806
833.576	24772
833.714	24681
833.852	24806
833.991	24916
834.129	24814
834.267	24844
834.406	24890
834.544	25012
834.682	24817
834.821	24795
834.959	24928
835.097	24806
835.235	24837
835.373	24871
835.511	24802
835.65	24601
835.788	24730
835.926	24601
836.064	24483
836.202	24528
836.34	24585
836.478	24745
836.615	24639
836.753	24604
836.891	24806
837.029	24612
837.167	24544
837.305	24559
837.443	24544
837.58	24414
837.718	24536
837.856	24589
837.993	24380
838.131	24460
838.269	24330
838.406	24448
838.544	24330
838.681	24144
838.819	24038
838.956	23942
839.094	23916
839.231	24064
839.369	24171
839.506	24311
839.643	24197
839.781	23927
839.918	23912
840.055	23908
840.193	23973
840.33	23748
840.467	23824
840.604	23836
840.742	24167
840.879	23676
841.016	23718
841.153	23630
841.29	23927
841.427	23752
841.564	23847
841.701	23802
841.838	23851
841.975	23684
842.112	23707
842.249	23642
842.385	23589
842.522	23733
842.659	23634
842.796	23627
842.933	23573
843.069	23497
843.206	23433
843.343	23573
843.479	23558
843.616	23581
843.752	23387
843.889	23383
844.025	23547
844.162	23417
844.298	23497
844.435	23406
844.571	23239
844.708	23372
844.844	23524
844.98	23497
845.117	23448
845.253	23273
845.389	23212
845.525	23258
845.661	23322
845.798	23090
845.934	23220
846.07	23048
846.206	23136
846.342	23067
846.478	23189
846.614	22949
846.75	22816
846.886	22858
847.022	22820
847.158	22698
847.294	22733
847.429	22839
847.565	22805
847.701	23071
847.837	22504
847.972	22542
848.108	22656
848.244	22569
848.379	22314
848.515	22432
848.65	22322
848.786	22485
848.921	22367
849.057	22535
849.192	22508
849.328	22497
849.463	22360
849.598	22413
849.734	22306
849.869	22200
850.004	22211
850.14	22173
850.275	22166
850.41	22002
850.545	22158
850.68	22120
850.815	22253
850.95	22128
851.085	22481
851.22	22371
851.355	22154
851.49	22207
851.625	22192
851.76	22143
851.895	22048
852.03	22181
852.165	22105
852.299	22215
852.434	22257
852.569	22188
852.703	22097
852.838	22299
852.973	22394
853.107	22299
853.242	22101
853.376	22097
853.511	21876
853.645	21964
853.78	22166
853.914	21998
854.048	21888
854.183	22067
854.317	21945
854.451	22211
854.585	22105
854.72	22048
854.854	22036
854.988	21854
855.122	22036
855.256	21884
855.39	21964
855.524	22017
855.658	21987
855.792	21979
855.926	22109
856.06	22147
856.194	22116
856.327	22006
856.461	21964
856.595	21785
856.729	22044
856.862	22040
856.996	21975
857.13	22048
857.263	22131
857.397	22143
857.53	21983
857.664	21979
857.797	22166
857.931	22181
858.064	22021
858.197	21994
858.331	21991
858.464	21899
858.597	21941
858.731	21998
858.864	21903
858.997	21972
859.13	22010
859.263	21991
859.396	22074
859.529	22051
859.662	21956
859.795	21960
859.928	22147
860.061	22059
860.194	22188
860.327	21945
860.46	22017
860.592	22265
860.725	22116
860.858	22070
860.99	21972
861.123	21884
861.256	21930
861.388	22074
861.521	22577
861.653	21907
861.786	21701
861.918	21781
862.05	21922
862.183	21911
862.315	21979
862.447	22059
862.58	21968
862.712	21667
862.844	21637
862.976	21759
863.108	21831
863.24	22105
863.372	21656
863.504	21644
863.636	21682
863.768	21671
863.9	21705
864.032	21599
864.164	21663
864.296	21876
864.428	21842
864.559	21838
864.691	21709
864.823	21804
864.954	21770
865.086	21747
865.217	21637
865.349	21519
865.48	21663
865.612	21675
865.743	21800
865.875	21671
866.006	21580
866.137	21641
866.269	21583
866.4	21545
866.531	21462
866.662	21500
866.793	21561
866.924	21511
867.055	21568
867.186	21549
867.317	21469
867.448	21473
867.579	21530
867.71	21412
867.841	21439
867.972	21519
868.103	21542
868.233	21614
868.364	21515
868.495	21622
868.625	21694
868.756	21930
868.886	21732
869.017	21778
869.147	21903
869.278	21827
869.408	21857
869.539	21720
869.669	21899
869.799	21766
869.929	21968
870.06	21846
870.19	22044
870.32	22105
870.45	22101
870.58	22124
870.71	22215
870.84	22314
870.97	22139
871.1	22204
871.23	22303
871.36	22322
871.489	22249
871.619	22272
871.749	22409
871.879	22440
872.008	22474
872.138	22310
872.267	22337
872.397	22306
872.526	22093
872.656	22242
872.785	22215
872.915	22367
873.044	22504
873.173	22508
873.303	22348
873.432	22402
873.561	22474
873.69	22500
873.819	22333
873.948	22428
874.077	22238
874.206	22459
874.335	22322
874.464	22554
874.593	22611
874.722	22554
874.851	22592
874.979	22713
875.108	22660
875.237	22641
875.365	22466
875.494	22538
875.623	22706
875.751	22481
875.88	22569
876.008	22752
876.136	22763
876.265	22995
876.393	23060
876.521	23223
876.65	23094
876.778	23132
876.906	23041
877.034	22976
877.162	22946
877.29	22995
877.418	22946
877.546	22961
877.674	23052
877.802	22904
877.93	22999
878.058	22873
878.185	22778
878.313	22961
878.441	23033
878.568	22733
878.696	22915
878.824	22892
878.951	23071
879.079	23235
879.206	23094
879.333	23220
879.461	23022
879.588	23136
879.715	23094
879.842	23288
879.97	23064
880.097	22672
880.224	22793
880.351	22816
880.478	22915
880.605	22820
880.732	22748
880.859	23060
880.986	22755
881.112	22752
881.239	22706
881.366	22554
881.493	22386
881.619	22333
881.746	22398
881.872	22306
881.999	22329
882.125	22215
882.252	22409
882.378	22299
882.505	22413
882.631	22143
882.757	22074
882.883	21979
883.01	22139
883.136	22116
883.262	21979
883.388	21857
883.514	21899
883.64	21949
883.766	22017
883.892	21827
884.018	21842
884.143	21934
884.269	22044
884.395	21671
884.52	21553
884.646	21724
884.772	21606
884.897	21610
885.023	21694
885.148	21701
885.274	21800
885.399	21724
885.524	21648
885.65	21770
885.775	21679
885.9	21557
886.025	21618
886.15	21770
886.275	21633
886.4	21515
886.525	21595
886.65	21572
886.775	21553
886.9	21861
887.025	21781
887.149	21629
887.274	21507
887.399	21389
887.523	21378
887.648	21367
887.773	21393
887.897	21443
888.021	21496
888.146	21435
888.27	21500
888.395	21519
888.519	21431
888.643	21416
888.767	21416
888.891	21310
889.015	21287
889.139	21230
889.263	21176
889.387	21310
889.511	21401
889.635	21405
889.759	21207
889.883	21230
890.006	21154
890.13	21241
890.254	21017
890.377	21104
890.501	20982
890.624	20868
890.748	21020
890.871	20857
890.995	20777
891.118	20686
891.241	20834
891.364	20864
891.488	20876
891.611	20838
891.734	20826
891.857	20819
891.98	20823
892.103	20773
892.226	20739
892.349	20689
892.471	20674
892.594	20716
892.717	20648
892.839	20651
892.962	20644
893.085	20670
893.207	20762
893.33	20598
893.452	20598
893.575	20750
893.697	20769
893.819	20788
893.941	20937
894.064	20697
894.186	20697
894.308	20682
894.43	20762
894.552	20883
894.674	20712
894.796	20629
894.918	20636
895.04	20606
895.161	20708
895.283	20667
895.405	20621
895.526	20731
895.648	20693
895.769	20781
895.891	20625
896.012	20765
896.134	20788
896.255	20697
896.376	20655
896.498	20659
896.619	20739
896.74	20663
896.861	20746
896.982	20971
897.103	21093
897.224	20956
897.345	20914
897.466	20861
897.587	20849
897.708	20967
897.828	20845
897.949	20739
898.07	20670
898.19	20857
898.311	21009
898.431	20758
898.552	20948
898.672	20948
898.792	20956
898.913	20868
899.033	20712
899.153	20693
899.273	20530
899.393	20609
899.513	20644
899.633	20545
899.753	20571
899.873	20609
899.993	20640
900.113	20522
900.232	20564
900.352	20488
900.472	20423
900.591	20313
900.711	20427
900.83	20385
900.95	20480
901.069	20366
901.189	20233
901.308	20084
901.427	20005
901.546	19917
901.665	19955
901.784	19955
901.904	19799
902.023	19750
902.141	19620
902.26	19521
902.379	19601
902.498	19476
902.617	19377
902.735	19544
902.854	19457
902.973	19476
903.091	19266
903.21	19316
903.328	19141
903.446	19072
903.565	18962
903.683	18958
903.801	18859
903.919	18989
904.038	18894
904.156	18764
904.274	18825
904.392	18635
904.51	18604
904.627	18612
904.745	18779
904.863	18753
904.981	18494
905.098	18327
905.216	18235
905.334	18369
905.451	18281
905.569	18327
905.686	18452
905.803	18292
905.921	18125
906.038	18205
906.155	18049
906.272	18053
906.389	17969
906.506	17927
906.623	17885
906.74	17779
906.857	17767
906.974	17847
907.091	17821
907.208	18003
907.324	17828
907.441	17767
907.557	17600
907.674	17661
907.79	17433
907.907	17657
908.023	17608
908.139	17551
908.256	17562
908.372	17551
908.488	17345
908.604	17368
908.72	17299
908.836	17334
908.952	17292
909.068	17341
909.184	17284
909.3	17341
909.415	17318
909.531	17212
909.647	17022
909.762	17086
909.878	17060
909.993	17025
910.108	16957
910.224	16953
910.339	17033
910.454	16999
910.57	16839
910.685	16828
910.8	17132
910.915	16953
911.03	16858
911.145	16634
911.259	16618
911.374	16622
911.489	16584
911.604	16443
911.718	16375
911.833	16329
911.947	16242
912.062	16169
912.176	16329
912.291	16299
912.405	16325
912.519	16535
912.633	16535
912.748	16265
912.862	16192
912.976	16158
913.09	16120
913.204	16150
913.318	16150
913.431	16204
913.545	16223
913.659	16211
913.772	16128
913.886	16010
914	15907
914.113	16097
914.226	16093
914.34	15937
914.453	15812
914.566	16040
914.68	15865
914.793	15907
914.906	15713
915.019	15515
915.132	15530
915.245	15511
915.358	15584
915.47	15526
915.583	15561
915.696	15587
915.809	15709
915.921	15671
916.034	15450
916.146	15424
916.259	15412
916.371	15504
916.483	15496
916.595	15389
916.708	15401
916.82	15306
916.932	15298
917.044	15344
917.156	15173
917.268	15207
917.38	15264
917.491	15165
917.603	15233
917.715	15249
917.826	15211
917.938	15112
918.049	15093
918.161	15066
918.272	15184
918.384	15180
918.495	15161
918.606	14998
918.717	14918
918.828	14921
918.939	14979
919.05	14800
919.161	14895
919.272	14781
919.383	14777
919.494	15028
919.604	15070
919.715	14921
919.826	14796
919.936	14868
920.047	14918
920.157	14834
920.267	15131
920.378	14937
920.488	14830
920.598	15024
920.708	15180
920.818	15032
920.928	15009
921.038	15138
921.148	15116
921.258	14804
921.368	14743
921.477	14720
921.587	14632
921.697	14408
921.806	14610
921.916	14530
922.025	14256
922.134	14248
922.244	14195
922.353	14271
922.462	14130
922.571	14134
922.68	13932
922.789	13982
922.898	13913
923.007	13826
923.116	13997
923.224	13871
923.333	13814
923.442	13776
923.55	13738
923.659	13814
923.767	13723
923.876	13632
923.984	13704
924.092	13658
924.201	13613
924.309	13677
924.417	13575
924.525	13453
924.633	13628
924.741	14313
924.849	13339
924.956	13464
925.064	13377
925.172	13293
925.279	13339
925.387	13270
925.494	13270
925.602	13373
925.709	13293
925.816	13168
925.924	13244
926.031	13320
926.138	13251
926.245	13217
926.352	13160
926.459	13198
926.566	13308
926.673	13202
926.779	12954
926.886	13095
926.993	12859
927.099	12837
927.206	12856
927.312	12791
927.419	12859
927.525	12787
927.631	12840
927.737	12673
927.843	12688
927.95	12566
928.056	12673
928.162	12642
928.267	12688
928.373	13240
928.479	12719
928.585	12486
928.69	12601
928.796	12688
928.901	12467
929.007	12369
929.112	12441
929.218	12414
929.323	12460
929.428	12327
929.533	12498
929.638	12251
929.743	12300
929.848	12372
929.953	12361
930.058	12159
930.163	12106
930.267	12057
930.372	12216
930.477	11969
930.581	12232
930.685	12095
930.79	11866
930.894	11961
930.998	11923
931.103	12102
931.207	11589
931.311	11562
931.415	11501
931.519	11364
931.623	11326
