Data from test_V78500241_1214.txt Node
Date: Fri Mar 25 15:50:12 CST 2022
User: usil
Spectrometer: V785-0024
Trigger mode: 0
Integration Time (sec): 4.000000E-1
Scans to average: 1
Nonlinearity correction enabled: false
Boxcar width: 0
Storing dark spectrum: false
XAxis mode: Wavelengths
Number of Pixels in Spectrum: 1024
>>>>>Begin Spectral Data<<<<<
801.071	28729
801.214	28626
801.356	28466
801.499	28401
801.641	28344
801.783	28348
801.926	28356
802.068	28280
802.211	28261
802.353	28303
802.496	28006
802.638	27895
802.78	28147
802.923	27899
803.065	27918
803.208	27895
803.35	27850
803.492	28192
803.635	28147
803.777	28063
803.919	28192
804.061	28622
804.204	28265
804.346	28246
804.488	28188
804.63	28173
804.773	28082
804.915	28322
805.057	28322
805.199	28249
805.341	28352
805.483	28299
805.626	28481
805.768	28382
805.91	28432
806.052	28310
806.194	28310
806.336	28649
806.478	28478
806.62	28382
806.762	28668
806.904	28717
807.046	28934
807.188	28835
807.33	28740
807.472	28972
807.614	28767
807.756	28900
807.898	28771
808.04	28698
808.182	28664
808.324	28675
808.465	28790
808.607	28919
808.749	29178
808.891	29143
809.033	29315
809.174	29197
809.316	29094
809.458	29170
809.6	29212
809.741	29269
809.883	29258
810.025	29417
810.166	29467
810.308	29421
810.45	29315
810.591	29425
810.733	29258
810.875	29185
811.016	29075
811.158	29010
811.299	29204
811.441	29322
811.582	29307
811.724	29200
811.865	29250
812.007	29117
812.148	29105
812.29	29223
812.431	29178
812.573	29414
812.714	29592
812.855	29649
812.997	29703
813.138	29885
813.279	29859
813.421	29718
813.562	29661
813.703	29368
813.845	29406
813.986	29113
814.127	29052
814.268	29052
814.41	28835
814.551	28706
814.692	28946
814.833	28828
814.974	28824
815.115	28771
815.256	28755
815.397	28706
815.539	28786
815.68	28660
815.821	28599
815.962	28801
816.103	28508
816.244	28577
816.385	28344
816.526	28462
816.666	28261
816.807	28063
816.948	28158
817.089	28200
817.23	28128
817.371	28131
817.512	28219
817.653	28169
817.793	28120
817.934	28166
818.075	28226
818.216	28131
818.356	28109
818.497	28116
818.638	27880
818.778	27884
818.919	27888
819.06	27987
819.2	28063
819.341	28291
819.481	28086
819.622	28261
819.762	28527
819.903	28500
820.043	28413
820.184	28276
820.324	28299
820.465	28428
820.605	28299
820.746	28249
820.886	28101
821.026	28223
821.167	28128
821.307	28238
821.447	28147
821.588	28169
821.728	27888
821.868	27994
822.008	27751
822.149	27732
822.289	27724
822.429	27424
822.569	27302
822.709	27306
822.849	27161
822.99	27180
823.13	27382
823.27	27184
823.41	26986
823.55	26910
823.69	27036
823.83	26933
823.97	27055
824.11	26807
824.25	26807
824.389	26883
824.529	26853
824.669	26838
824.809	26872
824.949	26842
825.089	26975
825.228	26895
825.368	26788
825.508	26720
825.648	26754
825.787	26720
825.927	26640
826.067	26609
826.206	26609
826.346	26777
826.485	26686
826.625	26727
826.765	26902
826.904	26613
827.044	26355
827.183	26313
827.323	26339
827.462	26465
827.601	26275
827.741	26370
827.88	26423
828.02	26351
828.159	26389
828.298	26355
828.437	26412
828.577	26362
828.716	26423
828.855	26271
828.994	26043
829.134	26035
829.273	26119
829.412	26092
829.551	26005
829.69	26107
829.829	26237
829.968	26149
830.107	26119
830.246	26043
830.385	26043
830.524	26012
830.663	25928
830.802	25746
830.941	25670
831.08	25666
831.219	25715
831.357	25890
831.496	26062
831.635	25643
831.774	25655
831.913	25525
832.051	25696
832.19	25449
832.329	25457
832.467	25358
832.606	25247
832.744	25312
832.883	25312
833.022	25350
833.16	25377
833.299	25518
833.437	25388
833.576	25419
833.714	25377
833.852	25468
833.991	25354
834.129	25438
834.267	25438
834.406	25483
834.544	25518
834.682	25422
834.821	25419
834.959	25609
835.097	25228
835.235	25525
835.373	25263
835.511	25377
835.65	25251
835.788	25308
835.926	25232
836.064	25015
836.202	25190
836.34	25126
836.478	25415
836.615	25270
836.753	25179
836.891	25350
837.029	25217
837.167	25126
837.305	25084
837.443	25069
837.58	25103
837.718	25088
837.856	25171
837.993	25000
838.131	25114
838.269	24958
838.406	25027
838.544	24875
838.681	24802
838.819	24734
838.956	24566
839.094	24509
839.231	24623
839.369	24776
839.506	24958
839.643	24764
839.781	24563
839.918	24456
840.055	24456
840.193	24403
840.33	24372
840.467	24582
840.604	24604
840.742	24616
840.879	24224
841.016	24308
841.153	24479
841.29	24601
841.427	24361
841.564	24418
841.701	24330
841.838	24395
841.975	24391
842.112	24380
842.249	24330
842.385	24338
842.522	24483
842.659	24254
842.796	24209
842.933	24270
843.069	24102
843.206	24098
843.343	24262
843.479	24209
843.616	24209
843.752	23961
843.889	24057
844.025	24106
844.162	24102
844.298	24091
844.435	23939
844.571	23908
844.708	23980
844.844	24338
844.98	23992
845.117	24057
845.253	23961
845.389	23870
845.525	23843
845.661	23874
845.798	23764
845.934	23840
846.07	23676
846.206	23771
846.342	23840
846.478	23604
846.614	23474
846.75	23539
846.886	23376
847.022	23558
847.158	23425
847.294	23398
847.429	23528
847.565	23414
847.701	23653
847.837	23220
847.972	23216
848.108	23356
848.244	23242
848.379	23113
848.515	23044
848.65	22965
848.786	23014
848.921	23041
849.057	23212
849.192	23052
849.328	23022
849.463	23018
849.598	22854
849.734	22774
849.869	22877
850.004	22843
850.14	22809
850.275	22862
850.41	22748
850.545	22717
850.68	22679
850.815	22801
850.95	22755
851.085	22873
851.22	22854
851.355	22801
851.49	22713
851.625	22596
851.76	22809
851.895	22763
852.03	22759
852.165	22847
852.299	22877
852.434	22858
852.569	22721
852.703	22771
852.838	22816
852.973	22869
853.107	22866
853.242	22797
853.376	22538
853.511	22523
853.645	22611
853.78	22672
853.914	22542
854.048	22554
854.183	22519
854.317	22622
854.451	22793
854.585	22721
854.72	22519
854.854	22603
854.988	22538
855.122	22634
855.256	22531
855.39	22481
855.524	22630
855.658	22660
855.792	22523
855.926	22497
856.06	22508
856.194	22683
856.327	22637
856.461	22569
856.595	22577
856.729	22557
856.862	22683
856.996	22535
857.13	22683
857.263	22584
857.397	22645
857.53	22561
857.664	22607
857.797	22630
857.931	22679
858.064	22542
858.197	22793
858.331	22634
858.464	22474
858.597	22367
858.731	22664
858.864	22516
858.997	22443
859.13	22668
859.263	22580
859.396	22599
859.529	22698
859.662	22535
859.795	22557
859.928	22687
860.061	22812
860.194	22759
860.327	22618
860.46	22645
860.592	22721
860.725	22816
860.858	22683
860.99	22580
861.123	22462
861.256	22596
861.388	22588
861.521	23322
861.653	22421
861.786	22417
861.918	22402
862.05	22470
862.183	22542
862.315	22603
862.447	22577
862.58	22500
862.712	22276
862.844	22272
862.976	22333
863.108	22276
863.24	22622
863.372	22192
863.504	22215
863.636	22135
863.768	22291
863.9	22306
864.032	22265
864.164	22238
864.296	22306
864.428	22318
864.559	22341
864.691	22329
864.823	22341
864.954	22211
865.086	22261
865.217	22223
865.349	22150
865.48	22257
865.612	22238
865.743	22238
865.875	22185
866.006	22025
866.137	22120
866.269	22192
866.4	22112
866.531	22105
866.662	21998
866.793	22067
866.924	22044
867.055	22196
867.186	22139
867.317	22086
867.448	21915
867.579	22006
867.71	21934
867.841	22032
867.972	22074
868.103	22055
868.233	22257
868.364	22040
868.495	22166
868.625	22261
868.756	22436
868.886	22322
869.017	22219
869.147	22455
869.278	22466
869.408	22413
869.539	22314
869.669	22341
869.799	22447
869.929	22409
870.06	22512
870.19	22546
870.32	22607
870.45	22717
870.58	22767
870.71	22824
870.84	22801
870.97	22656
871.1	22634
871.23	22949
871.36	22984
871.489	22866
871.619	22999
871.749	22968
871.879	22930
872.008	23064
872.138	22991
872.267	22987
872.397	22885
872.526	22687
872.656	22801
872.785	22850
872.915	22892
873.044	23056
873.173	22930
873.303	22957
873.432	22919
873.561	23117
873.69	23067
873.819	22904
873.948	22976
874.077	23018
874.206	22889
874.335	22972
874.464	23033
874.593	23208
874.722	23056
874.851	23098
874.979	23166
875.108	23162
875.237	23166
875.365	23071
875.494	23159
875.623	23124
875.751	23178
875.88	23235
876.008	23330
876.136	23455
876.265	23570
876.393	23551
876.521	23657
876.65	23611
876.778	23516
876.906	23600
877.034	23398
877.162	23444
877.29	23417
877.418	23505
877.546	23524
877.674	23433
877.802	23467
877.93	23429
878.058	23414
878.185	23459
878.313	23497
878.441	23349
878.568	23273
878.696	23402
878.824	23406
878.951	23509
879.079	23752
879.206	23779
879.333	23703
879.461	23531
879.588	23516
879.715	23672
879.842	23851
879.97	23619
880.097	23235
880.224	23311
880.351	23395
880.478	23345
880.605	23250
880.732	23356
880.859	23509
880.986	23364
881.112	23318
881.239	23197
881.366	22930
881.493	22976
881.619	22915
881.746	22869
881.872	22968
881.999	22797
882.125	22809
882.252	22949
882.378	22843
882.505	22908
882.631	22634
882.757	22577
882.883	22611
883.01	22573
883.136	22500
883.262	22375
883.388	22402
883.514	22603
883.64	22542
883.766	22451
883.892	22299
884.018	22348
884.143	22565
884.269	22512
884.395	22261
884.52	22192
884.646	22192
884.772	22055
884.897	22051
885.023	22181
885.148	22276
885.274	22322
885.399	22238
885.524	22135
885.65	22291
885.775	22105
885.9	22166
886.025	22238
886.15	22265
886.275	22128
886.4	22185
886.525	22044
886.65	22082
886.775	22093
886.9	22230
887.025	22421
887.149	22162
887.274	22036
887.399	21850
887.523	22032
887.648	21747
887.773	21869
887.897	21934
888.021	21892
888.146	21899
888.27	22044
888.395	22093
888.519	22029
888.643	21941
888.767	22013
888.891	21941
889.015	21819
889.139	21682
889.263	21709
889.387	21804
889.511	21838
889.635	21743
889.759	21724
889.883	21644
890.006	21663
890.13	21888
890.254	21561
890.377	21511
890.501	21599
890.624	21443
890.748	21496
890.871	21298
890.995	21184
891.118	21256
891.241	21363
891.364	21180
891.488	21447
891.611	21321
891.734	21233
891.857	21272
891.98	21275
892.103	21332
892.226	21363
892.349	21180
892.471	20982
892.594	21047
892.717	21214
892.839	21256
892.962	21192
893.085	21150
893.207	21123
893.33	21085
893.452	21058
893.575	21222
893.697	21100
893.819	21306
893.941	21348
894.064	21374
894.186	21207
894.308	21093
894.43	21150
894.552	21386
894.674	21184
894.796	21077
894.918	21043
895.04	21013
895.161	21214
895.283	21241
895.405	21055
895.526	21199
895.648	21188
895.769	21199
895.891	21169
896.012	21157
896.134	21245
896.255	21256
896.376	21119
896.498	21142
896.619	21150
896.74	21142
896.861	21329
896.982	21393
897.103	21595
897.224	21439
897.345	21294
897.466	21313
897.587	21241
897.708	21408
897.828	21405
897.949	21298
898.07	21169
898.19	21302
898.311	21412
898.431	21230
898.552	21393
898.672	21336
898.792	21443
898.913	21405
899.033	21237
899.153	21188
899.273	21013
899.393	21146
899.513	21169
899.633	21108
899.753	21013
899.873	21062
899.993	21161
900.113	20975
900.232	21013
900.352	20971
900.472	20716
900.591	20819
900.711	20830
900.83	20670
900.95	20883
901.069	20929
901.189	20716
901.308	20358
901.427	20408
901.546	20457
901.665	20415
901.784	20492
901.904	20358
902.023	20199
902.141	19997
902.26	19936
902.379	20031
902.498	19879
902.617	19871
902.735	19928
902.854	19837
902.973	19769
903.091	19681
903.21	19590
903.328	19643
903.446	19400
903.565	19331
903.683	19339
903.801	19331
903.919	19335
904.038	19225
904.156	19110
904.274	19247
904.392	19160
904.51	19103
904.627	19076
904.745	19190
904.863	19183
904.981	19031
905.098	18791
905.216	18791
905.334	18916
905.451	18806
905.569	18749
905.686	18833
905.803	18798
905.921	18635
906.038	18711
906.155	18536
906.272	18536
906.389	18532
906.506	18467
906.623	18289
906.74	18270
906.857	18114
906.974	18262
907.091	18330
907.208	18410
907.324	18308
907.441	18194
907.557	18136
907.674	18049
907.79	17946
907.907	17950
908.023	17996
908.139	17984
908.256	18007
908.372	17939
908.488	17954
908.604	17684
908.72	17779
908.836	17752
908.952	17680
909.068	17745
909.184	17817
909.3	17634
909.415	17748
909.531	17691
909.647	17421
909.762	17406
909.878	17372
909.993	17391
910.108	17364
910.224	17383
910.339	17391
910.454	17334
910.57	17140
910.685	17117
910.8	17444
910.915	17387
911.03	17204
911.145	17064
911.259	16987
911.374	17109
911.489	16881
911.604	16885
911.718	16816
911.833	16828
911.947	16736
912.062	16462
912.176	16729
912.291	16767
912.405	16660
912.519	16900
912.633	16858
912.748	16755
912.862	16733
912.976	16599
913.09	16516
913.204	16508
913.318	16542
913.431	16691
913.545	16500
913.659	16611
913.772	16523
913.886	16356
914	16390
914.113	16337
914.226	16402
914.34	16322
914.453	16261
914.566	16459
914.68	16185
914.793	16211
914.906	15926
915.019	15861
915.132	15842
915.245	15816
915.358	16040
915.47	15895
915.583	15880
915.696	15846
915.809	16032
915.921	16059
916.034	15880
916.146	15812
916.259	15762
916.371	15873
916.483	15838
916.595	15827
916.708	15728
916.82	15622
916.932	15614
917.044	15595
917.156	15720
917.268	15599
917.38	15667
917.491	15568
917.603	15572
917.715	15603
917.826	15641
917.938	15462
918.049	15382
918.161	15466
918.272	15561
918.384	15568
918.495	15424
918.606	15321
918.717	15233
918.828	15344
918.939	15336
919.05	15176
919.161	15237
919.272	15108
919.383	15161
919.494	15389
919.604	15492
919.715	15291
919.826	15226
919.936	15233
920.047	15340
920.157	15123
920.267	15401
920.378	15233
920.488	15230
920.598	15397
920.708	15515
920.818	15355
920.928	15336
921.038	15534
921.148	15435
921.258	15161
921.368	15077
921.477	15013
921.587	14902
921.697	14861
921.806	14887
921.916	14876
922.025	14667
922.134	14636
922.244	14606
922.353	14621
922.462	14442
922.571	14446
922.68	14218
922.789	14206
922.898	14161
923.007	14183
923.116	14263
923.224	14259
923.333	14142
923.442	14031
923.55	14012
923.659	14027
923.767	14168
923.876	14027
923.984	14008
924.092	13883
924.201	14020
924.309	13898
924.417	13921
924.525	13974
924.633	13906
924.741	14499
924.849	13704
924.956	13868
925.064	13651
925.172	13533
925.279	13575
925.387	13624
925.494	13620
925.602	13620
925.709	13643
925.816	13438
925.924	13499
926.031	13765
926.138	13480
926.245	13620
926.352	13453
926.459	13624
926.566	13548
926.673	13476
926.779	13331
926.886	13327
926.993	13221
927.099	13259
927.206	12989
927.312	13103
927.419	13168
927.525	13114
927.631	13133
927.737	12962
927.843	12951
927.95	12814
928.056	12897
928.162	13012
928.267	12954
928.373	13575
928.479	12962
928.585	12776
928.69	12871
928.796	12924
928.901	12829
929.007	12662
929.112	12844
929.218	12715
929.323	12806
929.428	12677
929.533	12795
929.638	12642
929.743	12608
929.848	12578
929.953	12574
930.058	12509
930.163	12300
930.267	12365
930.372	12445
930.477	12342
930.581	12521
930.685	12376
930.79	12213
930.894	12251
930.998	12171
931.103	12323
931.207	11935
931.311	11863
931.415	11771
931.519	11573
931.623	11577
