Data from test_V78500241_1582.txt Node
Date: Fri Mar 25 15:52:45 CST 2022
User: usil
Spectrometer: V785-0024
Trigger mode: 0
Integration Time (sec): 4.000000E-1
Scans to average: 1
Nonlinearity correction enabled: false
Boxcar width: 0
Storing dark spectrum: false
XAxis mode: Wavelengths
Number of Pixels in Spectrum: 1024
>>>>>Begin Spectral Data<<<<<
801.071	27846
801.214	27987
801.356	27663
801.499	27633
801.641	27523
801.783	27492
801.926	27671
802.068	27386
802.211	27450
802.353	27340
802.496	27275
802.638	27241
802.78	27192
802.923	27081
803.065	27070
803.208	27192
803.35	27233
803.492	27363
803.635	27408
803.777	27165
803.919	27416
804.061	27789
804.204	27431
804.346	27298
804.488	27176
804.63	27249
804.773	27230
804.915	27405
805.057	27374
805.199	27351
805.341	27519
805.483	27603
805.626	27412
805.768	27504
805.91	27435
806.052	27572
806.194	27515
806.336	27629
806.478	27545
806.62	27412
806.762	27671
806.904	27968
807.046	28006
807.188	27865
807.33	27895
807.472	27975
807.614	27983
807.756	27903
807.898	27876
808.04	27930
808.182	27717
808.324	27911
808.465	27797
808.607	28013
808.749	28162
808.891	28284
809.033	28322
809.174	28169
809.316	28139
809.458	28093
809.6	28215
809.741	28223
809.883	28257
810.025	28535
810.166	28363
810.308	28451
810.45	28348
810.591	28352
810.733	28204
810.875	28051
811.016	28036
811.158	27949
811.299	28356
811.441	28303
811.582	28375
811.724	28086
811.865	28048
812.007	28131
812.148	28109
812.29	28173
812.431	28287
812.573	28284
812.714	28519
812.855	28615
812.997	28729
813.138	28744
813.279	28839
813.421	28687
813.562	28516
813.703	28329
813.845	28314
813.986	28154
814.127	27949
814.268	27888
814.41	27857
814.551	27755
814.692	27884
814.833	27797
814.974	27846
815.115	27827
815.256	27663
815.397	27759
815.539	27637
815.68	27709
815.821	27545
815.962	27606
816.103	27542
816.244	27477
816.385	27431
816.526	27332
816.666	27096
816.807	27104
816.948	27157
817.089	27199
817.23	27302
817.371	27161
817.512	27169
817.653	27119
817.793	27036
817.934	27055
818.075	27058
818.216	27074
818.356	26998
818.497	26940
818.638	26762
818.778	26849
818.919	26842
819.06	26868
819.2	27119
819.341	27154
819.481	26982
819.622	27363
819.762	27241
819.903	27397
820.043	27272
820.184	27325
820.324	27249
820.465	27226
820.605	27241
820.746	27272
820.886	27089
821.026	27131
821.167	27211
821.307	27218
821.447	27135
821.588	26982
821.728	26792
821.868	26864
822.008	26533
822.149	26594
822.289	26541
822.429	26412
822.569	26229
822.709	26336
822.849	26202
822.99	26115
823.13	26126
823.27	25917
823.41	25841
823.55	25746
823.69	25925
823.83	25902
823.97	26005
824.11	25704
824.25	25635
824.389	25594
824.529	25727
824.669	25674
824.809	25818
824.949	25807
825.089	25803
825.228	25822
825.368	25616
825.508	25674
825.648	25677
825.787	25689
825.927	25689
826.067	25586
826.206	25613
826.346	25719
826.485	25578
826.625	25620
826.765	25742
826.904	25624
827.044	25304
827.183	25384
827.323	25255
827.462	25419
827.601	25320
827.741	25320
827.88	25255
828.02	25145
828.159	25145
828.298	25430
828.437	25419
828.577	25221
828.716	25278
828.855	25240
828.994	25000
829.134	24954
829.273	25069
829.412	24886
829.551	24939
829.69	25080
829.829	25015
829.968	25023
830.107	24966
830.246	24970
830.385	24920
830.524	25019
830.663	24779
830.802	24642
830.941	24627
831.08	24574
831.219	24681
831.357	24620
831.496	24856
831.635	24646
831.774	24429
831.913	24433
832.051	24334
832.19	24464
832.329	24490
832.467	24323
832.606	24277
832.744	24228
832.883	24315
833.022	24182
833.16	24155
833.299	24327
833.437	24372
833.576	24380
833.714	24369
833.852	24456
833.991	24391
834.129	24376
834.267	24357
834.406	24448
834.544	24346
834.682	24323
834.821	24338
834.959	24479
835.097	24300
835.235	24456
835.373	24300
835.511	24304
835.65	24235
835.788	24346
835.926	24167
836.064	23920
836.202	24045
836.34	24205
836.478	24197
836.615	24091
836.753	24186
836.891	24224
837.029	24163
837.167	24015
837.305	23958
837.443	23969
837.58	23977
837.718	24121
837.856	24034
837.993	23866
838.131	24121
838.269	23923
838.406	23961
838.544	23916
838.681	23562
838.819	23642
838.956	23493
839.094	23524
839.231	23558
839.369	23676
839.506	23931
839.643	23687
839.781	23455
839.918	23478
840.055	23482
840.193	23421
840.33	23292
840.467	23474
840.604	23372
840.742	23535
840.879	23189
841.016	23463
841.153	23277
841.29	23406
841.427	23429
841.564	23406
841.701	23433
841.838	23337
841.975	23307
842.112	23227
842.249	23239
842.385	23170
842.522	23364
842.659	23246
842.796	23109
842.933	23170
843.069	23071
843.206	23006
843.343	23143
843.479	23128
843.616	23166
843.752	22828
843.889	22965
844.025	23090
844.162	22881
844.298	22980
844.435	22965
844.571	22896
844.708	22949
844.844	23083
844.98	22900
845.117	22934
845.253	22869
845.389	22774
845.525	22774
845.661	22664
845.798	22660
845.934	22740
846.07	22584
846.206	22786
846.342	22675
846.478	22577
846.614	22329
846.75	22466
846.886	22519
847.022	22443
847.158	22424
847.294	22284
847.429	22375
847.565	22246
847.701	22649
847.837	22143
847.972	22074
848.108	22211
848.244	22093
848.379	22025
848.515	21956
848.65	22002
848.786	21964
848.921	21991
849.057	21994
849.192	22055
849.328	22006
849.463	21994
849.598	21941
849.734	21846
849.869	21930
850.004	21743
850.14	21838
850.275	21808
850.41	21591
850.545	21633
850.68	21759
850.815	21778
850.95	21694
851.085	21949
851.22	21854
851.355	21751
851.49	21686
851.625	21686
851.76	21751
851.895	21644
852.03	21656
852.165	21705
852.299	21755
852.434	21835
852.569	21755
852.703	21633
852.838	21736
852.973	21850
853.107	21797
853.242	21629
853.376	21420
853.511	21412
853.645	21595
853.78	21641
853.914	21644
854.048	21504
854.183	21519
854.317	21458
854.451	21629
854.585	21534
854.72	21637
854.854	21564
854.988	21412
855.122	21545
855.256	21454
855.39	21367
855.524	21599
855.658	21568
855.792	21481
855.926	21500
856.06	21599
856.194	21614
856.327	21519
856.461	21504
856.595	21534
856.729	21572
856.862	21728
856.996	21694
857.13	21739
857.263	21637
857.397	21679
857.53	21496
857.664	21595
857.797	21603
857.931	21743
858.064	21511
858.197	21724
858.331	21523
858.464	21599
858.597	21355
858.731	21568
858.864	21583
858.997	21553
859.13	21473
859.263	21526
859.396	21606
859.529	21405
859.662	21496
859.795	21511
859.928	21618
860.061	21778
860.194	21690
860.327	21690
860.46	21618
860.592	21819
860.725	21698
860.858	21709
860.99	21610
861.123	21412
861.256	21595
861.388	21633
861.521	22131
861.653	21412
861.786	21355
861.918	21363
862.05	21408
862.183	21576
862.315	21572
862.447	21485
862.58	21401
862.712	21272
862.844	21237
862.976	21363
863.108	21298
863.24	21694
863.372	21222
863.504	21264
863.636	21207
863.768	21268
863.9	21275
864.032	21169
864.164	21074
864.296	21199
864.428	21325
864.559	21336
864.691	21378
864.823	21329
864.954	21207
865.086	21351
865.217	21127
865.349	21089
865.48	21074
865.612	21180
865.743	21351
865.875	21154
866.006	21039
866.137	21131
866.269	21188
866.4	21051
866.531	21116
866.662	21024
866.793	21116
866.924	21005
867.055	21058
867.186	21051
867.317	20952
867.448	21062
867.579	21127
867.71	21077
867.841	21009
867.972	21020
868.103	21036
868.233	21188
868.364	21165
868.495	21275
868.625	21275
868.756	21401
868.886	21233
869.017	21275
869.147	21367
869.278	21450
869.408	21287
869.539	21279
869.669	21348
869.799	21374
869.929	21393
870.06	21405
870.19	21713
870.32	21713
870.45	21705
870.58	21648
870.71	21846
870.84	21827
870.97	21660
871.1	21743
871.23	21869
871.36	21838
871.489	21854
871.619	21968
871.749	22032
871.879	22002
872.008	22036
872.138	21911
872.267	21899
872.397	21888
872.526	21724
872.656	21793
872.785	21739
872.915	22002
873.044	21941
873.173	22021
873.303	22029
873.432	21994
873.561	21991
873.69	21964
873.819	22017
873.948	22120
874.077	21949
874.206	21876
874.335	21956
874.464	22143
874.593	22082
874.722	22226
874.851	22238
874.979	22082
875.108	22329
875.237	22192
875.365	22090
875.494	22086
875.623	22219
875.751	22207
875.88	22109
876.008	22325
876.136	22344
876.265	22656
876.393	22634
876.521	22672
876.65	22508
876.778	22641
876.906	22603
877.034	22550
877.162	22421
877.29	22432
877.418	22535
877.546	22596
877.674	22596
877.802	22497
877.93	22493
878.058	22451
878.185	22344
878.313	22367
878.441	22421
878.568	22318
878.696	22367
878.824	22561
878.951	22626
879.079	22767
879.206	22820
879.333	22550
879.461	22577
879.588	22542
879.715	22721
879.842	22839
879.97	22634
880.097	22443
880.224	22310
880.351	22371
880.478	22276
880.605	22280
880.732	22405
880.859	22626
880.986	22375
881.112	22421
881.239	22150
881.366	22093
881.493	22128
881.619	21983
881.746	22063
881.872	21838
881.999	21789
882.125	21644
882.252	21899
882.378	21922
882.505	21926
882.631	21739
882.757	21644
882.883	21720
883.01	21690
883.136	21599
883.262	21473
883.388	21408
883.514	21595
883.64	21523
883.766	21587
883.892	21481
884.018	21466
884.143	21545
884.269	21595
884.395	21374
884.52	21264
884.646	21272
884.772	21214
884.897	21195
885.023	21294
885.148	21443
885.274	21386
885.399	21287
885.524	21252
885.65	21226
885.775	21192
885.9	21119
886.025	21355
886.15	21386
886.275	21222
886.4	21161
886.525	21272
886.65	21169
886.775	21154
886.9	21256
887.025	21534
887.149	21104
887.274	21032
887.399	21066
887.523	20971
887.648	20990
887.773	20891
887.897	21176
888.021	21047
888.146	20971
888.27	21074
888.395	21169
888.519	21093
888.643	21013
888.767	21077
888.891	20834
889.015	20845
889.139	20838
889.263	20868
889.387	20857
889.511	21066
889.635	20948
889.759	20769
889.883	20777
890.006	20876
890.13	20967
890.254	20621
890.377	20636
890.501	20640
890.624	20473
890.748	20499
890.871	20492
890.995	20434
891.118	20301
891.241	20267
891.364	20492
891.488	20545
891.611	20408
891.734	20393
891.857	20492
891.98	20412
892.103	20389
892.226	20377
892.349	20351
892.471	20176
892.594	20343
892.717	20263
892.839	20225
892.962	20218
893.085	20328
893.207	20290
893.33	20206
893.452	20244
893.575	20218
893.697	20301
893.819	20473
893.941	20450
894.064	20389
894.186	20229
894.308	20149
894.43	20324
894.552	20454
894.674	20347
894.796	20138
894.918	20275
895.04	20336
895.161	20324
895.283	20298
895.405	20172
895.526	20358
895.648	20252
895.769	20309
895.891	20240
896.012	20427
896.134	20294
896.255	20278
896.376	20240
896.498	20336
896.619	20317
896.74	20145
896.861	20400
896.982	20659
897.103	20792
897.224	20533
897.345	20602
897.466	20400
897.587	20545
897.708	20655
897.828	20560
897.949	20362
898.07	20351
898.19	20347
898.311	20549
898.431	20423
898.552	20511
898.672	20594
898.792	20636
898.913	20473
899.033	20343
899.153	20328
899.273	20187
899.393	20305
899.513	20202
899.633	20153
899.753	20183
899.873	20180
899.993	20240
900.113	20145
900.232	20218
900.352	20134
900.472	19970
900.591	20016
900.711	20027
900.83	19906
900.95	20001
901.069	20176
901.189	19902
901.308	19833
901.427	19708
901.546	19635
901.665	19685
901.784	19791
901.904	19483
902.023	19339
902.141	19103
902.26	19168
902.379	19217
902.498	19137
902.617	19069
902.735	19069
902.854	19179
902.973	18989
903.091	18913
903.21	18745
903.328	18833
903.446	18753
903.565	18639
903.683	18563
903.801	18574
903.919	18521
904.038	18589
904.156	18273
904.274	18380
904.392	18353
904.51	18353
904.627	18300
904.745	18350
904.863	18369
904.981	18083
905.098	18083
905.216	18034
905.334	18041
905.451	18068
905.569	18072
905.686	18019
905.803	17988
905.921	17821
906.038	17855
906.155	17760
906.272	17813
906.389	17714
906.506	17520
906.623	17608
906.74	17512
906.857	17463
906.974	17543
907.091	17642
907.208	17714
907.324	17535
907.441	17410
907.557	17227
907.674	17220
907.79	17181
907.907	17402
908.023	17307
908.139	17235
908.256	17128
908.372	17094
908.488	17208
908.604	17018
908.72	17029
908.836	16961
908.952	16911
909.068	17022
909.184	17067
909.3	17048
909.415	17029
909.531	17041
909.647	16729
909.762	16672
909.878	16668
909.993	16698
910.108	16672
910.224	16565
910.339	16611
910.454	16462
910.57	16542
910.685	16421
910.8	16664
910.915	16713
911.03	16493
911.145	16341
911.259	16341
911.374	16249
911.489	16215
911.604	16230
911.718	15968
911.833	16112
911.947	15816
912.062	15888
912.176	16074
912.291	16082
912.405	16074
912.519	16280
912.633	16230
912.748	16063
912.862	15850
912.976	15884
913.09	15781
913.204	15789
913.318	15892
913.431	15979
913.545	15949
913.659	15911
913.772	15751
913.886	15644
914	15595
914.113	15778
914.226	15751
914.34	15732
914.453	15538
914.566	15667
914.68	15530
914.793	15439
914.906	15275
915.019	15367
915.132	15161
915.245	15237
915.358	15180
915.47	15306
915.583	15283
915.696	15306
915.809	15256
915.921	15378
916.034	15218
916.146	15150
916.259	15138
916.371	15199
916.483	15214
916.595	15032
916.708	15077
916.82	15070
916.932	14982
917.044	15154
917.156	14864
917.268	14868
917.38	14902
917.491	14921
917.603	14872
917.715	14963
917.826	15013
917.938	14925
918.049	14712
918.161	14834
918.272	15020
918.384	14952
918.495	14792
918.606	14613
918.717	14568
918.828	14697
918.939	14731
919.05	14480
919.161	14686
919.272	14362
919.383	14541
919.494	14716
919.604	14842
919.715	14632
919.826	14579
919.936	14579
920.047	14754
920.157	14678
920.267	14739
920.378	14541
920.488	14495
920.598	14705
920.708	14960
920.818	14705
920.928	14720
921.038	14925
921.148	14895
921.258	14594
921.368	14336
921.477	14415
921.587	14301
921.697	14103
921.806	14408
921.916	14202
922.025	14138
922.134	13936
922.244	13940
922.353	13909
922.462	13822
922.571	13814
922.68	13700
922.789	13677
922.898	13742
923.007	13594
923.116	13662
923.224	13715
923.333	13502
923.442	13514
923.55	13518
923.659	13537
923.767	13548
923.876	13369
923.984	13464
924.092	13282
924.201	13438
924.309	13331
924.417	13411
924.525	13327
924.633	13266
924.741	14206
924.849	13069
924.956	13266
925.064	13050
925.172	13095
925.279	13091
925.387	13088
925.494	13015
925.602	13187
925.709	13046
925.816	12939
925.924	12993
926.031	13057
926.138	13042
926.245	12954
926.352	12909
926.459	13031
926.566	13034
926.673	12973
926.779	12878
926.886	12726
926.993	12582
927.099	12612
927.206	12502
927.312	12429
927.419	12730
927.525	12585
927.631	12738
927.737	12536
927.843	12486
927.95	12266
928.056	12467
928.162	12467
928.267	12441
928.373	13126
928.479	12460
928.585	12201
928.69	12399
928.796	12426
928.901	12292
929.007	12140
929.112	12304
929.218	12194
929.323	12163
929.428	12098
929.533	12300
929.638	12087
929.743	12102
929.848	12155
929.953	12136
930.058	11958
930.163	11775
930.267	11851
930.372	12007
930.477	11764
930.581	12053
930.685	11878
930.79	11672
930.894	11779
930.998	11737
931.103	11863
931.207	11478
931.311	11391
931.415	11330
931.519	11105
931.623	11052
