Data from test_V78500241_1692.txt Node
Date: Fri Mar 25 15:53:31 CST 2022
User: usil
Spectrometer: V785-0024
Trigger mode: 0
Integration Time (sec): 4.000000E-1
Scans to average: 1
Nonlinearity correction enabled: false
Boxcar width: 0
Storing dark spectrum: false
XAxis mode: Wavelengths
Number of Pixels in Spectrum: 1024
>>>>>Begin Spectral Data<<<<<
801.071	28090
801.214	27975
801.356	27861
801.499	27880
801.641	27599
801.783	27698
801.926	27831
802.068	27724
802.211	27591
802.353	27622
802.496	27447
802.638	27466
802.78	27306
802.923	27359
803.065	27207
803.208	27230
803.35	27344
803.492	27382
803.635	27523
803.777	27374
803.919	27443
804.061	27960
804.204	27694
804.346	27519
804.488	27648
804.63	27648
804.773	27545
804.915	27739
805.057	27766
805.199	27462
805.341	27808
805.483	27755
805.626	27778
805.768	27526
805.91	27713
806.052	27759
806.194	27694
806.336	27857
806.478	27572
806.62	27591
806.762	27766
806.904	28044
807.046	28109
807.188	28090
807.33	28059
807.472	28112
807.614	28109
807.756	28131
807.898	27941
808.04	27934
808.182	27941
808.324	28070
808.465	27960
808.607	28120
808.749	28234
808.891	28508
809.033	28481
809.174	28398
809.316	28268
809.458	28306
809.6	28360
809.741	28371
809.883	28516
810.025	28478
810.166	28763
810.308	28691
810.45	28634
810.591	28516
810.733	28306
810.875	28341
811.016	28325
811.158	28325
811.299	28588
811.441	28538
811.582	28489
811.724	28284
811.865	28348
812.007	28360
812.148	28436
812.29	28287
812.431	28516
812.573	28615
812.714	28850
812.855	28854
812.997	29010
813.138	29174
813.279	29018
813.421	28946
813.562	28744
813.703	28675
813.845	28527
813.986	28287
814.127	28074
814.268	27975
814.41	28029
814.551	28048
814.692	28090
814.833	27953
814.974	27941
815.115	27998
815.256	27781
815.397	27899
815.539	27774
815.68	27781
815.821	27660
815.962	27869
816.103	27808
816.244	27660
816.385	27610
816.526	27641
816.666	27336
816.807	27298
816.948	27199
817.089	27378
817.23	27279
817.371	27275
817.512	27283
817.653	27150
817.793	27287
817.934	27302
818.075	27515
818.216	27321
818.356	27291
818.497	27245
818.638	27032
818.778	27112
818.919	27142
819.06	27036
819.2	27199
819.341	27408
819.481	27325
819.622	27435
819.762	27682
819.903	27652
820.043	27500
820.184	27454
820.324	27412
820.465	27367
820.605	27458
820.746	27488
820.886	27317
821.026	27492
821.167	27393
821.307	27500
821.447	27340
821.588	27135
821.728	27176
821.868	27062
822.008	26842
822.149	26701
822.289	26743
822.429	26507
822.569	26453
822.709	26545
822.849	26347
822.99	26336
823.13	26191
823.27	26332
823.41	26050
823.55	25982
823.69	26062
823.83	26237
823.97	26077
824.11	25864
824.25	25906
824.389	25795
824.529	25989
824.669	25944
824.809	25936
824.949	26107
825.089	26039
825.228	25982
825.368	25841
825.508	25795
825.648	25765
825.787	25822
825.927	25970
826.067	25738
826.206	25712
826.346	25830
826.485	25845
826.625	25818
826.765	25970
826.904	25788
827.044	25590
827.183	25655
827.323	25510
827.462	25521
827.601	25544
827.741	25502
827.88	25525
828.02	25388
828.159	25521
828.298	25510
828.437	25567
828.577	25411
828.716	25559
828.855	25491
828.994	25171
829.134	25164
829.273	25346
829.412	25118
829.551	25141
829.69	25171
829.829	25148
829.968	25434
830.107	25331
830.246	25190
830.385	25171
830.524	25072
830.663	24985
830.802	24829
830.941	24779
831.08	24719
831.219	24985
831.357	24817
831.496	25004
831.635	24890
831.774	24840
831.913	24730
832.051	24646
832.19	24597
832.329	24688
832.467	24578
832.606	24437
832.744	24433
832.883	24410
833.022	24422
833.16	24467
833.299	24578
833.437	24494
833.576	24616
833.714	24502
833.852	24525
833.991	24658
834.129	24700
834.267	24608
834.406	24521
834.544	24589
834.682	24563
834.821	24574
834.959	24738
835.097	24460
835.235	24536
835.373	24642
835.511	24532
835.65	24281
835.788	24422
835.926	24201
836.064	24213
836.202	24098
836.34	24334
836.478	24467
836.615	24365
836.753	24471
836.891	24407
837.029	24369
837.167	24323
837.305	24285
837.443	24254
837.58	24216
837.718	24281
837.856	24220
837.993	24114
838.131	24186
838.269	24018
838.406	24136
838.544	23954
838.681	23851
838.819	23927
838.956	23680
839.094	23741
839.231	23642
839.369	23821
839.506	24034
839.643	23908
839.781	23665
839.918	23687
840.055	23665
840.193	23608
840.33	23558
840.467	23619
840.604	23551
840.742	23904
840.879	23471
841.016	23463
841.153	23429
841.29	23665
841.427	23573
841.564	23627
841.701	23573
841.838	23535
841.975	23372
842.112	23486
842.249	23292
842.385	23189
842.522	23630
842.659	23391
842.796	23261
842.933	23307
843.069	23360
843.206	23349
843.343	23303
843.479	23299
843.616	23265
843.752	23006
843.889	23060
844.025	23239
844.162	23166
844.298	23159
844.435	23029
844.571	23086
844.708	23079
844.844	23239
844.98	23265
845.117	23254
845.253	23060
845.389	23029
845.525	23006
845.661	22976
845.798	22824
845.934	22816
846.07	22790
846.206	22900
846.342	23029
846.478	22839
846.614	22672
846.75	22569
846.886	22607
847.022	22675
847.158	22573
847.294	22478
847.429	22630
847.565	22565
847.701	22873
847.837	22360
847.972	22276
848.108	22318
848.244	22310
848.379	22219
848.515	22204
848.65	22253
848.786	22226
848.921	22135
849.057	22181
849.192	22166
849.328	22219
849.463	22109
849.598	22139
849.734	22040
849.869	22017
850.004	21937
850.14	22013
850.275	21911
850.41	21888
850.545	21865
850.68	21861
850.815	21918
850.95	22017
851.085	22021
851.22	22051
851.355	21892
851.49	21922
851.625	21903
851.76	21854
851.895	21823
852.03	21812
852.165	21876
852.299	21915
852.434	22017
852.569	21838
852.703	21865
852.838	22070
852.973	22013
853.107	22093
853.242	21934
853.376	21831
853.511	21724
853.645	21747
853.78	21930
853.914	21686
854.048	21717
854.183	21724
854.317	21698
854.451	21953
854.585	21770
854.72	21625
854.854	21804
854.988	21568
855.122	21709
855.256	21686
855.39	21720
855.524	21728
855.658	21823
855.792	21861
855.926	21705
856.06	21793
856.194	21728
856.327	21671
856.461	21660
856.595	21614
856.729	21793
856.862	21854
856.996	21751
857.13	21762
857.263	21880
857.397	21717
857.53	21728
857.664	21675
857.797	21857
857.931	21785
858.064	21736
858.197	21892
858.331	21793
858.464	21743
858.597	21610
858.731	21652
858.864	21637
858.997	21835
859.13	21759
859.263	21778
859.396	21842
859.529	21698
859.662	21755
859.795	21663
859.928	21618
860.061	21972
860.194	21880
860.327	21888
860.46	21819
860.592	21816
860.725	21926
860.858	21842
860.99	21671
861.123	21606
861.256	21679
861.388	21739
861.521	22363
861.653	21564
861.786	21542
861.918	21568
862.05	21576
862.183	21564
862.315	21633
862.447	21686
862.58	21576
862.712	21481
862.844	21420
862.976	21549
863.108	21492
863.24	21915
863.372	21523
863.504	21428
863.636	21507
863.768	21443
863.9	21416
864.032	21447
864.164	21462
864.296	21363
864.428	21595
864.559	21481
864.691	21534
864.823	21431
864.954	21428
865.086	21401
865.217	21332
865.349	21207
865.48	21268
865.612	21370
865.743	21481
865.875	21374
866.006	21287
866.137	21306
866.269	21367
866.4	21279
866.531	21264
866.662	21329
866.793	21310
866.924	21169
867.055	21367
867.186	21283
867.317	21405
867.448	21116
867.579	21169
867.71	21169
867.841	21214
867.972	21325
868.103	21188
868.233	21302
868.364	21150
868.495	21428
868.625	21519
868.756	21705
868.886	21363
869.017	21576
869.147	21595
869.278	21599
869.408	21652
869.539	21389
869.669	21504
869.799	21633
869.929	21686
870.06	21675
870.19	21888
870.32	21739
870.45	21804
870.58	21907
870.71	21987
870.84	22067
870.97	21850
871.1	21975
871.23	22040
871.36	22135
871.489	22032
871.619	22070
871.749	22029
871.879	22048
872.008	22105
872.138	22226
872.267	22044
872.397	21979
872.526	21934
872.656	21979
872.785	21934
872.915	22116
873.044	22200
873.173	22124
873.303	22238
873.432	22242
873.561	22196
873.69	22139
873.819	22070
873.948	22242
874.077	22147
874.206	22154
874.335	22116
874.464	22192
874.593	22436
874.722	22188
874.851	22325
874.979	22318
875.108	22394
875.237	22325
875.365	22211
875.494	22314
875.623	22348
875.751	22268
875.88	22249
876.008	22455
876.136	22508
876.265	22649
876.393	22854
876.521	22850
876.65	22812
876.778	22702
876.906	22694
877.034	22660
877.162	22713
877.29	22668
877.418	22786
877.546	22683
877.674	22577
877.802	22637
877.93	22721
878.058	22607
878.185	22584
878.313	22672
878.441	22603
878.568	22550
878.696	22675
878.824	22729
878.951	22618
879.079	22820
879.206	22976
879.333	22919
879.461	22660
879.588	22752
879.715	22816
879.842	22968
879.97	22717
880.097	22527
880.224	22470
880.351	22554
880.478	22523
880.605	22459
880.732	22542
880.859	22717
880.986	22531
881.112	22500
881.239	22405
881.366	22276
881.493	22150
881.619	22029
881.746	22070
881.872	22006
881.999	22040
882.125	22074
882.252	22109
882.378	22128
882.505	22128
882.631	21937
882.757	21895
882.883	21949
883.01	21785
883.136	21717
883.262	21625
883.388	21637
883.514	21717
883.64	21732
883.766	21732
883.892	21485
884.018	21557
884.143	21637
884.269	21686
884.395	21485
884.52	21428
884.646	21359
884.772	21405
884.897	21344
885.023	21378
885.148	21488
885.274	21622
885.399	21450
885.524	21321
885.65	21359
885.775	21519
885.9	21367
886.025	21622
886.15	21496
886.275	21291
886.4	21279
886.525	21576
886.65	21416
886.775	21317
886.9	21485
887.025	21637
887.149	21348
887.274	21173
887.399	21150
887.523	21066
887.648	21203
887.773	20967
887.897	21237
888.021	21142
888.146	21188
888.27	21237
888.395	21279
888.519	21176
888.643	21135
888.767	21195
888.891	20998
889.015	20963
889.139	21024
889.263	20998
889.387	21112
889.511	21222
889.635	21192
889.759	20944
889.883	20960
890.006	20998
890.13	21051
890.254	20933
890.377	20876
890.501	20674
890.624	20727
890.748	20762
890.871	20606
890.995	20499
891.118	20377
891.241	20625
891.364	20507
891.488	20598
891.611	20476
891.734	20587
891.857	20629
891.98	20602
892.103	20533
892.226	20530
892.349	20484
892.471	20267
892.594	20492
892.717	20568
892.839	20511
892.962	20568
893.085	20590
893.207	20377
893.33	20271
893.452	20450
893.575	20457
893.697	20537
893.819	20492
893.941	20632
894.064	20503
894.186	20385
894.308	20313
894.43	20488
894.552	20625
894.674	20484
894.796	20305
894.918	20454
895.04	20408
895.161	20465
895.283	20446
895.405	20412
895.526	20415
895.648	20431
895.769	20457
895.891	20473
896.012	20533
896.134	20499
896.255	20446
896.376	20286
896.498	20473
896.619	20499
896.74	20427
896.861	20438
896.982	20735
897.103	20899
897.224	20693
897.345	20594
897.466	20431
897.587	20632
897.708	20819
897.828	20670
897.949	20575
898.07	20480
898.19	20552
898.311	20667
898.431	20575
898.552	20632
898.672	20712
898.792	20697
898.913	20663
899.033	20583
899.153	20465
899.273	20343
899.393	20332
899.513	20518
899.633	20396
899.753	20438
899.873	20427
899.993	20351
900.113	20229
900.232	20332
900.352	20355
900.472	20320
900.591	20191
900.711	20195
900.83	20092
900.95	20286
901.069	20355
901.189	20043
901.308	19860
901.427	19750
901.546	19704
901.665	19788
901.784	19769
901.904	19605
902.023	19537
902.141	19324
902.26	19270
902.379	19346
902.498	19343
902.617	19251
902.735	19457
902.854	19285
902.973	19126
903.091	18890
903.21	18962
903.328	18875
903.446	18840
903.565	18700
903.683	18806
903.801	18688
903.919	18768
904.038	18688
904.156	18445
904.274	18486
904.392	18490
904.51	18536
904.627	18563
904.745	18464
904.863	18544
904.981	18266
905.098	18144
905.216	18121
905.334	18133
905.451	18213
905.569	18133
905.686	18159
905.803	18281
905.921	17958
906.038	18034
906.155	17996
906.272	17775
906.389	17828
906.506	17737
906.623	17764
906.74	17707
906.857	17501
906.974	17611
907.091	17646
907.208	17847
907.324	17676
907.441	17589
907.557	17379
907.674	17372
907.79	17246
907.907	17296
908.023	17307
908.139	17322
908.256	17273
908.372	17433
908.488	17372
908.604	17200
908.72	17113
908.836	17113
908.952	17025
909.068	17143
909.184	17147
909.3	17151
909.415	17178
909.531	17121
909.647	16862
909.762	16835
909.878	16809
909.993	16847
910.108	16767
910.224	16771
910.339	16790
910.454	16683
910.57	16561
910.685	16558
910.8	16828
910.915	16771
911.03	16698
911.145	16500
911.259	16443
911.374	16363
911.489	16379
911.604	16303
911.718	16109
911.833	16166
911.947	16093
912.062	16013
912.176	16128
912.291	16147
912.405	16177
912.519	16421
912.633	16306
912.748	16150
912.862	16120
912.976	15972
913.09	15873
913.204	15915
913.318	15991
913.431	16082
913.545	15972
913.659	16124
913.772	15861
913.886	15736
914	15774
914.113	15819
914.226	15975
914.34	15713
914.453	15633
914.566	15778
914.68	15682
914.793	15534
914.906	15313
915.019	15264
915.132	15264
915.245	15348
915.358	15447
915.47	15325
915.583	15382
915.696	15359
915.809	15389
915.921	15397
916.034	15249
916.146	15195
916.259	15180
916.371	15329
916.483	15272
916.595	15154
916.708	15150
916.82	15131
916.932	15157
917.044	15150
917.156	15077
917.268	14944
917.38	14960
917.491	15001
917.603	14998
917.715	15020
917.826	15077
917.938	14842
918.049	14864
918.161	14948
918.272	14986
918.384	15013
918.495	14998
918.606	14773
918.717	14724
918.828	14769
918.939	14811
919.05	14708
919.161	14792
919.272	14552
919.383	14625
919.494	14811
919.604	14872
919.715	14746
919.826	14583
919.936	14655
920.047	14792
920.157	14731
920.267	14849
920.378	14594
920.488	14712
920.598	14887
920.708	15119
920.818	14906
920.928	14823
921.038	14990
921.148	14971
921.258	14655
921.368	14533
921.477	14469
921.587	14442
921.697	14343
921.806	14461
921.916	14294
922.025	14100
922.134	14107
922.244	13955
922.353	14145
922.462	13887
922.571	14008
922.68	13742
922.789	13746
922.898	13742
923.007	13708
923.116	13776
923.224	13746
923.333	13731
923.442	13563
923.55	13563
923.659	13559
923.767	13609
923.876	13480
923.984	13674
924.092	13426
924.201	13453
924.309	13548
924.417	13457
924.525	13354
924.633	13324
924.741	14294
924.849	13228
924.956	13320
925.064	13160
925.172	13042
925.279	13084
925.387	13110
925.494	13171
925.602	13259
925.709	13187
925.816	13004
925.924	12981
926.031	13149
926.138	13080
926.245	13118
926.352	13042
926.459	13118
926.566	13126
926.673	12989
926.779	12905
926.886	12837
926.993	12741
927.099	12833
927.206	12696
927.312	12612
927.419	12684
927.525	12681
927.631	12711
927.737	12547
927.843	12612
927.95	12372
928.056	12525
928.162	12631
928.267	12544
928.373	13217
928.479	12585
928.585	12330
928.69	12509
928.796	12471
928.901	12369
929.007	12235
929.112	12448
929.218	12346
929.323	12262
929.428	12243
929.533	12369
929.638	12133
929.743	12178
929.848	12232
929.953	12201
930.058	12034
930.163	11824
930.267	12076
930.372	12057
930.477	11935
930.581	12110
930.685	11939
930.79	11817
930.894	11813
930.998	11718
931.103	11927
931.207	11630
931.311	11463
931.415	11395
931.519	11162
931.623	11136
