Data from test_V78500241_2902.txt Node
Date: Fri Mar 25 16:01:54 CST 2022
User: usil
Spectrometer: V785-0024
Trigger mode: 0
Integration Time (sec): 4.000000E-1
Scans to average: 1
Nonlinearity correction enabled: false
Boxcar width: 0
Storing dark spectrum: false
XAxis mode: Wavelengths
Number of Pixels in Spectrum: 1024
>>>>>Begin Spectral Data<<<<<
801.071	28892
801.214	28869
801.356	28660
801.499	28573
801.641	28516
801.783	28447
801.926	28459
802.068	28462
802.211	28493
802.353	28459
802.496	28360
802.638	28211
802.78	28162
802.923	28287
803.065	28116
803.208	28188
803.35	28325
803.492	28455
803.635	28360
803.777	28318
803.919	28474
804.061	28839
804.204	28451
804.346	28455
804.488	28398
804.63	28390
804.773	28322
804.915	28417
805.057	28618
805.199	28531
805.341	28550
805.483	28645
805.626	28596
805.768	28535
805.91	28706
806.052	28660
806.194	28497
806.336	28778
806.478	28691
806.62	28694
806.762	28820
806.904	28881
807.046	29109
807.188	29033
807.33	29018
807.472	29147
807.614	29022
807.756	29006
807.898	28877
808.04	28946
808.182	28736
808.324	28968
808.465	28980
808.607	29052
808.749	29398
808.891	29551
809.033	29414
809.174	29273
809.316	29284
809.458	29345
809.6	29421
809.741	29395
809.883	29490
810.025	29482
810.166	29604
810.308	29615
810.45	29547
810.591	29501
810.733	29516
810.875	29482
811.016	29398
811.158	29204
811.299	29524
811.441	29459
811.582	29482
811.724	29493
811.865	29265
812.007	29356
812.148	29455
812.29	29440
812.431	29581
812.573	29802
812.714	29680
812.855	29942
812.997	29954
813.138	30060
813.279	29866
813.421	29893
813.562	29775
813.703	29889
813.845	29634
813.986	29482
814.127	29098
814.268	29052
814.41	29056
814.551	29181
814.692	29094
814.833	28976
814.974	29067
815.115	29105
815.256	28934
815.397	28930
815.539	28858
815.68	28793
815.821	28717
815.962	28908
816.103	28888
816.244	28717
816.385	28599
816.526	28759
816.666	28504
816.807	28424
816.948	28538
817.089	28653
817.23	28417
817.371	28299
817.512	28443
817.653	28390
817.793	28344
817.934	28265
818.075	28436
818.216	28268
818.356	28394
818.497	28181
818.638	28185
818.778	28211
818.919	28082
819.06	28215
819.2	28314
819.341	28428
819.481	28375
819.622	28618
819.762	28706
819.903	28763
820.043	28599
820.184	28538
820.324	28455
820.465	28607
820.605	28641
820.746	28531
820.886	28352
821.026	28622
821.167	28466
821.307	28626
821.447	28535
821.588	28363
821.728	28238
821.868	28059
822.008	27880
822.149	27934
822.289	27899
822.429	27591
822.569	27618
822.709	27542
822.849	27473
822.99	27481
823.13	27469
823.27	27367
823.41	27317
823.55	27100
823.69	27283
823.83	27256
823.97	27199
824.11	26998
824.25	26956
824.389	27005
824.529	27154
824.669	27036
824.809	27100
824.949	27180
825.089	27169
825.228	27138
825.368	26956
825.508	26758
825.648	26952
825.787	26929
825.927	27047
826.067	26986
826.206	26880
826.346	26902
826.485	27039
826.625	26895
826.765	27112
826.904	26971
827.044	26712
827.183	26777
827.323	26708
827.462	26674
827.601	26659
827.741	26571
827.88	26609
828.02	26503
828.159	26629
828.298	26617
828.437	26750
828.577	26579
828.716	26682
828.855	26427
828.994	26374
829.134	26393
829.273	26480
829.412	26294
829.551	26275
829.69	26320
829.829	26282
829.968	26366
830.107	26332
830.246	26404
830.385	26256
830.524	26252
830.663	26199
830.802	26005
830.941	26046
831.08	25947
831.219	26046
831.357	26024
831.496	26191
831.635	26100
831.774	25879
831.913	25864
832.051	25681
832.19	25784
832.329	25670
832.467	25708
832.606	25567
832.744	25529
832.883	25639
833.022	25552
833.16	25734
833.299	25647
833.437	25647
833.576	25708
833.714	25715
833.852	25727
833.991	25765
834.129	25826
834.267	25841
834.406	25674
834.544	25628
834.682	25769
834.821	25510
834.959	25841
835.097	25552
835.235	25731
835.373	25681
835.511	25734
835.65	25514
835.788	25601
835.926	25358
836.064	25320
836.202	25453
836.34	25521
836.478	25479
836.615	25620
836.753	25453
836.891	25613
837.029	25540
837.167	25438
837.305	25457
837.443	25308
837.58	25282
837.718	25400
837.856	25285
837.993	25308
838.131	25362
838.269	25228
838.406	25179
838.544	25202
838.681	25080
838.819	24962
838.956	24844
839.094	24844
839.231	24677
839.369	25061
839.506	25217
839.643	24951
839.781	24859
839.918	24734
840.055	24768
840.193	24745
840.33	24730
840.467	24776
840.604	24646
840.742	24947
840.879	24578
841.016	24608
841.153	24642
841.29	24814
841.427	24741
841.564	24753
841.701	24703
841.838	24612
841.975	24677
842.112	24540
842.249	24536
842.385	24525
842.522	24658
842.659	24597
842.796	24441
842.933	24441
843.069	24365
843.206	24391
843.343	24505
843.479	24528
843.616	24418
843.752	24186
843.889	24369
844.025	24254
844.162	24235
844.298	24311
844.435	24285
844.571	24114
844.708	24258
844.844	24266
844.98	24365
845.117	24304
845.253	24079
845.389	24060
845.525	24117
845.661	24041
845.798	23942
845.934	24053
846.07	23954
846.206	24034
846.342	23988
846.478	23977
846.614	23874
846.75	23547
846.886	23718
847.022	23741
847.158	23718
847.294	23722
847.429	23585
847.565	23676
847.701	23901
847.837	23467
847.972	23402
848.108	23459
848.244	23512
848.379	23360
848.515	23292
848.65	23250
848.786	23296
848.921	23436
849.057	23299
849.192	23231
849.328	23231
849.463	23159
849.598	23280
849.734	23124
849.869	23121
850.004	23025
850.14	23090
850.275	23098
850.41	23044
850.545	22843
850.68	22896
850.815	23075
850.95	23003
851.085	23136
851.22	23212
851.355	23044
851.49	23010
851.625	22984
851.76	23052
851.895	22919
852.03	22892
852.165	23048
852.299	23128
852.434	22995
852.569	23208
852.703	23041
852.838	23067
852.973	23189
853.107	23003
853.242	23029
853.376	22869
853.511	22618
853.645	22911
853.78	22930
853.914	22778
854.048	22831
854.183	22866
854.317	22942
854.451	22919
854.585	22942
854.72	22820
854.854	22866
854.988	22873
855.122	22923
855.256	22668
855.39	22759
855.524	22885
855.658	22934
855.792	22869
855.926	22820
856.06	22930
856.194	22911
856.327	22809
856.461	22805
856.595	22733
856.729	22816
856.862	22953
856.996	22892
857.13	22892
857.263	23010
857.397	22942
857.53	22725
857.664	22995
857.797	22896
857.931	22824
858.064	22896
858.197	22858
858.331	22809
858.464	22877
858.597	22835
858.731	22771
858.864	22812
858.997	22656
859.13	22710
859.263	22904
859.396	23022
859.529	22683
859.662	22843
859.795	22828
859.928	22843
860.061	23041
860.194	23041
860.327	22976
860.46	23003
860.592	22991
860.725	22991
860.858	22915
860.99	22892
861.123	22843
861.256	22869
861.388	22801
861.521	23608
861.653	22649
861.786	22626
861.918	22675
862.05	22706
862.183	22740
862.315	22774
862.447	22866
862.58	22847
862.712	22512
862.844	22489
862.976	22569
863.108	22660
863.24	23094
863.372	22356
863.504	22672
863.636	22500
863.768	22462
863.9	22679
864.032	22561
864.164	22489
864.296	22622
864.428	22721
864.559	22637
864.691	22725
864.823	22554
864.954	22402
865.086	22569
865.217	22485
865.349	22371
865.48	22413
865.612	22478
865.743	22554
865.875	22489
866.006	22462
866.137	22436
866.269	22371
866.4	22310
866.531	22375
866.662	22234
866.793	22329
866.924	22390
867.055	22344
867.186	22428
867.317	22284
867.448	22337
867.579	22253
867.71	22303
867.841	22318
867.972	22421
868.103	22413
868.233	22379
868.364	22261
868.495	22565
868.625	22516
868.756	22748
868.886	22584
869.017	22622
869.147	22721
869.278	22694
869.408	22603
869.539	22637
869.669	22759
869.799	22615
869.929	22759
870.06	22702
870.19	22873
870.32	22763
870.45	23006
870.58	22927
870.71	23048
870.84	23067
870.97	23010
871.1	23006
871.23	23117
871.36	23136
871.489	23083
871.619	23052
871.749	23143
871.879	23147
872.008	23315
872.138	23239
872.267	23220
872.397	23098
872.526	23029
872.656	22965
872.785	23041
872.915	23185
873.044	23337
873.173	23140
873.303	23269
873.432	23181
873.561	23277
873.69	23197
873.819	23231
873.948	23356
874.077	23288
874.206	23151
874.335	23258
874.464	23280
874.593	23440
874.722	23269
874.851	23463
874.979	23372
875.108	23486
875.237	23364
875.365	23345
875.494	23311
875.623	23448
875.751	23353
875.88	23440
876.008	23482
876.136	23608
876.265	23760
876.393	23893
876.521	23851
876.65	23916
876.778	23863
876.906	23722
877.034	23794
877.162	23859
877.29	23775
877.418	23809
877.546	23573
877.674	23722
877.802	23851
877.93	23779
878.058	23790
878.185	23714
878.313	23805
878.441	23817
878.568	23619
878.696	23600
878.824	23710
878.951	23775
879.079	23847
879.206	24018
879.333	23798
879.461	23729
879.588	23878
879.715	23893
879.842	24087
879.97	23817
880.097	23490
880.224	23642
880.351	23531
880.478	23516
880.605	23448
880.732	23627
880.859	23748
880.986	23592
881.112	23752
881.239	23482
881.366	23322
881.493	23170
881.619	23227
881.746	23147
881.872	23246
881.999	23075
882.125	23075
882.252	23204
882.378	23121
882.505	23098
882.631	22965
882.757	22915
882.883	22835
883.01	22843
883.136	22763
883.262	22710
883.388	22653
883.514	22790
883.64	22858
883.766	22786
883.892	22573
884.018	22519
884.143	22706
884.269	22774
884.395	22489
884.52	22371
884.646	22443
884.772	22333
884.897	22341
885.023	22519
885.148	22519
885.274	22622
885.399	22565
885.524	22379
885.65	22489
885.775	22603
885.9	22478
886.025	22542
886.15	22481
886.275	22322
886.4	22390
886.525	22287
886.65	22284
886.775	22196
886.9	22459
887.025	22626
887.149	22371
887.274	22238
887.399	22192
887.523	22093
887.648	22048
887.773	22143
887.897	22238
888.021	22249
888.146	22078
888.27	22306
888.395	22223
888.519	22181
888.643	22322
888.767	22181
888.891	22150
889.015	22055
889.139	22010
889.263	22059
889.387	22204
889.511	22143
889.635	21994
889.759	21994
889.883	21869
890.006	22051
890.13	22154
890.254	21918
890.377	21762
890.501	21751
890.624	21778
890.748	21888
890.871	21686
890.995	21386
891.118	21511
891.241	21549
891.364	21545
891.488	21625
891.611	21458
891.734	21530
891.857	21564
891.98	21485
892.103	21648
892.226	21473
892.349	21424
892.471	21272
892.594	21374
892.717	21519
892.839	21374
892.962	21485
893.085	21477
893.207	21336
893.33	21317
893.452	21329
893.575	21397
893.697	21332
893.819	21580
893.941	21454
894.064	21485
894.186	21222
894.308	21374
894.43	21389
894.552	21629
894.674	21348
894.796	21344
894.918	21367
895.04	21336
895.161	21412
895.283	21374
895.405	21351
895.526	21325
895.648	21389
895.769	21363
895.891	21386
896.012	21378
896.134	21401
896.255	21408
896.376	21348
896.498	21329
896.619	21340
896.74	21321
896.861	21344
896.982	21595
897.103	21778
897.224	21583
897.345	21694
897.466	21500
897.587	21637
897.708	21667
897.828	21515
897.949	21568
898.07	21469
898.19	21500
898.311	21644
898.431	21583
898.552	21431
898.672	21610
898.792	21690
898.913	21530
899.033	21447
899.153	21351
899.273	21230
899.393	21291
899.513	21401
899.633	21256
899.753	21408
899.873	21142
899.993	21405
900.113	21252
900.232	21218
900.352	21146
900.472	21154
900.591	21013
900.711	21081
900.83	20910
900.95	21252
901.069	21142
901.189	20845
901.308	20693
901.427	20492
901.546	20663
901.665	20659
901.784	20644
901.904	20552
902.023	20370
902.141	20267
902.26	20191
902.379	20240
902.498	20176
902.617	20035
902.735	20145
902.854	19944
902.973	20027
903.091	19776
903.21	19791
903.328	19647
903.446	19666
903.565	19582
903.683	19464
903.801	19525
903.919	19514
904.038	19525
904.156	19354
904.274	19320
904.392	19346
904.51	19259
904.627	19335
904.745	19346
904.863	19381
904.981	19061
905.098	18932
905.216	18970
905.334	18958
905.451	18985
905.569	18962
905.686	18935
905.803	18916
905.921	18703
906.038	18951
906.155	18684
906.272	18681
906.389	18726
906.506	18563
906.623	18498
906.74	18506
906.857	18464
906.974	18384
907.091	18601
907.208	18536
907.324	18528
907.441	18350
907.557	18292
907.674	18129
907.79	18194
907.907	18152
908.023	18232
908.139	18186
908.256	18182
908.372	18053
908.488	18091
908.604	17977
908.72	17908
908.836	17958
908.952	17923
909.068	17912
909.184	18072
909.3	17855
909.415	17882
909.531	17935
909.647	17672
909.762	17638
909.878	17611
909.993	17592
910.108	17608
910.224	17501
910.339	17562
910.454	17528
910.57	17467
910.685	17376
910.8	17596
910.915	17566
911.03	17379
911.145	17235
911.259	17277
911.374	17261
911.489	17151
911.604	17037
911.718	16904
911.833	16930
911.947	16839
912.062	16683
912.176	16862
912.291	16885
912.405	16957
912.519	17189
912.633	17060
912.748	17052
912.862	16725
912.976	16725
913.09	16706
913.204	16763
913.318	16767
913.431	16778
913.545	16748
913.659	16816
913.772	16664
913.886	16535
914	16512
914.113	16580
914.226	16717
914.34	16542
914.453	16470
914.566	16618
914.68	16451
914.793	16386
914.906	16139
915.019	16124
915.132	16017
915.245	16093
915.358	16032
915.47	16090
915.583	16074
915.696	16120
915.809	16128
915.921	16223
916.034	16006
916.146	15998
916.259	16074
916.371	16044
916.483	16006
916.595	15888
916.708	15945
916.82	15762
916.932	15869
917.044	15934
917.156	15846
917.268	15732
917.38	15759
917.491	15728
917.603	15732
917.715	15804
917.826	15808
917.938	15576
918.049	15511
918.161	15660
918.272	15797
918.384	15720
918.495	15663
918.606	15492
918.717	15526
918.828	15439
918.939	15462
919.05	15382
919.161	15389
919.272	15283
919.383	15252
919.494	15405
919.604	15473
919.715	15386
919.826	15321
919.936	15416
920.047	15519
920.157	15393
920.267	15584
920.378	15412
920.488	15363
920.598	15542
920.708	15641
920.818	15511
920.928	15553
921.038	15656
921.148	15576
921.258	15252
921.368	15245
921.477	15131
921.587	15089
921.697	15028
921.806	15062
921.916	15024
922.025	14842
922.134	14731
922.244	14735
922.353	14765
922.462	14644
922.571	14606
922.68	14454
922.789	14442
922.898	14492
923.007	14427
923.116	14442
923.224	14431
923.333	14400
923.442	14187
923.55	14294
923.659	14248
923.767	14324
923.876	14088
923.984	14290
924.092	14153
924.201	14096
924.309	14161
924.417	14100
924.525	14012
924.633	14039
924.741	14921
924.849	13898
924.956	13986
925.064	13864
925.172	13674
925.279	13822
925.387	13849
925.494	13734
925.602	13909
925.709	13822
925.816	13670
925.924	13753
926.031	13791
926.138	13738
926.245	13776
926.352	13628
926.459	13769
926.566	13799
926.673	13704
926.779	13510
926.886	13453
926.993	13350
927.099	13377
927.206	13373
927.312	13308
927.419	13388
927.525	13301
927.631	13377
927.737	13114
927.843	13244
927.95	13050
928.056	13194
928.162	13065
928.267	13156
928.373	13769
928.479	13240
928.585	12954
928.69	13118
928.796	13072
928.901	12939
929.007	12863
929.112	12954
929.218	12954
929.323	12894
929.428	12787
929.533	13027
929.638	12821
929.743	12760
929.848	12806
929.953	12802
930.058	12696
930.163	12528
930.267	12506
930.372	12719
930.477	12498
930.581	12764
930.685	12597
930.79	12361
930.894	12403
930.998	12391
931.103	12502
931.207	12083
931.311	12068
931.415	11965
931.519	11847
931.623	11672
