Data from test_V78500241_3424.txt Node
Date: Fri Mar 25 16:05:31 CST 2022
User: usil
Spectrometer: V785-0024
Trigger mode: 0
Integration Time (sec): 4.000000E-1
Scans to average: 1
Nonlinearity correction enabled: false
Boxcar width: 0
Storing dark spectrum: false
XAxis mode: Wavelengths
Number of Pixels in Spectrum: 1024
>>>>>Begin Spectral Data<<<<<
801.071	28763
801.214	28618
801.356	28436
801.499	28261
801.641	28329
801.783	28272
801.926	28242
802.068	28185
802.211	28333
802.353	28078
802.496	27899
802.638	28055
802.78	27850
802.923	27888
803.065	27827
803.208	27812
803.35	27892
803.492	28051
803.635	28230
803.777	28074
803.919	28253
804.061	28459
804.204	28249
804.346	28188
804.488	27998
804.63	28177
804.773	28082
804.915	28226
805.057	28333
805.199	28219
805.341	28341
805.483	28405
805.626	28386
805.768	28314
805.91	28360
806.052	28337
806.194	28333
806.336	28497
806.478	28341
806.62	28352
806.762	28493
806.904	28767
807.046	28862
807.188	28843
807.33	28812
807.472	28858
807.614	28885
807.756	28763
807.898	28637
808.04	28538
808.182	28516
808.324	28653
808.465	28774
808.607	28949
808.749	28984
808.891	29178
809.033	29128
809.174	29105
809.316	29003
809.458	29041
809.6	28873
809.741	29208
809.883	29193
810.025	29296
810.166	29512
810.308	29299
810.45	29193
810.591	29330
810.733	29155
810.875	29044
811.016	29086
811.158	28942
811.299	29109
811.441	29143
811.582	29315
811.724	29086
811.865	28999
812.007	28942
812.148	29079
812.29	29181
812.431	29242
812.573	29414
812.714	29406
812.855	29615
812.997	29760
813.138	29646
813.279	29821
813.421	29501
813.562	29444
813.703	29315
813.845	29402
813.986	28965
814.127	28698
814.268	28710
814.41	28854
814.551	28740
814.692	28885
814.833	28729
814.974	28790
815.115	28812
815.256	28694
815.397	28584
815.539	28584
815.68	28489
815.821	28546
815.962	28607
816.103	28481
816.244	28390
816.385	28352
816.526	28386
816.666	28177
816.807	28025
816.948	28204
817.089	28154
817.23	28070
817.371	28128
817.512	28093
817.653	27975
817.793	28055
817.934	28166
818.075	28055
818.216	28177
818.356	28010
818.497	28036
818.638	27827
818.778	27732
818.919	27743
819.06	27869
819.2	27941
819.341	28154
819.481	27994
819.622	28135
819.762	28409
819.903	28318
820.043	28287
820.184	28238
820.324	28158
820.465	28223
820.605	28223
820.746	28082
820.886	28147
821.026	28310
821.167	28188
821.307	28196
821.447	28086
821.588	28109
821.728	27831
821.868	27660
822.008	27701
822.149	27466
822.289	27523
822.429	27241
822.569	27287
822.709	27321
822.849	27028
822.99	27256
823.13	27070
823.27	27100
823.41	26800
823.55	26906
823.69	27119
823.83	26952
823.97	26895
824.11	26708
824.25	26746
824.389	26659
824.529	26891
824.669	26644
824.809	26754
824.949	26769
825.089	26796
825.228	26781
825.368	26552
825.508	26606
825.648	26492
825.787	26720
825.927	26667
826.067	26594
826.206	26625
826.346	26651
826.485	26724
826.625	26598
826.765	26746
826.904	26727
827.044	26294
827.183	26393
827.323	26324
827.462	26324
827.601	26381
827.741	26187
827.88	26309
828.02	26180
828.159	26218
828.298	26328
828.437	26343
828.577	26282
828.716	26393
828.855	26275
828.994	25989
829.134	26043
829.273	25963
829.412	25974
829.551	25894
829.69	25978
829.829	26081
829.968	26050
830.107	26126
830.246	25959
830.385	25856
830.524	25807
830.663	25974
830.802	25818
830.941	25719
831.08	25544
831.219	25677
831.357	25780
831.496	25925
831.635	25685
831.774	25468
831.913	25403
832.051	25320
832.19	25464
832.329	25392
832.467	25384
832.606	25274
832.744	25304
832.883	25282
833.022	25046
833.16	25350
833.299	25346
833.437	25384
833.576	25369
833.714	25282
833.852	25411
833.991	25297
834.129	25445
834.267	25441
834.406	25529
834.544	25362
834.682	25327
834.821	25255
834.959	25499
835.097	25320
835.235	25373
835.373	25247
835.511	25327
835.65	25110
835.788	25198
835.926	24981
836.064	24951
836.202	24954
836.34	25095
836.478	25304
836.615	25217
836.753	25133
836.891	25266
837.029	25225
837.167	24992
837.305	25023
837.443	25027
837.58	24905
837.718	24935
837.856	25046
837.993	24817
838.131	25031
838.269	24859
838.406	24981
838.544	24764
838.681	24745
838.819	24650
838.956	24540
839.094	24441
839.231	24388
839.369	24563
839.506	24844
839.643	24776
839.781	24479
839.918	24445
840.055	24399
840.193	24456
840.33	24418
840.467	24353
840.604	24365
840.742	24654
840.879	24251
841.016	24315
841.153	24266
841.29	24490
841.427	24422
841.564	24319
841.701	24266
841.838	24308
841.975	24213
842.112	24213
842.249	24232
842.385	24163
842.522	24460
842.659	24277
842.796	23996
842.933	24186
843.069	24057
843.206	24041
843.343	24266
843.479	24247
843.616	24171
843.752	23798
843.889	23874
844.025	24083
844.162	23729
844.298	24030
844.435	23851
844.571	23802
844.708	23901
844.844	24057
844.98	24140
845.117	23988
845.253	23870
845.389	23805
845.525	23821
845.661	23779
845.798	23672
845.934	23809
846.07	23619
846.206	23672
846.342	23809
846.478	23600
846.614	23398
846.75	23376
846.886	23421
847.022	23315
847.158	23360
847.294	23421
847.429	23227
847.565	23364
847.701	23619
847.837	23109
847.972	23090
848.108	23105
848.244	23258
848.379	23109
848.515	22934
848.65	22938
848.786	23079
848.921	22816
849.057	22934
849.192	23075
849.328	23014
849.463	22904
849.598	22927
849.734	22866
849.869	22873
850.004	22603
850.14	22721
850.275	22729
850.41	22641
850.545	22580
850.68	22611
850.815	22763
850.95	22675
851.085	22919
851.22	22774
851.355	22675
851.49	22660
851.625	22637
851.76	22664
851.895	22675
852.03	22649
852.165	22649
852.299	22771
852.434	22786
852.569	22611
852.703	22721
852.838	22767
852.973	22927
853.107	22725
853.242	22580
853.376	22535
853.511	22432
853.645	22462
853.78	22611
853.914	22478
854.048	22519
854.183	22489
854.317	22546
854.451	22675
854.585	22569
854.72	22481
854.854	22660
854.988	22630
855.122	22538
855.256	22485
855.39	22584
855.524	22542
855.658	22706
855.792	22516
855.926	22557
856.06	22554
856.194	22531
856.327	22531
856.461	22375
856.595	22485
856.729	22470
856.862	22706
856.996	22561
857.13	22489
857.263	22596
857.397	22618
857.53	22516
857.664	22554
857.797	22481
857.931	22645
858.064	22599
858.197	22668
858.331	22512
858.464	22500
858.597	22333
858.731	22459
858.864	22493
858.997	22440
859.13	22512
859.263	22447
859.396	22565
859.529	22478
859.662	22607
859.795	22443
859.928	22519
860.061	22672
860.194	22759
860.327	22565
860.46	22512
860.592	22580
860.725	22713
860.858	22675
860.99	22478
861.123	22557
861.256	22497
861.388	22493
861.521	23254
861.653	22287
861.786	22234
861.918	22466
862.05	22447
862.183	22325
862.315	22413
862.447	22512
862.58	22314
862.712	22284
862.844	22234
862.976	22249
863.108	22318
863.24	22603
863.372	22173
863.504	22234
863.636	22219
863.768	22390
863.9	22226
864.032	22078
864.164	22246
864.296	22261
864.428	22215
864.559	22268
864.691	22390
864.823	22128
864.954	22135
865.086	22211
865.217	22067
865.349	22093
865.48	22139
865.612	22070
865.743	22314
865.875	22188
866.006	22150
866.137	22051
866.269	22177
866.4	22090
866.531	22093
866.662	22006
866.793	22150
866.924	22147
867.055	22063
867.186	22154
867.317	22021
867.448	21915
867.579	22048
867.71	21968
867.841	21854
867.972	22051
868.103	22032
868.233	21991
868.364	22063
868.495	22124
868.625	22303
868.756	22493
868.886	22268
869.017	22295
869.147	22398
869.278	22455
869.408	22333
869.539	22219
869.669	22375
869.799	22268
869.929	22413
870.06	22447
870.19	22573
870.32	22710
870.45	22645
870.58	22588
870.71	22816
870.84	22683
870.97	22725
871.1	22782
871.23	22736
871.36	22885
871.489	22713
871.619	22957
871.749	22744
871.879	22843
872.008	23037
872.138	22892
872.267	22915
872.397	22725
872.526	22744
872.656	22687
872.785	22748
872.915	22991
873.044	22980
873.173	22923
873.303	23060
873.432	22995
873.561	23136
873.69	22942
873.819	22896
873.948	23033
874.077	22949
874.206	22850
874.335	22915
874.464	23014
874.593	23162
874.722	23132
874.851	23109
874.979	23048
875.108	23204
875.237	23086
875.365	22995
875.494	23151
875.623	23197
875.751	23056
875.88	23132
876.008	23334
876.136	23212
876.265	23551
876.393	23691
876.521	23539
876.65	23657
876.778	23478
876.906	23410
877.034	23334
877.162	23505
877.29	23535
877.418	23372
877.546	23406
877.674	23410
877.802	23364
877.93	23345
878.058	23414
878.185	23364
878.313	23303
878.441	23440
878.568	23299
878.696	23299
878.824	23425
878.951	23516
879.079	23638
879.206	23764
879.333	23596
879.461	23402
879.588	23539
879.715	23573
879.842	23752
879.97	23440
880.097	23280
880.224	23356
880.351	23227
880.478	23235
880.605	23227
880.732	23227
880.859	23573
880.986	23269
881.112	23379
881.239	23193
881.366	23003
881.493	22854
881.619	22877
881.746	22873
881.872	22881
881.999	22869
882.125	22816
882.252	22866
882.378	22801
882.505	22896
882.631	22675
882.757	22660
882.883	22561
883.01	22653
883.136	22417
883.262	22367
883.388	22360
883.514	22508
883.64	22531
883.766	22367
883.892	22341
884.018	22375
884.143	22512
884.269	22702
884.395	22257
884.52	22112
884.646	22162
884.772	22109
884.897	21960
885.023	22215
885.148	22204
885.274	22181
885.399	22192
885.524	22276
885.65	22124
885.775	22143
885.9	22025
886.025	22318
886.15	22238
886.275	22105
886.4	22131
886.525	22074
886.65	22059
886.775	22090
886.9	22188
887.025	22306
887.149	22139
887.274	21861
887.399	21987
887.523	21956
887.648	21819
887.773	21842
887.897	21991
888.021	21941
888.146	21869
888.27	22044
888.395	22090
888.519	21903
888.643	21766
888.767	22040
888.891	21911
889.015	21698
889.139	21698
889.263	21709
889.387	21812
889.511	21956
889.635	21762
889.759	21701
889.883	21561
890.006	21739
890.13	21850
890.254	21648
890.377	21557
890.501	21374
890.624	21443
890.748	21507
890.871	21393
890.995	21245
891.118	21165
891.241	21249
891.364	21241
891.488	21363
891.611	21294
891.734	21363
891.857	21367
891.98	21291
892.103	21367
892.226	21161
892.349	21081
892.471	21001
892.594	21135
892.717	21264
892.839	21085
892.962	21218
893.085	21131
893.207	21123
893.33	20933
893.452	21055
893.575	21192
893.697	21123
893.819	21298
893.941	21313
894.064	21233
894.186	21070
894.308	21081
894.43	21157
894.552	21146
894.674	21218
894.796	20963
894.918	21127
895.04	21112
895.161	21154
895.283	21116
895.405	21096
895.526	21199
895.648	21047
895.769	21108
895.891	21150
896.012	21237
896.134	21150
896.255	21081
896.376	21154
896.498	21055
896.619	21116
896.74	21032
896.861	21165
896.982	21511
897.103	21561
897.224	21401
897.345	21332
897.466	21184
897.587	21332
897.708	21363
897.828	21272
897.949	21146
898.07	21112
898.19	21207
898.311	21268
898.431	21310
898.552	21233
898.672	21340
898.792	21416
898.913	21294
899.033	21241
899.153	21066
899.273	20971
899.393	20956
899.513	21089
899.633	20982
899.753	21028
899.873	20933
899.993	21066
900.113	20804
900.232	21096
900.352	20979
900.472	20941
900.591	20864
900.711	20842
900.83	20823
900.95	20826
901.069	20845
901.189	20731
901.308	20423
901.427	20298
901.546	20393
901.665	20400
901.784	20324
901.904	20301
902.023	20263
902.141	20073
902.26	19993
902.379	19940
902.498	19890
902.617	19837
902.735	19856
902.854	19807
902.973	19830
903.091	19559
903.21	19662
903.328	19468
903.446	19449
903.565	19457
903.683	19320
903.801	19152
903.919	19266
904.038	19247
904.156	19133
904.274	19247
904.392	19038
904.51	19084
904.627	19076
904.745	19099
904.863	19126
904.981	18905
905.098	18817
905.216	18760
905.334	18738
905.451	18821
905.569	18791
905.686	18734
905.803	18772
905.921	18498
906.038	18627
906.155	18486
906.272	18426
906.389	18414
906.506	18399
906.623	18369
906.74	18289
906.857	18224
906.974	18201
907.091	18315
907.208	18342
907.324	18327
907.441	18125
907.557	18110
907.674	18026
907.79	18003
907.907	17912
908.023	17988
908.139	18022
908.256	17813
908.372	17920
908.488	17885
908.604	17726
908.72	17726
908.836	17649
908.952	17589
909.068	17653
909.184	17786
909.3	17737
909.415	17638
909.531	17665
909.647	17566
909.762	17383
909.878	17376
909.993	17490
910.108	17417
910.224	17303
910.339	17322
910.454	17429
910.57	17193
910.685	17162
910.8	17429
910.915	17421
911.03	17083
911.145	16995
911.259	16896
911.374	16965
911.489	16873
911.604	16949
911.718	16694
911.833	16748
911.947	16637
912.062	16550
912.176	16717
912.291	16752
912.405	16637
912.519	16881
912.633	16957
912.748	16782
912.862	16702
912.976	16516
913.09	16451
913.204	16546
913.318	16500
913.431	16588
913.545	16531
913.659	16592
913.772	16489
913.886	16386
914	16363
914.113	16390
914.226	16516
914.34	16314
914.453	16219
914.566	16352
914.68	16158
914.793	16200
914.906	16002
915.019	15831
915.132	15854
915.245	15873
915.358	15907
915.47	15964
915.583	15949
915.696	15812
915.809	16059
915.921	16006
916.034	15789
916.146	15808
916.259	15800
916.371	15903
916.483	15774
916.595	15679
916.708	15720
916.82	15743
916.932	15667
917.044	15793
917.156	15698
917.268	15545
917.38	15492
917.491	15553
917.603	15504
917.715	15542
917.826	15591
917.938	15393
918.049	15367
918.161	15447
918.272	15458
918.384	15595
918.495	15469
918.606	15291
918.717	15214
918.828	15302
918.939	15325
919.05	15116
919.161	15192
919.272	15150
919.383	15180
919.494	15214
919.604	15454
919.715	15214
919.826	15017
919.936	15272
920.047	15203
920.157	15180
920.267	15431
920.378	15157
920.488	15146
920.598	15355
920.708	15637
920.818	15279
920.928	15363
921.038	15359
921.148	15355
921.258	15169
921.368	15100
921.477	14952
921.587	14990
921.697	14724
921.806	14921
921.916	14727
922.025	14606
922.134	14610
922.244	14560
922.353	14682
922.462	14393
922.571	14461
922.68	14161
922.789	14191
922.898	14229
923.007	14168
923.116	14237
923.224	14199
923.333	14119
923.442	14103
923.55	14031
923.659	14016
923.767	14073
923.876	14008
923.984	14043
924.092	13871
924.201	13841
924.309	13932
924.417	13993
924.525	13761
924.633	13860
924.741	14731
924.849	13609
924.956	13803
925.064	13670
925.172	13544
925.279	13616
925.387	13647
925.494	13647
925.602	13753
925.709	13643
925.816	13559
925.924	13594
926.031	13510
926.138	13468
926.245	13578
926.352	13430
926.459	13552
926.566	13575
926.673	13476
926.779	13354
926.886	13324
926.993	13187
927.099	13160
927.206	13118
927.312	13114
927.419	13221
927.525	13107
927.631	13126
927.737	12958
927.843	12920
927.95	12882
928.056	12905
928.162	12939
928.267	13027
928.373	13556
928.479	12913
928.585	12692
928.69	12878
928.796	12897
928.901	12825
929.007	12673
929.112	12787
929.218	12757
929.323	12753
929.428	12627
929.533	12814
929.638	12486
929.743	12597
929.848	12612
929.953	12616
930.058	12391
930.163	12209
930.267	12315
930.372	12509
930.477	12308
930.581	12525
930.685	12308
930.79	12205
930.894	12190
930.998	12243
931.103	12334
931.207	11859
931.311	11794
931.415	11745
931.519	11562
931.623	11493
