Data from test_V78500241_3546.txt Node
Date: Fri Mar 25 16:06:21 CST 2022
User: usil
Spectrometer: V785-0024
Trigger mode: 0
Integration Time (sec): 4.000000E-1
Scans to average: 1
Nonlinearity correction enabled: false
Boxcar width: 0
Storing dark spectrum: false
XAxis mode: Wavelengths
Number of Pixels in Spectrum: 1024
>>>>>Begin Spectral Data<<<<<
801.071	28881
801.214	28911
801.356	28729
801.499	28554
801.641	28599
801.783	28363
801.926	28519
802.068	28557
802.211	28436
802.353	28493
802.496	28169
802.638	28344
802.78	28284
802.923	28090
803.065	27953
803.208	28185
803.35	28249
803.492	28253
803.635	28489
803.777	28447
803.919	28550
804.061	28656
804.204	28527
804.346	28375
804.488	28291
804.63	28367
804.773	28352
804.915	28535
805.057	28489
805.199	28325
805.341	28577
805.483	28573
805.626	28767
805.768	28546
805.91	28592
806.052	28584
806.194	28500
806.336	28664
806.478	28672
806.62	28599
806.762	28733
806.904	28923
807.046	29170
807.188	29044
807.33	29090
807.472	29018
807.614	29083
807.756	29098
807.898	28953
808.04	28820
808.182	28923
808.324	29090
808.465	28930
808.607	29242
808.749	29345
808.891	29368
809.033	29334
809.174	29406
809.316	29337
809.458	29379
809.6	29261
809.741	29387
809.883	29562
810.025	29619
810.166	29638
810.308	29600
810.45	29467
810.591	29638
810.733	29452
810.875	29349
811.016	29280
811.158	29231
811.299	29463
811.441	29452
811.582	29570
811.724	29452
811.865	29269
812.007	29242
812.148	29299
812.29	29387
812.431	29543
812.573	29520
812.714	29893
812.855	29866
812.997	29980
813.138	30114
813.279	29927
813.421	29783
813.562	29794
813.703	29680
813.845	29611
813.986	29216
814.127	28972
814.268	29018
814.41	29044
814.551	29033
814.692	29098
814.833	28968
814.974	29010
815.115	29181
815.256	29010
815.397	28999
815.539	28938
815.68	28911
815.821	28782
815.962	28995
816.103	28702
816.244	28744
816.385	28672
816.526	28645
816.666	28360
816.807	28398
816.948	28440
817.089	28584
817.23	28318
817.371	28341
817.512	28173
817.653	28405
817.793	28303
817.934	28261
818.075	28390
818.216	28329
818.356	28360
818.497	28325
818.638	28143
818.778	28211
818.919	28162
819.06	28188
819.2	28363
819.341	28413
819.481	28440
819.622	28580
819.762	28706
819.903	28470
820.043	28580
820.184	28596
820.324	28580
820.465	28736
820.605	28538
820.746	28519
820.886	28287
821.026	28428
821.167	28322
821.307	28451
821.447	28405
821.588	28390
821.728	28143
821.868	27994
822.008	27994
822.149	27648
822.289	27781
822.429	27648
822.569	27667
822.709	27580
822.849	27466
822.99	27382
823.13	27401
823.27	27336
823.41	27199
823.55	27268
823.69	27321
823.83	27165
823.97	27142
824.11	26872
824.25	27036
824.389	26910
824.529	27047
824.669	26979
824.809	27161
824.949	27093
825.089	27135
825.228	27028
825.368	26929
825.508	26872
825.648	26963
825.787	26929
825.927	26933
826.067	26815
826.206	26948
826.346	27055
826.485	26910
826.625	26861
826.765	27005
826.904	26910
827.044	26663
827.183	26674
827.323	26632
827.462	26689
827.601	26568
827.741	26511
827.88	26667
828.02	26640
828.159	26533
828.298	26648
828.437	26735
828.577	26511
828.716	26845
828.855	26587
828.994	26355
829.134	26301
829.273	26343
829.412	26202
829.551	26313
829.69	26431
829.829	26377
829.968	26248
830.107	26385
830.246	26271
830.385	26336
830.524	26180
830.663	26168
830.802	26054
830.941	25909
831.08	26001
831.219	26073
831.357	26005
831.496	26122
831.635	25864
831.774	25909
831.913	25784
832.051	25811
832.19	25849
832.329	25643
832.467	25525
832.606	25548
832.744	25567
832.883	25639
833.022	25567
833.16	25681
833.299	25647
833.437	25567
833.576	25639
833.714	25632
833.852	25715
833.991	25757
834.129	25677
834.267	25723
834.406	25514
834.544	25616
834.682	25651
834.821	25525
834.959	25871
835.097	25491
835.235	25696
835.373	25616
835.511	25616
835.65	25590
835.788	25438
835.926	25343
836.064	25240
836.202	25331
836.34	25468
836.478	25628
836.615	25422
836.753	25518
836.891	25438
837.029	25544
837.167	25388
837.305	25240
837.443	25499
837.58	25373
837.718	25381
837.856	25251
837.993	25164
838.131	25244
838.269	25114
838.406	25213
838.544	25110
838.681	24894
838.819	24920
838.956	24798
839.094	24806
839.231	24844
839.369	24852
839.506	25217
839.643	24958
839.781	24795
839.918	24757
840.055	24764
840.193	24696
840.33	24570
840.467	24654
840.604	24677
840.742	25072
840.879	24464
841.016	24570
841.153	24540
841.29	24829
841.427	24616
841.564	24673
841.701	24627
841.838	24532
841.975	24521
842.112	24429
842.249	24498
842.385	24372
842.522	24722
842.659	24433
842.796	24429
842.933	24338
843.069	24311
843.206	24407
843.343	24505
843.479	24391
843.616	24475
843.752	24041
843.889	24289
844.025	24205
844.162	24155
844.298	24315
844.435	24182
844.571	24155
844.708	24311
844.844	24338
844.98	24323
845.117	24388
845.253	24045
845.389	24045
845.525	24186
845.661	24057
845.798	23882
845.934	23931
846.07	23935
846.206	24049
846.342	24034
846.478	24007
846.614	23786
846.75	23722
846.886	23657
847.022	23699
847.158	23672
847.294	23592
847.429	23691
847.565	23676
847.701	24022
847.837	23455
847.972	23486
848.108	23638
848.244	23520
848.379	23353
848.515	23246
848.65	23170
848.786	23307
848.921	23330
849.057	23448
849.192	23429
849.328	23326
849.463	23356
849.598	23269
849.734	23197
849.869	23075
850.004	23147
850.14	23105
850.275	23006
850.41	23044
850.545	22927
850.68	23041
850.815	23121
850.95	23094
851.085	23227
851.22	23185
851.355	23067
851.49	23006
851.625	23003
851.76	22976
851.895	23010
852.03	23033
852.165	22961
852.299	23060
852.434	23220
852.569	23098
852.703	22987
852.838	23113
852.973	23174
853.107	23162
853.242	23003
853.376	22828
853.511	22733
853.645	22831
853.78	22991
853.914	22854
854.048	22854
854.183	22771
854.317	22847
854.451	22961
854.585	22809
854.72	22847
854.854	22839
854.988	22767
855.122	22729
855.256	22892
855.39	22847
855.524	22930
855.658	22858
855.792	22858
855.926	22847
856.06	22930
856.194	22995
856.327	22957
856.461	22854
856.595	22771
856.729	22771
856.862	22904
856.996	22839
857.13	22847
857.263	22980
857.397	22953
857.53	22702
857.664	22866
857.797	22961
857.931	23033
858.064	22850
858.197	22904
858.331	22839
858.464	22786
858.597	22755
858.731	22881
858.864	22816
858.997	22885
859.13	22961
859.263	22938
859.396	23006
859.529	22797
859.662	22816
859.795	22839
859.928	22763
860.061	22957
860.194	23060
860.327	22801
860.46	22854
860.592	22885
860.725	22946
860.858	22919
860.99	22771
861.123	22797
861.256	22774
861.388	22831
861.521	23474
861.653	22637
861.786	22649
861.918	22721
862.05	22706
862.183	22767
862.315	22801
862.447	22847
862.58	22809
862.712	22603
862.844	22531
862.976	22729
863.108	22603
863.24	23086
863.372	22580
863.504	22557
863.636	22611
863.768	22599
863.9	22554
864.032	22504
864.164	22561
864.296	22531
864.428	22713
864.559	22580
864.691	22577
864.823	22516
864.954	22462
865.086	22504
865.217	22398
865.349	22348
865.48	22443
865.612	22402
865.743	22546
865.875	22615
866.006	22405
866.137	22500
866.269	22474
866.4	22333
866.531	22280
866.662	22318
866.793	22390
866.924	22352
867.055	22424
867.186	22356
867.317	22291
867.448	22185
867.579	22348
867.71	22139
867.841	22249
867.972	22443
868.103	22303
868.233	22322
868.364	22333
868.495	22516
868.625	22660
868.756	22584
868.886	22485
869.017	22634
869.147	22755
869.278	22668
869.408	22637
869.539	22561
869.669	22664
869.799	22618
869.929	22668
870.06	22790
870.19	23025
870.32	22759
870.45	22953
870.58	23075
870.71	23121
870.84	23121
870.97	22995
871.1	22961
871.23	23174
871.36	23341
871.489	23098
871.619	23151
871.749	23121
871.879	23178
872.008	23197
872.138	23143
872.267	23265
872.397	23037
872.526	23048
872.656	23025
872.785	23060
872.915	23280
873.044	23212
873.173	23258
873.303	23204
873.432	23242
873.561	23349
873.69	23273
873.819	23265
873.948	23250
874.077	23231
874.206	23227
874.335	23246
874.464	23307
874.593	23478
874.722	23360
874.851	23467
874.979	23440
875.108	23539
875.237	23379
875.365	23356
875.494	23410
875.623	23486
875.751	23334
875.88	23490
876.008	23486
876.136	23592
876.265	23923
876.393	23954
876.521	23870
876.65	23977
876.778	23764
876.906	23745
877.034	23680
877.162	23798
877.29	23741
877.418	23840
877.546	23893
877.674	23733
877.802	23714
877.93	23668
878.058	23756
878.185	23638
878.313	23638
878.441	23699
878.568	23615
878.696	23699
878.824	23779
878.951	23729
879.079	23931
879.206	24110
879.333	23999
879.461	23798
879.588	23828
879.715	23882
879.842	24041
879.97	23863
880.097	23615
880.224	23600
880.351	23657
880.478	23512
880.605	23562
880.732	23634
880.859	23760
880.986	23642
881.112	23474
881.239	23512
881.366	23269
881.493	23204
881.619	23128
881.746	23121
881.872	23143
881.999	23102
882.125	23052
882.252	23174
882.378	23056
882.505	23178
882.631	22953
882.757	22976
882.883	22858
883.01	22915
883.136	22679
883.262	22573
883.388	22630
883.514	22805
883.64	22733
883.766	22675
883.892	22611
884.018	22641
884.143	22717
884.269	22744
884.395	22516
884.52	22443
884.646	22360
884.772	22379
884.897	22344
885.023	22432
885.148	22668
885.274	22615
885.399	22512
885.524	22367
885.65	22413
885.775	22455
885.9	22573
886.025	22519
886.15	22489
886.275	22363
886.4	22432
886.525	22272
886.65	22295
886.775	22413
886.9	22421
887.025	22531
887.149	22386
887.274	22105
887.399	22116
887.523	22192
887.648	22116
887.773	21983
887.897	22242
888.021	22238
888.146	22097
888.27	22276
888.395	22188
888.519	22135
888.643	22162
888.767	22230
888.891	21998
889.015	22048
889.139	22044
889.263	21918
889.387	22086
889.511	22139
889.635	22147
889.759	21880
889.883	21850
890.006	22055
890.13	22124
890.254	21926
890.377	21789
890.501	21755
890.624	21587
890.748	21755
890.871	21656
890.995	21504
891.118	21408
891.241	21595
891.364	21549
891.488	21553
891.611	21526
891.734	21538
891.857	21496
891.98	21481
892.103	21545
892.226	21564
892.349	21466
892.471	21348
892.594	21424
892.717	21443
892.839	21359
892.962	21462
893.085	21549
893.207	21355
893.33	21325
893.452	21287
893.575	21435
893.697	21291
893.819	21435
893.941	21557
894.064	21564
894.186	21462
894.308	21279
894.43	21500
894.552	21595
894.674	21370
894.796	21336
894.918	21230
895.04	21329
895.161	21481
895.283	21405
895.405	21469
895.526	21256
895.648	21374
895.769	21481
895.891	21306
896.012	21485
896.134	21416
896.255	21340
896.376	21370
896.498	21389
896.619	21504
896.74	21310
896.861	21374
896.982	21644
897.103	21705
897.224	21557
897.345	21644
897.466	21454
897.587	21656
897.708	21751
897.828	21641
897.949	21488
898.07	21408
898.19	21523
898.311	21747
898.431	21496
898.552	21367
898.672	21549
898.792	21682
898.913	21545
899.033	21564
899.153	21412
899.273	21241
899.393	21211
899.513	21252
899.633	21321
899.753	21275
899.873	21169
899.993	21241
900.113	21165
900.232	21161
900.352	21184
900.472	21154
900.591	20960
900.711	21081
900.83	20960
900.95	21203
901.069	21173
901.189	20921
901.308	20705
901.427	20636
901.546	20648
901.665	20568
901.784	20667
901.904	20499
902.023	20324
902.141	20248
902.26	20168
902.379	20195
902.498	20164
902.617	20054
902.735	20199
902.854	20016
902.973	19970
903.091	19894
903.21	19917
903.328	19780
903.446	19719
903.565	19601
903.683	19575
903.801	19426
903.919	19578
904.038	19491
904.156	19339
904.274	19381
904.392	19259
904.51	19304
904.627	19183
904.745	19225
904.863	19373
904.981	19114
905.098	18939
905.216	18977
905.334	18932
905.451	19000
905.569	18996
905.686	19053
905.803	18840
905.921	18837
906.038	18920
906.155	18764
906.272	18711
906.389	18646
906.506	18525
906.623	18563
906.74	18563
906.857	18448
906.974	18388
907.091	18601
907.208	18669
907.324	18456
907.441	18422
907.557	18319
907.674	18216
907.79	18228
907.907	18167
908.023	18194
908.139	18266
908.256	18205
908.372	18079
908.488	18076
908.604	17923
908.72	17984
908.836	17923
908.952	17946
909.068	17889
909.184	18167
909.3	17935
909.415	18022
909.531	18068
909.647	17718
909.762	17528
909.878	17539
909.993	17718
910.108	17615
910.224	17566
910.339	17581
910.454	17501
910.57	17410
910.685	17406
910.8	17562
910.915	17497
911.03	17360
911.145	17296
911.259	17227
911.374	17326
911.489	17045
911.604	16999
911.718	16904
911.833	16987
911.947	16889
912.062	16801
912.176	16968
912.291	17022
912.405	16919
912.519	17193
912.633	17064
912.748	16900
912.862	16885
912.976	16774
913.09	16660
913.204	16645
913.318	16637
913.431	16801
913.545	16771
913.659	16793
913.772	16618
913.886	16569
914	16538
914.113	16554
914.226	16729
914.34	16675
914.453	16390
914.566	16603
914.68	16489
914.793	16405
914.906	16185
915.019	16051
915.132	16055
915.245	16048
915.358	16150
915.47	16040
915.583	16078
915.696	16173
915.809	16261
915.921	16139
916.034	16021
916.146	16002
916.259	16010
916.371	16048
916.483	16017
916.595	15956
916.708	15926
916.82	15979
916.932	15915
917.044	15911
917.156	15838
917.268	15835
917.38	15888
917.491	15671
917.603	15698
917.715	15827
917.826	15899
917.938	15671
918.049	15591
918.161	15648
918.272	15800
918.384	15819
918.495	15751
918.606	15477
918.717	15458
918.828	15447
918.939	15428
919.05	15355
919.161	15401
919.272	15230
919.383	15340
919.494	15542
919.604	15614
919.715	15469
919.826	15416
919.936	15469
920.047	15477
920.157	15424
920.267	15682
920.378	15401
920.488	15393
920.598	15584
920.708	15747
920.818	15564
920.928	15450
921.038	15732
921.148	15682
921.258	15386
921.368	15260
921.477	15013
921.587	15085
921.697	14990
921.806	15070
921.916	15020
922.025	14849
922.134	14792
922.244	14811
922.353	14796
922.462	14705
922.571	14610
922.68	14347
922.789	14366
922.898	14320
923.007	14400
923.116	14404
923.224	14446
923.333	14324
923.442	14271
923.55	14271
923.659	14332
923.767	14263
923.876	14183
923.984	14252
924.092	14161
924.201	14237
924.309	14096
924.417	14020
924.525	14081
924.633	14039
924.741	14967
924.849	13822
924.956	14008
925.064	13780
925.172	13795
925.279	13879
925.387	13780
925.494	13738
925.602	13890
925.709	13788
925.816	13586
925.924	13715
926.031	13738
926.138	13708
926.245	13761
926.352	13571
926.459	13731
926.566	13788
926.673	13681
926.779	13597
926.886	13567
926.993	13331
927.099	13331
927.206	13282
927.312	13198
927.419	13362
927.525	13228
927.631	13244
927.737	13168
927.843	13084
927.95	12970
928.056	13187
928.162	13202
928.267	13122
928.373	13799
928.479	13240
928.585	12924
928.69	13118
928.796	13061
928.901	13046
929.007	12802
929.112	12989
929.218	12981
929.323	12779
929.428	12798
929.533	12966
929.638	12814
929.743	12764
929.848	12768
929.953	12806
930.058	12696
930.163	12544
930.267	12498
930.372	12593
930.477	12403
930.581	12711
930.685	12566
930.79	12372
930.894	12464
930.998	12205
931.103	12483
931.207	12087
931.311	12049
931.415	11923
931.519	11813
931.623	11703
