Data from test_V78500241_2483.txt Node
Date: Fri Mar 25 15:59:00 CST 2022
User: usil
Spectrometer: V785-0024
Trigger mode: 0
Integration Time (sec): 4.000000E-1
Scans to average: 1
Nonlinearity correction enabled: false
Boxcar width: 0
Storing dark spectrum: false
XAxis mode: Wavelengths
Number of Pixels in Spectrum: 1024
>>>>>Begin Spectral Data<<<<<
801.071	28299
801.214	28291
801.356	28150
801.499	28086
801.641	27914
801.783	27850
801.926	28002
802.068	28051
802.211	27914
802.353	27762
802.496	27660
802.638	27622
802.78	27458
802.923	27561
803.065	27447
803.208	27504
803.35	27591
803.492	27652
803.635	27770
803.777	27732
803.919	27812
804.061	27968
804.204	27808
804.346	27884
804.488	27732
804.63	27774
804.773	27648
804.915	27838
805.057	27854
805.199	27907
805.341	27846
805.483	27972
805.626	27876
805.768	27926
805.91	27979
806.052	28090
806.194	27800
806.336	28219
806.478	27991
806.62	27991
806.762	28051
806.904	28352
807.046	28493
807.188	28390
807.33	28455
807.472	28504
807.614	28295
807.756	28306
807.898	28261
808.04	28246
808.182	28131
808.324	28280
808.465	28371
808.607	28550
808.749	28550
808.891	28653
809.033	28763
809.174	28748
809.316	28569
809.458	28660
809.6	28459
809.741	28691
809.883	28816
810.025	28877
810.166	28828
810.308	28946
810.45	28908
810.591	28854
810.733	28630
810.875	28618
811.016	28500
811.158	28573
811.299	28691
811.441	28759
811.582	28641
811.724	28664
811.865	28668
812.007	28573
812.148	28634
812.29	28721
812.431	28744
812.573	28885
812.714	29067
812.855	29117
812.997	29326
813.138	29292
813.279	29292
813.421	29193
813.562	29197
813.703	28961
813.845	28736
813.986	28577
814.127	28371
814.268	28386
814.41	28238
814.551	28447
814.692	28276
814.833	28204
814.974	28322
815.115	28352
815.256	28181
815.397	28128
815.539	28192
815.68	28097
815.821	28036
815.962	28124
816.103	28276
816.244	27930
816.385	27766
816.526	27911
816.666	27846
816.807	27701
816.948	27762
817.089	27762
817.23	27823
817.371	27610
817.512	27496
817.653	27614
817.793	27698
817.934	27618
818.075	27526
818.216	27629
818.356	27652
818.497	27431
818.638	27268
818.778	27416
818.919	27321
819.06	27416
819.2	27500
819.341	27564
819.481	27583
819.622	27823
819.762	27899
819.903	27964
820.043	27827
820.184	27789
820.324	27766
820.465	27770
820.605	27724
820.746	27778
820.886	27439
821.026	27679
821.167	27667
821.307	27793
821.447	27606
821.588	27420
821.728	27332
821.868	27233
822.008	27108
822.149	27154
822.289	27039
822.429	26895
822.569	26765
822.709	26769
822.849	26663
822.99	26758
823.13	26533
823.27	26587
823.41	26579
823.55	26324
823.69	26530
823.83	26450
823.97	26381
824.11	26290
824.25	26202
824.389	26210
824.529	26305
824.669	26237
824.809	26362
824.949	26370
825.089	26301
825.228	26100
825.368	26008
825.508	26035
825.648	26100
825.787	26248
825.927	26206
826.067	25986
826.206	26035
826.346	26145
826.485	26043
826.625	26096
826.765	26275
826.904	26180
827.044	25932
827.183	25765
827.323	25753
827.462	25936
827.601	25860
827.741	25837
827.88	25860
828.02	25628
828.159	25852
828.298	25890
828.437	25887
828.577	25731
828.716	25845
828.855	25708
828.994	25628
829.134	25537
829.273	25525
829.412	25476
829.551	25354
829.69	25624
829.829	25537
829.968	25632
830.107	25567
830.246	25582
830.385	25457
830.524	25316
830.663	25304
830.802	25312
830.941	25114
831.08	25244
831.219	25133
831.357	25175
831.496	25384
831.635	25141
831.774	25099
831.913	24878
832.051	25069
832.19	24867
832.329	24935
832.467	24753
832.606	24741
832.744	24768
832.883	24757
833.022	24555
833.16	24837
833.299	24962
833.437	24719
833.576	24962
833.714	24795
833.852	24810
833.991	24920
834.129	24833
834.267	24901
834.406	24882
834.544	24909
834.682	24890
834.821	24795
834.959	24951
835.097	24688
835.235	24913
835.373	24745
835.511	24856
835.65	24722
835.788	24570
835.926	24764
836.064	24578
836.202	24616
836.34	24673
836.478	24833
836.615	24623
836.753	24650
836.891	24825
837.029	24570
837.167	24544
837.305	24365
837.443	24502
837.58	24422
837.718	24582
837.856	24471
837.993	24494
838.131	24566
838.269	24380
838.406	24357
838.544	24296
838.681	24072
838.819	24011
838.956	24007
839.094	23999
839.231	23961
839.369	24144
839.506	24319
839.643	24251
839.781	23969
839.918	24034
840.055	24022
840.193	24022
840.33	23920
840.467	23931
840.604	23901
840.742	24285
840.879	23699
841.016	23885
841.153	23676
841.29	23977
841.427	23760
841.564	23889
841.701	23847
841.838	23851
841.975	23863
842.112	23779
842.249	23703
842.385	23543
842.522	23821
842.659	23665
842.796	23611
842.933	23703
843.069	23627
843.206	23524
843.343	23710
843.479	23638
843.616	23611
843.752	23376
843.889	23414
844.025	23710
844.162	23299
844.298	23520
844.435	23353
844.571	23429
844.708	23474
844.844	23608
844.98	23440
845.117	23493
845.253	23398
845.389	23360
845.525	23421
845.661	23216
845.798	23189
845.934	23227
846.07	23140
846.206	23166
846.342	23258
846.478	23132
846.614	23033
846.75	22847
846.886	22843
847.022	22904
847.158	22801
847.294	22892
847.429	22843
847.565	22862
847.701	23208
847.837	22542
847.972	22497
848.108	22774
848.244	22668
848.379	22379
848.515	22428
848.65	22402
848.786	22527
848.921	22504
849.057	22550
849.192	22584
849.328	22527
849.463	22481
849.598	22402
849.734	22371
849.869	22265
850.004	22230
850.14	22211
850.275	22265
850.41	22207
850.545	22246
850.68	22284
850.815	22333
850.95	22211
851.085	22398
851.22	22333
851.355	22207
851.49	22200
851.625	22200
851.76	22348
851.895	22211
852.03	22078
852.165	22257
852.299	22329
852.434	22272
852.569	22246
852.703	22131
852.838	22226
852.973	22333
853.107	22295
853.242	22154
853.376	22082
853.511	21979
853.645	22051
853.78	22135
853.914	22086
854.048	22017
854.183	22185
854.317	22131
854.451	22226
854.585	22192
854.72	22051
854.854	22150
854.988	21956
855.122	22158
855.256	21930
855.39	22090
855.524	22070
855.658	22055
855.792	22040
855.926	22143
856.06	22082
856.194	22226
856.327	22036
856.461	21972
856.595	21949
856.729	22078
856.862	22177
856.996	22093
857.13	22131
857.263	22223
857.397	22188
857.53	22238
857.664	22131
857.797	22082
857.931	22284
858.064	22067
858.197	22291
858.331	22120
858.464	22120
858.597	22044
858.731	22067
858.864	22025
858.997	22078
859.13	22086
859.263	22032
859.396	22139
859.529	22059
859.662	21968
859.795	22002
859.928	22070
860.061	22200
860.194	22322
860.327	22082
860.46	22101
860.592	22128
860.725	22200
860.858	22230
860.99	22131
861.123	22010
861.256	22048
861.388	22078
861.521	22946
861.653	21857
861.786	21812
861.918	21880
862.05	21953
862.183	21991
862.315	22006
862.447	22101
862.58	22013
862.712	21762
862.844	21797
862.976	21854
863.108	21797
863.24	22158
863.372	21682
863.504	21781
863.636	21785
863.768	21876
863.9	21949
864.032	21679
864.164	21793
864.296	21785
864.428	21907
864.559	21739
864.691	21850
864.823	21793
864.954	21774
865.086	21785
865.217	21606
865.349	21583
865.48	21694
865.612	21648
865.743	21888
865.875	21701
866.006	21736
866.137	21595
866.269	21709
866.4	21572
866.531	21568
866.662	21583
866.793	21572
866.924	21435
867.055	21652
867.186	21671
867.317	21561
867.448	21526
867.579	21595
867.71	21477
867.841	21504
867.972	21580
868.103	21663
868.233	21580
868.364	21538
868.495	21629
868.625	21808
868.756	21922
868.886	21785
869.017	21717
869.147	21972
869.278	22010
869.408	21766
869.539	21895
869.669	22021
869.799	21998
869.929	21930
870.06	21899
870.19	22097
870.32	22135
870.45	22131
870.58	22265
870.71	22375
870.84	22325
870.97	22207
871.1	22257
871.23	22436
871.36	22455
871.489	22204
871.619	22402
871.749	22538
871.879	22424
872.008	22512
872.138	22489
872.267	22451
872.397	22238
872.526	22276
872.656	22188
872.785	22284
872.915	22371
873.044	22569
873.173	22508
873.303	22413
873.432	22577
873.561	22573
873.69	22462
873.819	22504
873.948	22493
874.077	22478
874.206	22367
874.335	22409
874.464	22573
874.593	22763
874.722	22672
874.851	22843
874.979	22744
875.108	22687
875.237	22790
875.365	22561
875.494	22653
875.623	22675
875.751	22630
875.88	22710
876.008	22607
876.136	22850
876.265	23067
876.393	23128
876.521	23223
876.65	23227
876.778	23071
876.906	23044
877.034	22968
877.162	22957
877.29	23025
877.418	22980
877.546	23083
877.674	22934
877.802	22949
877.93	23052
878.058	23006
878.185	22946
878.313	22934
878.441	23067
878.568	22831
878.696	22877
878.824	23064
878.951	23086
879.079	23155
879.206	23349
879.333	23273
879.461	23079
879.588	23197
879.715	23128
879.842	23383
879.97	23056
880.097	22862
880.224	22896
880.351	22839
880.478	22713
880.605	22812
880.732	22831
880.859	23067
880.986	22889
881.112	22801
881.239	22755
881.366	22519
881.493	22493
881.619	22504
881.746	22303
881.872	22436
881.999	22402
882.125	22261
882.252	22493
882.378	22386
882.505	22542
882.631	22249
882.757	22109
882.883	22120
883.01	22067
883.136	22040
883.262	21911
883.388	21972
883.514	22192
883.64	22090
883.766	22059
883.892	21895
884.018	21831
884.143	22013
884.269	22192
884.395	21861
884.52	21625
884.646	21842
884.772	21739
884.897	21568
885.023	21755
885.148	21728
885.274	21899
885.399	21823
885.524	21686
885.65	21827
885.775	21774
885.9	21762
886.025	21850
886.15	21797
886.275	21701
886.4	21488
886.525	21618
886.65	21580
886.775	21599
886.9	21808
887.025	21850
887.149	21671
887.274	21511
887.399	21553
887.523	21587
887.648	21367
887.773	21519
887.897	21515
888.021	21473
888.146	21443
888.27	21652
888.395	21469
888.519	21511
888.643	21553
888.767	21515
888.891	21313
889.015	21142
889.139	21393
889.263	21199
889.387	21378
889.511	21378
889.635	21412
889.759	21226
889.883	21131
890.006	21260
890.13	21363
890.254	21283
890.377	21348
890.501	20990
890.624	21043
890.748	21188
890.871	20811
890.995	20765
891.118	20788
891.241	20853
891.364	20902
891.488	20891
891.611	20804
891.734	20895
891.857	20914
891.98	20724
892.103	20910
892.226	20883
892.349	20773
892.471	20773
892.594	20853
892.717	20838
892.839	20724
892.962	20720
893.085	20857
893.207	20739
893.33	20670
893.452	20712
893.575	20762
893.697	20777
893.819	20902
893.941	20895
894.064	20800
894.186	20731
894.308	20712
894.43	20769
894.552	20849
894.674	20724
894.796	20720
894.918	20743
895.04	20686
895.161	20826
895.283	20830
895.405	20697
895.526	20712
895.648	20765
895.769	20807
895.891	20655
896.012	20823
896.134	20880
896.255	20731
896.376	20693
896.498	20648
896.619	20735
896.74	20708
896.861	20758
896.982	21017
897.103	21104
897.224	20895
897.345	20941
897.466	20819
897.587	20788
897.708	20998
897.828	20971
897.949	20823
898.07	20781
898.19	20960
898.311	21024
898.431	20765
898.552	21017
898.672	20960
898.792	21020
898.913	20842
899.033	20792
899.153	20765
899.273	20682
899.393	20674
899.513	20640
899.633	20560
899.753	20667
899.873	20556
899.993	20720
900.113	20522
900.232	20625
900.352	20590
900.472	20518
900.591	20400
900.711	20503
900.83	20400
900.95	20533
901.069	20419
901.189	20355
901.308	20168
901.427	20092
901.546	19997
901.665	20043
901.784	19978
901.904	19898
902.023	19727
902.141	19559
902.26	19616
902.379	19624
902.498	19472
902.617	19388
902.735	19502
902.854	19563
902.973	19499
903.091	19263
903.21	19202
903.328	19148
903.446	19114
903.565	18966
903.683	18962
903.801	18916
903.919	18954
904.038	19034
904.156	18734
904.274	18726
904.392	18802
904.51	18768
904.627	18711
904.745	18696
904.863	18852
904.981	18479
905.098	18414
905.216	18365
905.334	18429
905.451	18388
905.569	18426
905.686	18410
905.803	18384
905.921	18106
906.038	18270
906.155	18129
906.272	18148
906.389	18110
906.506	17832
906.623	17836
906.74	17969
906.857	17817
906.974	17790
907.091	17977
907.208	18102
907.324	17969
907.441	17824
907.557	17771
907.674	17653
907.79	17539
907.907	17551
908.023	17585
908.139	17653
908.256	17471
908.372	17562
908.488	17535
908.604	17425
908.72	17349
908.836	17391
908.952	17421
909.068	17547
909.184	17524
909.3	17318
909.415	17448
909.531	17402
909.647	17124
909.762	17079
909.878	17056
909.993	17048
910.108	17045
910.224	16995
910.339	17056
910.454	17052
910.57	16911
910.685	16763
910.8	17071
910.915	16972
911.03	16774
911.145	16626
911.259	16645
911.374	16660
911.489	16664
911.604	16508
911.718	16295
911.833	16405
911.947	16344
912.062	16242
912.176	16512
912.291	16348
912.405	16394
912.519	16637
912.633	16516
912.748	16451
912.862	16379
912.976	16124
913.09	16006
913.204	16219
913.318	16196
913.431	16196
913.545	16310
913.659	16352
913.772	16097
913.886	16078
914	15884
914.113	16063
914.226	16029
914.34	16097
914.453	15987
914.566	15922
914.68	15873
914.793	15895
914.906	15595
915.019	15606
915.132	15545
915.245	15561
915.358	15603
915.47	15561
915.583	15557
915.696	15682
915.809	15774
915.921	15766
916.034	15557
916.146	15526
916.259	15485
916.371	15553
916.483	15580
916.595	15443
916.708	15466
916.82	15367
916.932	15351
917.044	15462
917.156	15249
917.268	15146
917.38	15370
917.491	15317
917.603	15222
917.715	15241
917.826	15317
917.938	15188
918.049	15112
918.161	15085
918.272	15279
918.384	15310
918.495	15169
918.606	15013
918.717	14944
918.828	15013
918.939	15051
919.05	14842
919.161	14899
919.272	14788
919.383	14830
919.494	14960
919.604	15154
919.715	14902
919.826	14910
919.936	14941
920.047	14830
920.157	14952
920.267	15097
920.378	14857
920.488	14792
920.598	15119
920.708	15188
920.818	15013
920.928	15017
921.038	15252
921.148	15142
921.258	14804
921.368	14842
921.477	14598
921.587	14644
921.697	14522
921.806	14686
921.916	14541
922.025	14415
922.134	14377
922.244	14324
922.353	14298
922.462	14077
922.571	14084
922.68	13928
922.789	13993
922.898	14012
923.007	13909
923.116	13947
923.224	13830
923.333	13940
923.442	13746
923.55	13803
923.659	13715
923.767	13822
923.876	13746
923.984	13852
924.092	13563
924.201	13651
924.309	13647
924.417	13616
924.525	13552
924.633	13632
924.741	14465
924.849	13362
924.956	13540
925.064	13270
925.172	13244
925.279	13266
925.387	13282
925.494	13343
925.602	13426
925.709	13346
925.816	13263
925.924	13331
926.031	13369
926.138	13175
926.245	13312
926.352	13164
926.459	13221
926.566	13384
926.673	13232
926.779	13095
926.886	12985
926.993	12993
927.099	12897
927.206	12806
927.312	12817
927.419	12977
927.525	12798
927.631	12943
927.737	12837
927.843	12681
927.95	12604
928.056	12620
928.162	12719
928.267	12779
928.373	13274
928.479	12722
928.585	12536
928.69	12597
928.796	12635
928.901	12608
929.007	12471
929.112	12509
929.218	12574
929.323	12327
929.428	12285
929.533	12513
929.638	12315
929.743	12338
929.848	12311
929.953	12334
930.058	12330
930.163	12148
930.267	11984
930.372	12251
930.477	12045
930.581	12175
930.685	12083
930.79	12068
930.894	11954
930.998	11939
931.103	12072
931.207	11714
931.311	11661
931.415	11547
931.519	11345
931.623	11345
