Data from test_V78500241_32.txt Node
Date: Fri Mar 25 15:42:01 CST 2022
User: usil
Spectrometer: V785-0024
Trigger mode: 0
Integration Time (sec): 4.000000E-1
Scans to average: 1
Nonlinearity correction enabled: false
Boxcar width: 0
Storing dark spectrum: false
XAxis mode: Wavelengths
Number of Pixels in Spectrum: 1024
>>>>>Begin Spectral Data<<<<<
801.071	27660
801.214	27458
801.356	27218
801.499	27374
801.641	26979
801.783	26929
801.926	27108
802.068	27062
802.211	26906
802.353	27070
802.496	26800
802.638	26636
802.78	26613
802.923	26526
803.065	26385
803.208	26503
803.35	26503
803.492	26625
803.635	26682
803.777	26598
803.919	26663
804.061	27005
804.204	26663
804.346	26492
804.488	26492
804.63	26438
804.773	26412
804.915	26590
805.057	26678
805.199	26473
805.341	26571
805.483	26629
805.626	26724
805.768	26488
805.91	26609
806.052	26689
806.194	26442
806.336	26781
806.478	26667
806.62	26621
806.762	26762
806.904	26838
807.046	27081
807.188	26914
807.33	26990
807.472	26986
807.614	26910
807.756	26785
807.898	26727
808.04	26689
808.182	26701
808.324	26625
808.465	26743
808.607	26914
808.749	27028
808.891	27188
809.033	27089
809.174	27070
809.316	27074
809.458	26998
809.6	27051
809.741	27070
809.883	27199
810.025	27192
810.166	27233
810.308	27363
810.45	27317
810.591	27161
810.733	27161
810.875	26994
811.016	26765
811.158	26823
811.299	26872
811.441	27135
811.582	27100
811.724	26937
811.865	26769
812.007	26845
812.148	26906
812.29	27039
812.431	27116
812.573	27207
812.714	27256
812.855	27431
812.997	27416
813.138	27587
813.279	27477
813.421	27397
813.562	27260
813.703	27157
813.845	27077
813.986	26762
814.127	26621
814.268	26587
814.41	26568
814.551	26526
814.692	26526
814.833	26396
814.974	26324
815.115	26404
815.256	26339
815.397	26450
815.539	26324
815.68	26214
815.821	26240
815.962	25974
816.103	26058
816.244	26020
816.385	25852
816.526	25765
816.666	25662
816.807	25529
816.948	25651
817.089	25651
817.23	25571
817.371	25506
817.512	25594
817.653	25548
817.793	25388
817.934	25438
818.075	25422
818.216	25449
818.356	25358
818.497	25422
818.638	25209
818.778	25187
818.919	25053
819.06	25266
819.2	25312
819.341	25221
819.481	25228
819.622	25658
819.762	25605
819.903	25696
820.043	25559
820.184	25476
820.324	25441
820.465	25491
820.605	25525
820.746	25514
820.886	25236
821.026	25381
821.167	25354
821.307	25495
821.447	25388
821.588	25304
821.728	25168
821.868	24939
822.008	24814
822.149	24753
822.289	24806
822.429	24486
822.569	24456
822.709	24395
822.849	24201
822.99	24296
823.13	24213
823.27	24174
823.41	24060
823.55	23958
823.69	24133
823.83	24098
823.97	23946
824.11	23802
824.25	23802
824.389	23718
824.529	23912
824.669	23821
824.809	23836
824.949	23977
825.089	23965
825.228	23771
825.368	23695
825.508	23608
825.648	23509
825.787	23691
825.927	23672
826.067	23543
826.206	23611
826.346	23589
826.485	23737
826.625	23649
826.765	23687
826.904	23672
827.044	23220
827.183	23261
827.323	23261
827.462	23258
827.601	23288
827.741	23159
827.88	23239
828.02	23132
828.159	23067
828.298	23258
828.437	23265
828.577	23121
828.716	23140
828.855	22957
828.994	23006
829.134	22858
829.273	22858
829.412	22873
829.551	22801
829.69	22862
829.829	22866
829.968	22927
830.107	22831
830.246	22797
830.385	22828
830.524	22694
830.663	22706
830.802	22569
830.941	22417
831.08	22348
831.219	22523
831.357	22527
831.496	22763
831.635	22462
831.774	22318
831.913	22219
832.051	22185
832.19	22135
832.329	22249
832.467	22128
832.606	22116
832.744	22055
832.883	22040
833.022	22040
833.16	22017
833.299	22029
833.437	22082
833.576	21991
833.714	21861
833.852	22074
833.991	22128
834.129	22162
834.267	22116
834.406	22162
834.544	22070
834.682	22112
834.821	22013
834.959	22131
835.097	21930
835.235	22051
835.373	21960
835.511	22010
835.65	21991
835.788	21922
835.926	21854
836.064	21610
836.202	21717
836.34	21884
836.478	21934
836.615	21823
836.753	21873
836.891	22029
837.029	21854
837.167	21800
837.305	21812
837.443	21835
837.58	21591
837.718	21835
837.856	21770
837.993	21629
838.131	21667
838.269	21530
838.406	21564
838.544	21519
838.681	21416
838.819	21306
838.956	21093
839.094	21104
839.231	21218
839.369	21367
839.506	21515
839.643	21500
839.781	21104
839.918	20994
840.055	21218
840.193	21093
840.33	21070
840.467	21017
840.604	21195
840.742	21298
840.879	20990
841.016	20876
841.153	21036
841.29	21119
841.427	20918
841.564	21017
841.701	21009
841.838	20967
841.975	20921
842.112	20975
842.249	20861
842.385	20785
842.522	21055
842.659	20902
842.796	20762
842.933	20785
843.069	20670
843.206	20651
843.343	20735
843.479	20705
843.616	20743
843.752	20499
843.889	20541
844.025	20640
844.162	20396
844.298	20552
844.435	20575
844.571	20343
844.708	20488
844.844	20583
844.98	20587
845.117	20602
845.253	20286
845.389	20298
845.525	20320
845.661	20298
845.798	20202
845.934	20339
846.07	20248
846.206	20206
846.342	20328
846.478	20218
846.614	20035
846.75	19875
846.886	19982
847.022	19970
847.158	19906
847.294	19936
847.429	19909
847.565	19879
847.701	20134
847.837	19582
847.972	19605
848.108	19708
848.244	19696
848.379	19499
848.515	19388
848.65	19514
848.786	19289
848.921	19510
849.057	19502
849.192	19620
849.328	19506
849.463	19445
849.598	19430
849.734	19293
849.869	19282
850.004	19232
850.14	19244
850.275	19179
850.41	19004
850.545	19194
850.68	19145
850.815	19145
850.95	19141
851.085	19293
851.22	19308
851.355	19103
851.49	19126
851.625	19126
851.76	19095
851.895	19076
852.03	19053
852.165	19152
852.299	19122
852.434	19266
852.569	19217
852.703	19091
852.838	19225
852.973	19331
853.107	19297
853.242	19202
853.376	19072
853.511	18871
853.645	18909
853.78	19198
853.914	18935
854.048	18852
854.183	19057
854.317	19061
854.451	19217
854.585	18943
854.72	18852
854.854	19015
854.988	18890
855.122	18973
855.256	18852
855.39	18985
855.524	19061
855.658	19091
855.792	18970
855.926	19000
856.06	19027
856.194	19118
856.327	19076
856.461	18958
856.595	18829
856.729	18905
856.862	19099
856.996	19122
857.13	18897
857.263	19061
857.397	18981
857.53	18985
857.664	19023
857.797	19107
857.931	19114
858.064	18989
858.197	19012
858.331	18924
858.464	18932
858.597	18798
858.731	18852
858.864	18875
858.997	18806
859.13	18996
859.263	18943
859.396	18863
859.529	18989
859.662	18757
859.795	18753
859.928	18829
860.061	19050
860.194	18996
860.327	18928
860.46	18829
860.592	19042
860.725	18966
860.858	18977
860.99	18890
861.123	18692
861.256	18825
861.388	18939
861.521	19426
861.653	18776
861.786	18715
861.918	18768
862.05	18825
862.183	18951
862.315	18993
862.447	19057
862.58	18817
862.712	18635
862.844	18684
862.976	18779
863.108	18661
863.24	19038
863.372	18639
863.504	18631
863.636	18715
863.768	18608
863.9	18601
864.032	18521
864.164	18483
864.296	18623
864.428	18604
864.559	18654
864.691	18627
864.823	18578
864.954	18555
865.086	18589
865.217	18574
865.349	18506
865.48	18433
865.612	18563
865.743	18536
865.875	18570
866.006	18395
866.137	18578
866.269	18540
866.4	18544
866.531	18426
866.662	18410
866.793	18441
866.924	18494
867.055	18547
867.186	18467
867.317	18502
867.448	18376
867.579	18445
867.71	18365
867.841	18357
867.972	18498
868.103	18582
868.233	18372
868.364	18445
868.495	18612
868.625	18631
868.756	18745
868.886	18669
869.017	18566
869.147	18798
869.278	18768
869.408	18726
869.539	18661
869.669	18798
869.799	18859
869.929	18886
870.06	18783
870.19	18970
870.32	19023
870.45	18985
870.58	19050
870.71	19175
870.84	19251
870.97	19065
871.1	19133
871.23	19320
871.36	19304
871.489	19164
871.619	19293
871.749	19407
871.879	19331
872.008	19392
872.138	19400
872.267	19407
872.397	19213
872.526	19118
872.656	19088
872.785	19057
872.915	19384
873.044	19415
873.173	19438
873.303	19339
873.432	19419
873.561	19430
873.69	19388
873.819	19438
873.948	19403
874.077	19422
874.206	19228
874.335	19381
874.464	19476
874.593	19575
874.722	19518
874.851	19658
874.979	19632
875.108	19685
875.237	19590
875.365	19483
875.494	19544
875.623	19662
875.751	19662
875.88	19609
876.008	19799
876.136	19803
876.265	20062
876.393	20092
876.521	19925
876.65	20225
876.778	19944
876.906	19860
877.034	19989
877.162	19955
877.29	19871
877.418	19936
877.546	20039
877.674	19974
877.802	20008
877.93	19997
878.058	19940
878.185	19928
878.313	19986
878.441	20050
878.568	19868
878.696	19955
878.824	19993
878.951	20115
879.079	20069
879.206	20263
879.333	20119
879.461	20138
879.588	20176
879.715	20153
879.842	20332
879.97	20088
880.097	19791
880.224	19795
880.351	19811
880.478	19906
880.605	19704
880.732	19852
880.859	19917
880.986	19913
881.112	19849
881.239	19685
881.366	19590
881.493	19430
881.619	19354
881.746	19468
881.872	19468
881.999	19499
882.125	19392
882.252	19556
882.378	19506
882.505	19468
882.631	19392
882.757	19240
882.883	19152
883.01	19209
883.136	19137
883.262	19110
883.388	19023
883.514	19225
883.64	19202
883.766	19187
883.892	19107
884.018	19072
884.143	19168
884.269	19175
884.395	18848
884.52	18768
884.646	19069
884.772	18764
884.897	18719
885.023	18760
885.148	18894
885.274	19008
885.399	18973
885.524	18829
885.65	18878
885.775	18795
885.9	18821
886.025	18939
886.15	18871
886.275	18734
886.4	18779
886.525	18821
886.65	18749
886.775	18646
886.9	18878
887.025	19034
887.149	18760
887.274	18654
887.399	18730
887.523	18547
887.648	18532
887.773	18422
887.897	18604
888.021	18787
888.146	18479
888.27	18730
888.395	18719
888.519	18604
888.643	18616
888.767	18532
888.891	18494
889.015	18342
889.139	18445
889.263	18464
889.387	18452
889.511	18612
889.635	18604
889.759	18414
889.883	18323
890.006	18471
890.13	18509
890.254	18289
890.377	18353
890.501	18174
890.624	18152
890.748	18277
890.871	18060
890.995	17954
891.118	17897
891.241	17996
891.364	18015
891.488	18091
891.611	17992
891.734	18076
891.857	18098
891.98	18079
892.103	18083
892.226	18087
892.349	17980
892.471	17790
892.594	17931
892.717	17942
892.839	17897
892.962	18076
893.085	18068
893.207	17977
893.33	17866
893.452	17897
893.575	18026
893.697	17904
893.819	18163
893.941	18144
894.064	18167
894.186	17923
894.308	17969
894.43	17958
894.552	18098
894.674	18194
894.796	17859
894.918	17916
895.04	17954
895.161	18091
895.283	18072
895.405	17859
895.526	18011
895.648	17931
895.769	18019
895.891	18079
896.012	18049
896.134	18163
896.255	18022
896.376	18045
896.498	18072
896.619	18247
896.74	18041
896.861	18102
896.982	18490
897.103	18578
897.224	18334
897.345	18327
897.466	18262
897.587	18380
897.708	18460
897.828	18418
897.949	18228
898.07	18159
898.19	18194
898.311	18376
898.431	18182
898.552	18308
898.672	18266
898.792	18315
898.913	18376
899.033	18194
899.153	18003
899.273	17843
899.393	18026
899.513	17984
899.633	17965
899.753	18057
899.873	18038
899.993	17912
900.113	17973
900.232	17935
900.352	17874
900.472	17847
900.591	17729
900.711	17961
900.83	17775
900.95	17950
901.069	17961
901.189	17718
901.308	17551
901.427	17623
901.546	17429
901.665	17512
901.784	17512
901.904	17307
902.023	17311
902.141	17048
902.26	17083
902.379	17067
902.498	17006
902.617	16980
902.735	16942
902.854	16854
902.973	16850
903.091	16687
903.21	16672
903.328	16622
903.446	16569
903.565	16580
903.683	16455
903.801	16424
903.919	16538
904.038	16428
904.156	16295
904.274	16257
904.392	16215
904.51	16109
904.627	16181
904.745	16272
904.863	16390
904.981	16029
905.098	15956
905.216	15975
905.334	15915
905.451	16044
905.569	15964
905.686	15945
905.803	15960
905.921	15698
906.038	15895
906.155	15633
906.272	15671
906.389	15656
906.506	15450
906.623	15462
906.74	15367
906.857	15195
906.974	15317
907.091	15485
907.208	15564
907.324	15557
907.441	15393
907.557	15203
907.674	15298
907.79	15154
907.907	15157
908.023	15222
908.139	15150
908.256	15123
908.372	15024
908.488	14986
908.604	14891
908.72	14902
908.836	14941
908.952	14830
909.068	14963
909.184	14998
909.3	14880
909.415	14899
909.531	14826
909.647	14526
909.762	14556
909.878	14537
909.993	14533
910.108	14587
910.224	14507
910.339	14499
910.454	14457
910.57	14404
910.685	14278
910.8	14575
910.915	14499
911.03	14415
911.145	14164
911.259	14157
911.374	14164
911.489	14191
911.604	14024
911.718	14027
911.833	14035
911.947	13860
912.062	13795
912.176	14001
912.291	14058
912.405	13951
912.519	14115
912.633	14081
912.748	14024
912.862	13970
912.976	13795
913.09	13670
913.204	13719
913.318	13769
913.431	13761
913.545	13753
913.659	13898
913.772	13689
913.886	13689
914	13616
914.113	13753
914.226	13723
914.34	13651
914.453	13571
914.566	13662
914.68	13540
914.793	13495
914.906	13365
915.019	13312
915.132	13346
915.245	13236
915.358	13266
915.47	13289
915.583	13335
915.696	13388
915.809	13384
915.921	13506
916.034	13251
916.146	13266
916.259	13114
916.371	13312
916.483	13263
916.595	13091
916.708	13198
916.82	13099
916.932	13141
917.044	13168
917.156	13114
917.268	12993
917.38	13069
917.491	12924
917.603	13019
917.715	13076
917.826	13164
917.938	12916
918.049	12817
918.161	12943
918.272	13057
918.384	13091
918.495	13031
918.606	12821
918.717	12814
918.828	12802
918.939	12840
919.05	12734
919.161	12772
919.272	12631
919.383	12597
919.494	12779
919.604	13000
919.715	12764
919.826	12703
919.936	12745
920.047	12821
920.157	12787
920.267	12981
920.378	12753
920.488	12677
920.598	13080
920.708	13088
920.818	12837
920.928	13114
921.038	13164
921.148	13046
921.258	12726
921.368	12703
921.477	12608
921.587	12551
921.697	12422
921.806	12612
921.916	12532
922.025	12254
922.134	12273
922.244	12186
922.353	12213
922.462	12079
922.571	12049
922.68	11863
922.789	11794
922.898	11889
923.007	11859
923.116	11870
923.224	11832
923.333	11832
923.442	11657
923.55	11688
923.659	11733
923.767	11790
923.876	11668
923.984	11767
924.092	11600
924.201	11703
924.309	11619
924.417	11653
924.525	11634
924.633	11566
924.741	12486
924.849	11326
924.956	11558
925.064	11383
925.172	11318
925.279	11322
925.387	11448
925.494	11425
925.602	11493
925.709	11391
925.816	11277
925.924	11318
926.031	11433
926.138	11356
926.245	11417
926.352	11322
926.459	11402
926.566	11391
926.673	11311
926.779	11235
926.886	11216
926.993	11041
927.099	10980
927.206	10889
927.312	10904
927.419	11056
927.525	10999
927.631	11014
927.737	10908
927.843	10869
927.95	10782
928.056	10854
928.162	10820
928.267	10961
928.373	11554
928.479	10896
928.585	10626
928.69	10835
928.796	10812
928.901	10710
929.007	10580
929.112	10744
929.218	10630
929.323	10675
929.428	10584
929.533	10706
929.638	10550
929.743	10584
929.848	10577
929.953	10592
930.058	10432
930.163	10322
930.267	10341
930.372	10436
930.477	10261
930.581	10542
930.685	10413
930.79	10333
930.894	10238
930.998	10124
931.103	10405
931.207	9975
931.311	9922
931.415	9781
931.519	9580
931.623	9561
