Data from test_V78500241_1416.txt Node
Date: Fri Mar 25 15:51:36 CST 2022
User: usil
Spectrometer: V785-0024
Trigger mode: 0
Integration Time (sec): 4.000000E-1
Scans to average: 1
Nonlinearity correction enabled: false
Boxcar width: 0
Storing dark spectrum: false
XAxis mode: Wavelengths
Number of Pixels in Spectrum: 1024
>>>>>Begin Spectral Data<<<<<
801.071	28675
801.214	28459
801.356	28276
801.499	28333
801.641	28040
801.783	28120
801.926	28234
802.068	28158
802.211	28051
802.353	28158
802.496	27892
802.638	27797
802.78	27857
802.923	27812
803.065	27755
803.208	27660
803.35	27610
803.492	27979
803.635	28029
803.777	27850
803.919	28090
804.061	28421
804.204	28169
804.346	27979
804.488	27892
804.63	28002
804.773	28048
804.915	27945
805.057	28166
805.199	28044
805.341	28169
805.483	28169
805.626	28268
805.768	28128
805.91	28112
806.052	28230
806.194	28048
806.336	28413
806.478	28249
806.62	28257
806.762	28356
806.904	28577
807.046	28755
807.188	28694
807.33	28668
807.472	28672
807.614	28531
807.756	28736
807.898	28478
808.04	28371
808.182	28432
808.324	28573
808.465	28500
808.607	28736
808.749	28892
808.891	28927
809.033	29071
809.174	28881
809.316	28847
809.458	28877
809.6	28949
809.741	28984
809.883	29052
810.025	29223
810.166	29307
810.308	29204
810.45	29121
810.591	29197
810.733	28934
810.875	28824
811.016	28835
811.158	28908
811.299	28961
811.441	29143
811.582	29048
811.724	28961
811.865	29044
812.007	28847
812.148	28930
812.29	28942
812.431	29003
812.573	29117
812.714	29277
812.855	29490
812.997	29471
813.138	29570
813.279	29520
813.421	29402
813.562	29433
813.703	29261
813.845	29071
813.986	28801
814.127	28744
814.268	28683
814.41	28786
814.551	28508
814.692	28584
814.833	28622
814.974	28508
815.115	28538
815.256	28363
815.397	28489
815.539	28455
815.68	28440
815.821	28379
815.962	28470
816.103	28451
816.244	28401
816.385	28166
816.526	28223
816.666	28032
816.807	27865
816.948	27907
817.089	28067
817.23	27922
817.371	27876
817.512	27903
817.653	27846
817.793	27812
817.934	27949
818.075	28002
818.216	28006
818.356	27831
818.497	27797
818.638	27538
818.778	27637
818.919	27694
819.06	27705
819.2	27759
819.341	27926
819.481	27930
819.622	28192
819.762	28318
819.903	28162
820.043	28196
820.184	28074
820.324	28032
820.465	28150
820.605	28116
820.746	27987
820.886	27937
821.026	27968
821.167	28063
821.307	28067
821.447	27914
821.588	27895
821.728	27759
821.868	27515
822.008	27462
822.149	27363
822.289	27408
822.429	27093
822.569	27173
822.709	27131
822.849	26940
822.99	26902
823.13	26804
823.27	26708
823.41	26785
823.55	26587
823.69	26853
823.83	26693
823.97	26746
824.11	26537
824.25	26545
824.389	26621
824.529	26556
824.669	26514
824.809	26598
824.949	26556
825.089	26701
825.228	26590
825.368	26427
825.508	26499
825.648	26457
825.787	26465
825.927	26575
826.067	26252
826.206	26355
826.346	26579
826.485	26484
826.625	26495
826.765	26564
826.904	26476
827.044	26256
827.183	26298
827.323	26149
827.462	26202
827.601	26172
827.741	26206
827.88	26206
828.02	26263
828.159	26161
828.298	26172
828.437	26168
828.577	26111
828.716	26252
828.855	26035
828.994	25799
829.134	25875
829.273	25963
829.412	25708
829.551	25841
829.69	25963
829.829	25818
829.968	25860
830.107	25982
830.246	25818
830.385	25742
830.524	25753
830.663	25578
830.802	25651
830.941	25392
831.08	25251
831.219	25586
831.357	25537
831.496	25647
831.635	25415
831.774	25274
831.913	25354
832.051	25301
832.19	25251
832.329	25289
832.467	25278
832.606	25069
832.744	25122
832.883	25171
833.022	25183
833.16	25099
833.299	25046
833.437	25171
833.576	25217
833.714	25198
833.852	25160
833.991	25236
834.129	25266
834.267	25289
834.406	25156
834.544	25247
834.682	25221
834.821	25069
834.959	25259
835.097	25190
835.235	25183
835.373	25034
835.511	25023
835.65	25080
835.788	25031
835.926	24985
836.064	24757
836.202	24825
836.34	25034
836.478	25107
836.615	24973
836.753	24954
836.891	25004
837.029	25008
837.167	25141
837.305	24905
837.443	24989
837.58	24821
837.718	24886
837.856	24825
837.993	24856
838.131	24646
838.269	24700
838.406	24688
838.544	24661
838.681	24517
838.819	24372
838.956	24353
839.094	24300
839.231	24433
839.369	24418
839.506	24753
839.643	24505
839.781	24403
839.918	24262
840.055	24273
840.193	24235
840.33	24186
840.467	24220
840.604	24319
840.742	24642
840.879	24079
841.016	24106
841.153	24114
841.29	24323
841.427	24201
841.564	24125
841.701	24273
841.838	24182
841.975	24194
842.112	24076
842.249	24102
842.385	23939
842.522	24201
842.659	24144
842.796	23958
842.933	23954
843.069	23954
843.206	24018
843.343	23988
843.479	23931
843.616	23927
843.752	23775
843.889	23920
844.025	23851
844.162	23710
844.298	23722
844.435	23680
844.571	23741
844.708	23680
844.844	23882
844.98	23817
845.117	23821
845.253	23665
845.389	23604
845.525	23707
845.661	23585
845.798	23410
845.934	23497
846.07	23463
846.206	23554
846.342	23699
846.478	23410
846.614	23258
846.75	23071
846.886	23216
847.022	23246
847.158	23197
847.294	23166
847.429	23353
847.565	23147
847.701	23414
847.837	22961
847.972	22847
848.108	22953
848.244	23014
848.379	22900
848.515	22839
848.65	22835
848.786	22812
848.921	22793
849.057	22896
849.192	22774
849.328	22987
849.463	22733
849.598	22752
849.734	22713
849.869	22577
850.004	22531
850.14	22592
850.275	22462
850.41	22557
850.545	22550
850.68	22421
850.815	22550
850.95	22478
851.085	22771
851.22	22672
851.355	22470
851.49	22527
851.625	22424
851.76	22462
851.895	22535
852.03	22596
852.165	22557
852.299	22527
852.434	22630
852.569	22573
852.703	22535
852.838	22584
852.973	22485
853.107	22713
853.242	22504
853.376	22436
853.511	22306
853.645	22344
853.78	22538
853.914	22386
854.048	22287
854.183	22287
854.317	22489
854.451	22694
854.585	22303
854.72	22314
854.854	22402
854.988	22173
855.122	22356
855.256	22303
855.39	22306
855.524	22470
855.658	22466
855.792	22314
855.926	22322
856.06	22398
856.194	22363
856.327	22295
856.461	22333
856.595	22337
856.729	22386
856.862	22466
856.996	22390
857.13	22424
857.263	22481
857.397	22478
857.53	22253
857.664	22466
857.797	22417
857.931	22516
858.064	22386
858.197	22367
858.331	22337
858.464	22363
858.597	22173
858.731	22253
858.864	22337
858.997	22333
859.13	22303
859.263	22371
859.396	22409
859.529	22402
859.662	22363
859.795	22367
859.928	22280
860.061	22481
860.194	22542
860.327	22421
860.46	22428
860.592	22375
860.725	22611
860.858	22459
860.99	22417
861.123	22375
861.256	22310
861.388	22341
861.521	22908
861.653	22314
861.786	22196
861.918	22234
862.05	22242
862.183	22226
862.315	22341
862.447	22344
862.58	22379
862.712	22147
862.844	22029
862.976	22253
863.108	22196
863.24	22447
863.372	21842
863.504	22002
863.636	22036
863.768	22051
863.9	22120
864.032	22124
864.164	21991
864.296	22070
864.428	22181
864.559	22230
864.691	22223
864.823	22051
864.954	22093
865.086	22036
865.217	21812
865.349	21762
865.48	21953
865.612	22021
865.743	22032
865.875	21979
866.006	21895
866.137	21968
866.269	21979
866.4	21964
866.531	21899
866.662	21911
866.793	21823
866.924	21907
867.055	21774
867.186	21892
867.317	21823
867.448	21743
867.579	21793
867.71	21873
867.841	21785
867.972	21899
868.103	21835
868.233	21861
868.364	21941
868.495	21922
868.625	22032
868.756	22116
868.886	22131
869.017	22177
869.147	22173
869.278	22223
869.408	22086
869.539	22086
869.669	22177
869.799	22261
869.929	22337
870.06	22158
870.19	22348
870.32	22386
870.45	22470
870.58	22550
870.71	22599
870.84	22588
870.97	22466
871.1	22508
871.23	22698
871.36	22668
871.489	22588
871.619	22645
871.749	22717
871.879	22736
872.008	22698
872.138	22725
872.267	22694
872.397	22500
872.526	22512
872.656	22516
872.785	22641
872.915	22733
873.044	22786
873.173	22793
873.303	22866
873.432	22847
873.561	22858
873.69	22694
873.819	22771
873.948	22858
874.077	22596
874.206	22740
874.335	22740
874.464	22980
874.593	22953
874.722	23052
874.851	22923
874.979	23025
875.108	23041
875.237	23014
875.365	22896
875.494	22980
875.623	22995
875.751	22946
875.88	22915
876.008	23064
876.136	23212
876.265	23364
876.393	23467
876.521	23383
876.65	23391
876.778	23402
876.906	23372
877.034	23261
877.162	23376
877.29	23391
877.418	23360
877.546	23174
877.674	23353
877.802	23288
877.93	23337
878.058	23391
878.185	23193
878.313	23212
878.441	23356
878.568	23067
878.696	23288
878.824	23368
878.951	23376
879.079	23315
879.206	23630
879.333	23322
879.461	23395
879.588	23345
879.715	23562
879.842	23528
879.97	23455
880.097	23162
880.224	23022
880.351	23098
880.478	23204
880.605	22965
880.732	23121
880.859	23383
880.986	23113
881.112	23216
881.239	23006
881.366	22877
881.493	22816
881.619	22717
881.746	22812
881.872	22721
881.999	22645
882.125	22611
882.252	22748
882.378	22626
882.505	22679
882.631	22542
882.757	22284
882.883	22348
883.01	22470
883.136	22451
883.262	22360
883.388	22291
883.514	22310
883.64	22443
883.766	22329
883.892	22135
884.018	22169
884.143	22310
884.269	22318
884.395	22086
884.52	22029
884.646	22036
884.772	21987
884.897	21945
885.023	21964
885.148	22154
885.274	22055
885.399	22131
885.524	22010
885.65	21956
885.775	21987
885.9	21937
886.025	22109
886.15	22067
886.275	21907
886.4	21987
886.525	21975
886.65	22021
886.775	21987
886.9	22078
887.025	22348
887.149	21873
887.274	21941
887.399	21736
887.523	21747
887.648	21766
887.773	21724
887.897	21827
888.021	21709
888.146	21698
888.27	21861
888.395	21816
888.519	21819
888.643	21743
888.767	21827
888.891	21701
889.015	21561
889.139	21599
889.263	21564
889.387	21576
889.511	21789
889.635	21641
889.759	21561
889.883	21450
890.006	21599
890.13	21644
890.254	21511
890.377	21359
890.501	21344
890.624	21408
890.748	21393
890.871	21306
890.995	21070
891.118	21165
891.241	21119
891.364	21043
891.488	21359
891.611	21074
891.734	21119
891.857	21188
891.98	21165
892.103	21161
892.226	21047
892.349	21085
892.471	20830
892.594	21028
892.717	21081
892.839	21024
892.962	21032
893.085	20979
893.207	20975
893.33	20902
893.452	20868
893.575	21036
893.697	20998
893.819	21192
893.941	21070
894.064	21127
894.186	20986
894.308	20861
894.43	21104
894.552	21142
894.674	21085
894.796	20815
894.918	20971
895.04	20967
895.161	20883
895.283	21001
895.405	20788
895.526	20944
895.648	20941
895.769	21032
895.891	20948
896.012	21096
896.134	21047
896.255	20948
896.376	20933
896.498	21028
896.619	20910
896.74	20929
896.861	21123
896.982	21226
897.103	21325
897.224	21272
897.345	21207
897.466	21184
897.587	21218
897.708	21336
897.828	21184
897.949	21108
898.07	21051
898.19	21077
898.311	21291
898.431	21096
898.552	21176
898.672	21207
898.792	21252
898.913	21180
899.033	21077
899.153	20944
899.273	20804
899.393	20948
899.513	20929
899.633	20963
899.753	20864
899.873	20800
899.993	20868
900.113	20762
900.232	20891
900.352	20796
900.472	20731
900.591	20575
900.711	20754
900.83	20617
900.95	20773
901.069	20663
901.189	20613
901.308	20355
901.427	20172
901.546	20339
901.665	20183
901.784	20195
901.904	20111
902.023	19970
902.141	19746
902.26	19799
902.379	19780
902.498	19647
902.617	19666
902.735	19811
902.854	19643
902.973	19624
903.091	19392
903.21	19373
903.328	19445
903.446	19346
903.565	19304
903.683	19133
903.801	19061
903.919	19156
904.038	19206
904.156	18920
904.274	19152
904.392	18924
904.51	18878
904.627	18920
904.745	18993
904.863	19015
904.981	18757
905.098	18593
905.216	18688
905.334	18639
905.451	18467
905.569	18635
905.686	18635
905.803	18612
905.921	18300
906.038	18388
906.155	18506
906.272	18357
906.389	18292
906.506	18091
906.623	18167
906.74	18178
906.857	18068
906.974	18049
907.091	18114
907.208	18262
907.324	18285
907.441	17961
907.557	17908
907.674	17927
907.79	17767
907.907	17836
908.023	17874
908.139	17954
908.256	17809
908.372	17752
908.488	17573
908.604	17585
908.72	17535
908.836	17581
908.952	17493
909.068	17490
909.184	17634
909.3	17520
909.415	17649
909.531	17532
909.647	17258
909.762	17261
909.878	17322
909.993	17341
910.108	17181
910.224	17178
910.339	17269
910.454	17117
910.57	17018
910.685	17033
910.8	17307
910.915	17288
911.03	17075
911.145	16862
911.259	16862
911.374	16763
911.489	16736
911.604	16672
911.718	16603
911.833	16615
911.947	16523
912.062	16481
912.176	16622
912.291	16527
912.405	16618
912.519	16748
912.633	16786
912.748	16607
912.862	16618
912.976	16402
913.09	16196
913.204	16356
913.318	16440
913.431	16489
913.545	16443
913.659	16489
913.772	16280
913.886	16265
914	16204
914.113	16192
914.226	16341
914.34	16204
914.453	16071
914.566	16143
914.68	16166
914.793	16090
914.906	15800
915.019	15812
915.132	15701
915.245	15770
915.358	15743
915.47	15857
915.583	15785
915.696	15857
915.809	15892
915.921	15922
916.034	15709
916.146	15671
916.259	15656
916.371	15755
916.483	15675
916.595	15675
916.708	15576
916.82	15603
916.932	15530
917.044	15526
917.156	15591
917.268	15317
917.38	15355
917.491	15355
917.603	15481
917.715	15526
917.826	15408
917.938	15317
918.049	15321
918.161	15351
918.272	15519
918.384	15443
918.495	15302
918.606	15123
918.717	15150
918.828	15157
918.939	15173
919.05	15043
919.161	15165
919.272	14944
919.383	14971
919.494	15245
919.604	15287
919.715	15062
919.826	14979
919.936	15097
920.047	15218
920.157	15184
920.267	15237
920.378	15116
920.488	15100
920.598	15279
920.708	15473
920.818	15237
920.928	15230
921.038	15431
921.148	15310
921.258	14986
921.368	14990
921.477	14872
921.587	14864
921.697	14644
921.806	14845
921.916	14640
922.025	14484
922.134	14495
922.244	14423
922.353	14530
922.462	14419
922.571	14252
922.68	14153
922.789	14069
922.898	14073
923.007	13993
923.116	14100
923.224	14092
923.333	14050
923.442	13947
923.55	13925
923.659	13970
923.767	13955
923.876	13849
923.984	13913
924.092	13753
924.201	13814
924.309	13860
924.417	13814
924.525	13704
924.633	13689
924.741	14511
924.849	13590
924.956	13662
925.064	13476
925.172	13422
925.279	13518
925.387	13476
925.494	13480
925.602	13632
925.709	13514
925.816	13369
925.924	13388
926.031	13468
926.138	13411
926.245	13460
926.352	13358
926.459	13472
926.566	13491
926.673	13354
926.779	13255
926.886	13255
926.993	13095
927.099	12954
927.206	12947
927.312	12966
927.419	12897
927.525	12924
927.631	13038
927.737	12829
927.843	12817
927.95	12700
928.056	12787
928.162	12772
928.267	12920
928.373	13476
928.479	12890
928.585	12650
928.69	12776
928.796	12829
928.901	12722
929.007	12521
929.112	12734
929.218	12658
929.323	12547
929.428	12597
929.533	12646
929.638	12448
929.743	12486
929.848	12635
929.953	12528
930.058	12330
930.163	12102
930.267	12300
930.372	12399
930.477	12159
930.581	12509
930.685	12239
930.79	12110
930.894	12110
930.998	12053
931.103	12209
931.207	11813
931.311	11843
931.415	11688
931.519	11493
931.623	11493
