Data from test_V78500241_405.txt Node
Date: Fri Mar 25 15:44:36 CST 2022
User: usil
Spectrometer: V785-0024
Trigger mode: 0
Integration Time (sec): 4.000000E-1
Scans to average: 1
Nonlinearity correction enabled: false
Boxcar width: 0
Storing dark spectrum: false
XAxis mode: Wavelengths
Number of Pixels in Spectrum: 1024
>>>>>Begin Spectral Data<<<<<
801.071	28763
801.214	28733
801.356	28706
801.499	28478
801.641	28519
801.783	28371
801.926	28432
802.068	28421
802.211	28337
802.353	28128
802.496	28093
802.638	28036
802.78	28025
802.923	27941
803.065	27869
803.208	27945
803.35	28120
803.492	28093
803.635	28112
803.777	28090
803.919	28150
804.061	28417
804.204	28246
804.346	28166
804.488	28105
804.63	28059
804.773	28006
804.915	28200
805.057	28272
805.199	28204
805.341	28249
805.483	28242
805.626	28295
805.768	28082
805.91	28295
806.052	28398
806.194	28219
806.336	28428
806.478	28246
806.62	28375
806.762	28344
806.904	28641
807.046	28805
807.188	28801
807.33	28858
807.472	28816
807.614	28531
807.756	28588
807.898	28478
808.04	28348
808.182	28550
808.324	28649
808.465	28538
808.607	28634
808.749	28908
808.891	28976
809.033	29140
809.174	29025
809.316	29105
809.458	28915
809.6	28904
809.741	28908
809.883	29025
810.025	29189
810.166	29212
810.308	29197
810.45	29022
810.591	29113
810.733	28873
810.875	28930
811.016	28744
811.158	28881
811.299	29117
811.441	29109
811.582	29025
811.724	28839
811.865	28881
812.007	28923
812.148	28812
812.29	28930
812.431	29170
812.573	29227
812.714	29474
812.855	29425
812.997	29573
813.138	29657
813.279	29467
813.421	29535
813.562	29311
813.703	29258
813.845	29143
813.986	28801
814.127	28641
814.268	28569
814.41	28611
814.551	28500
814.692	28721
814.833	28455
814.974	28451
815.115	28474
815.256	28470
815.397	28333
815.539	28363
815.68	28318
815.821	28215
815.962	28466
816.103	28409
816.244	28200
816.385	28177
816.526	28093
816.666	27884
816.807	27770
816.948	27850
817.089	28006
817.23	27888
817.371	27812
817.512	27850
817.653	27751
817.793	27610
817.934	27892
818.075	27690
818.216	27747
818.356	27785
818.497	27717
818.638	27473
818.778	27500
818.919	27462
819.06	27534
819.2	27682
819.341	27747
819.481	27717
819.622	27941
819.762	27987
819.903	28010
820.043	28017
820.184	27945
820.324	27819
820.465	27953
820.605	27895
820.746	27934
820.886	27709
821.026	27926
821.167	27816
821.307	27861
821.447	27766
821.588	27618
821.728	27454
821.868	27424
822.008	27173
822.149	27287
822.289	27237
822.429	26853
822.569	26891
822.709	26849
822.849	26834
822.99	26765
823.13	26720
823.27	26602
823.41	26438
823.55	26355
823.69	26461
823.83	26518
823.97	26389
824.11	26278
824.25	26328
824.389	26195
824.529	26351
824.669	26271
824.809	26381
824.949	26415
825.089	26343
825.228	26336
825.368	26168
825.508	26233
825.648	26180
825.787	26294
825.927	26267
826.067	26180
826.206	26252
826.346	26096
826.485	26237
826.625	26210
826.765	26237
826.904	26221
827.044	25860
827.183	25944
827.323	25868
827.462	26031
827.601	25670
827.741	25772
827.88	25887
828.02	25704
828.159	25883
828.298	25833
828.437	25879
828.577	25830
828.716	25818
828.855	25693
828.994	25548
829.134	25605
829.273	25655
829.412	25453
829.551	25453
829.69	25499
829.829	25514
829.968	25613
830.107	25548
830.246	25594
830.385	25567
830.524	25460
830.663	25350
830.802	25293
830.941	25046
831.08	25156
831.219	25152
831.357	25050
831.496	25244
831.635	25008
831.774	25095
831.913	24939
832.051	24939
832.19	24901
832.329	24875
832.467	24829
832.606	24768
832.744	24722
832.883	24863
833.022	24665
833.16	24810
833.299	24848
833.437	24734
833.576	24806
833.714	24760
833.852	24722
833.991	24719
834.129	24863
834.267	24760
834.406	24798
834.544	24814
834.682	24833
834.821	24654
834.959	24897
835.097	24635
835.235	24776
835.373	24768
835.511	24646
835.65	24635
835.788	24547
835.926	24426
836.064	24528
836.202	24437
836.34	24570
836.478	24684
836.615	24563
836.753	24589
836.891	24635
837.029	24711
837.167	24566
837.305	24547
837.443	24407
837.58	24486
837.718	24570
837.856	24566
837.993	24399
838.131	24380
838.269	24235
838.406	24285
838.544	24243
838.681	24022
838.819	23988
838.956	23843
839.094	23737
839.231	23958
839.369	24003
839.506	24285
839.643	24110
839.781	23714
839.918	23794
840.055	23783
840.193	23942
840.33	23737
840.467	23840
840.604	23783
840.742	23969
840.879	23592
841.016	23802
841.153	23695
841.29	23863
841.427	23634
841.564	23699
841.701	23726
841.838	23680
841.975	23623
842.112	23642
842.249	23558
842.385	23398
842.522	23760
842.659	23619
842.796	23497
842.933	23509
843.069	23474
843.206	23372
843.343	23520
843.479	23436
843.616	23349
843.752	23254
843.889	23288
844.025	23372
844.162	23105
844.298	23345
844.435	23273
844.571	23132
844.708	23254
844.844	23368
844.98	23326
845.117	23223
845.253	23071
845.389	23124
845.525	23113
845.661	23056
845.798	22896
845.934	23136
846.07	22961
846.206	22869
846.342	23178
846.478	23037
846.614	22858
846.75	22622
846.886	22675
847.022	22603
847.158	22550
847.294	22634
847.429	22744
847.565	22565
847.701	22968
847.837	22421
847.972	22310
848.108	22527
848.244	22512
848.379	22261
848.515	22314
848.65	22192
848.786	22112
848.921	22238
849.057	22303
849.192	22322
849.328	22246
849.463	22188
849.598	22154
849.734	22105
849.869	22013
850.004	22242
850.14	22010
850.275	21926
850.41	21937
850.545	21922
850.68	21994
850.815	22078
850.95	21991
851.085	22124
851.22	22029
851.355	21987
851.49	22086
851.625	22059
851.76	22021
851.895	21869
852.03	21941
852.165	22021
852.299	21987
852.434	22051
852.569	21895
852.703	22021
852.838	22059
852.973	22101
853.107	22101
853.242	21800
853.376	21846
853.511	21762
853.645	21812
853.78	21945
853.914	21838
854.048	21660
854.183	21732
854.317	21869
854.451	21975
854.585	21884
854.72	21789
854.854	21838
854.988	21785
855.122	21766
855.256	21675
855.39	21751
855.524	21800
855.658	21846
855.792	21709
855.926	21835
856.06	21732
856.194	21934
856.327	21728
856.461	21759
856.595	21854
856.729	21766
856.862	21838
856.996	21804
857.13	21880
857.263	21953
857.397	21907
857.53	21701
857.664	21838
857.797	21846
857.931	21831
858.064	21755
858.197	21888
858.331	21816
858.464	21720
858.597	21542
858.731	21835
858.864	21804
858.997	21728
859.13	21705
859.263	21785
859.396	21800
859.529	21778
859.662	21629
859.795	21751
859.928	21671
860.061	21892
860.194	21994
860.327	21759
860.46	21800
860.592	21964
860.725	21934
860.858	21857
860.99	21736
861.123	21713
861.256	21793
861.388	21690
861.521	22409
861.653	21656
861.786	21576
861.918	21576
862.05	21762
862.183	21625
862.315	21816
862.447	21842
862.58	21793
862.712	21481
862.844	21462
862.976	21614
863.108	21545
863.24	22006
863.372	21469
863.504	21412
863.636	21431
863.768	21549
863.9	21443
864.032	21439
864.164	21332
864.296	21431
864.428	21549
864.559	21595
864.691	21500
864.823	21534
864.954	21401
865.086	21523
865.217	21424
865.349	21272
865.48	21439
865.612	21336
865.743	21447
865.875	21374
866.006	21336
866.137	21405
866.269	21386
866.4	21275
866.531	21241
866.662	21405
866.793	21138
866.924	21272
867.055	21313
867.186	21279
867.317	21291
867.448	21195
867.579	21332
867.71	21074
867.841	21169
867.972	21279
868.103	21218
868.233	21233
868.364	21245
868.495	21412
868.625	21583
868.756	21538
868.886	21469
869.017	21530
869.147	21603
869.278	21641
869.408	21599
869.539	21507
869.669	21625
869.799	21564
869.929	21629
870.06	21648
870.19	21838
870.32	21789
870.45	21823
870.58	21819
870.71	22105
870.84	22078
870.97	21960
871.1	21827
871.23	21964
871.36	22230
871.489	22082
871.619	22147
871.749	22002
871.879	22036
872.008	22150
872.138	21983
872.267	22048
872.397	22105
872.526	21876
872.656	21968
872.785	21964
872.915	22006
873.044	22219
873.173	22101
873.303	22169
873.432	22036
873.561	22173
873.69	22086
873.819	22162
873.948	22192
874.077	22131
874.206	21979
874.335	22192
874.464	22147
874.593	22447
874.722	22341
874.851	22436
874.979	22337
875.108	22405
875.237	22356
875.365	22310
875.494	22242
875.623	22398
875.751	22287
875.88	22474
876.008	22428
876.136	22504
876.265	22782
876.393	22820
876.521	22839
876.65	22752
876.778	22771
876.906	22561
877.034	22664
877.162	22683
877.29	22592
877.418	22710
877.546	22653
877.674	22805
877.802	22752
877.93	22565
878.058	22683
878.185	22497
878.313	22599
878.441	22721
878.568	22493
878.696	22584
878.824	22713
878.951	22725
879.079	22771
879.206	23022
879.333	22805
879.461	22862
879.588	22755
879.715	22828
879.842	22881
879.97	22786
880.097	22466
880.224	22531
880.351	22535
880.478	22500
880.605	22481
880.732	22577
880.859	22668
880.986	22493
881.112	22466
881.239	22443
881.366	22242
881.493	22150
881.619	22021
881.746	22135
881.872	22093
881.999	22067
882.125	22090
882.252	22120
882.378	22044
882.505	22143
882.631	21835
882.757	21816
882.883	21823
883.01	21797
883.136	21675
883.262	21591
883.388	21618
883.514	21857
883.64	21751
883.766	21690
883.892	21599
884.018	21599
884.143	21720
884.269	21720
884.395	21412
884.52	21325
884.646	21523
884.772	21378
884.897	21291
885.023	21488
885.148	21534
885.274	21420
885.399	21534
885.524	21469
885.65	21344
885.775	21382
885.9	21485
886.025	21492
886.15	21507
886.275	21450
886.4	21332
886.525	21370
886.65	21367
886.775	21351
886.9	21458
887.025	21648
887.149	21435
887.274	21252
887.399	21154
887.523	21192
887.648	21112
887.773	21123
887.897	21211
888.021	21150
888.146	21180
888.27	21302
888.395	21233
888.519	21237
888.643	21154
888.767	21249
888.891	20994
889.015	20986
889.139	20986
889.263	20944
889.387	21020
889.511	21062
889.635	21119
889.759	20960
889.883	20887
890.006	20990
890.13	21043
890.254	20758
890.377	20880
890.501	20842
890.624	20678
890.748	20617
890.871	20651
890.995	20488
891.118	20583
891.241	20442
891.364	20560
891.488	20727
891.611	20530
891.734	20427
891.857	20511
891.98	20526
892.103	20552
892.226	20396
892.349	20343
892.471	20309
892.594	20473
892.717	20438
892.839	20488
892.962	20480
893.085	20503
893.207	20495
893.33	20282
893.452	20381
893.575	20347
893.697	20400
893.819	20446
893.941	20651
894.064	20446
894.186	20404
894.308	20454
894.43	20461
894.552	20667
894.674	20594
894.796	20290
894.918	20328
895.04	20336
895.161	20438
895.283	20419
895.405	20396
895.526	20469
895.648	20473
895.769	20442
895.891	20499
896.012	20442
896.134	20511
896.255	20461
896.376	20290
896.498	20442
896.619	20442
896.74	20480
896.861	20427
896.982	20613
897.103	20899
897.224	20830
897.345	20670
897.466	20587
897.587	20640
897.708	20792
897.828	20708
897.949	20431
898.07	20412
898.19	20568
898.311	20667
898.431	20606
898.552	20613
898.672	20530
898.792	20670
898.913	20724
899.033	20438
899.153	20476
899.273	20271
899.393	20374
899.513	20351
899.633	20324
899.753	20370
899.873	20377
899.993	20324
900.113	20225
900.232	20256
900.352	20183
900.472	20267
900.591	20058
900.711	20161
900.83	20142
900.95	20415
901.069	20294
901.189	20096
901.308	19731
901.427	19594
901.546	19655
901.665	19700
901.784	19765
901.904	19594
902.023	19445
902.141	19308
902.26	19190
902.379	19320
902.498	19221
902.617	19164
902.735	19327
902.854	19168
902.973	19133
903.091	18966
903.21	18795
903.328	18821
903.446	18726
903.565	18642
903.683	18707
903.801	18612
903.919	18646
904.038	18692
904.156	18399
904.274	18467
904.392	18407
904.51	18483
904.627	18426
904.745	18536
904.863	18445
904.981	18258
905.098	18083
905.216	18144
905.334	18182
905.451	18144
905.569	17939
905.686	18117
905.803	18060
905.921	18003
906.038	18049
906.155	17885
906.272	17779
906.389	17794
906.506	17665
906.623	17547
906.74	17661
906.857	17520
906.974	17535
907.091	17619
907.208	17722
907.324	17562
907.441	17512
907.557	17216
907.674	17315
907.79	17269
907.907	17425
908.023	17421
908.139	17322
908.256	17220
908.372	17223
908.488	17216
908.604	17083
908.72	16972
908.836	17014
908.952	16938
909.068	16984
909.184	17151
909.3	16995
909.415	17003
909.531	17037
909.647	16850
909.762	16790
909.878	16691
909.993	16771
910.108	16649
910.224	16622
910.339	16706
910.454	16630
910.57	16466
910.685	16542
910.8	16740
910.915	16713
911.03	16584
911.145	16356
911.259	16310
911.374	16246
911.489	16287
911.604	16131
911.718	16116
911.833	16029
911.947	15918
912.062	15937
912.176	16112
912.291	16059
912.405	16093
912.519	16306
912.633	16192
912.748	16166
912.862	16055
912.976	15857
913.09	15842
913.204	15918
913.318	15869
913.431	15907
913.545	15953
913.659	15953
913.772	15743
913.886	15644
914	15610
914.113	15812
914.226	15755
914.34	15713
914.453	15549
914.566	15667
914.68	15557
914.793	15545
914.906	15279
915.019	15370
915.132	15203
915.245	15325
915.358	15249
915.47	15302
915.583	15302
915.696	15329
915.809	15283
915.921	15397
916.034	15283
916.146	15135
916.259	15146
916.371	15207
916.483	15131
916.595	15169
916.708	15039
916.82	15089
916.932	15055
917.044	15089
917.156	14982
917.268	14948
917.38	14914
917.491	14830
917.603	14880
917.715	14944
917.826	14963
917.938	14899
918.049	14777
918.161	14887
918.272	15100
918.384	15028
918.495	14887
918.606	14743
918.717	14625
918.828	14663
918.939	14712
919.05	14568
919.161	14583
919.272	14419
919.383	14499
919.494	14686
919.604	14906
919.715	14689
919.826	14511
919.936	14602
920.047	14663
920.157	14594
920.267	14754
920.378	14590
920.488	14560
920.598	14727
920.708	14902
920.818	14762
920.928	14800
921.038	14845
921.148	14800
921.258	14537
921.368	14473
921.477	14290
921.587	14393
921.697	14199
921.806	14415
921.916	14256
922.025	13955
922.134	14012
922.244	13913
922.353	14107
922.462	13776
922.571	13822
922.68	13658
922.789	13575
922.898	13521
923.007	13563
923.116	13609
923.224	13651
923.333	13548
923.442	13411
923.55	13457
923.659	13411
923.767	13544
923.876	13354
923.984	13396
924.092	13285
924.201	13403
924.309	13441
924.417	13373
924.525	13240
924.633	13384
924.741	14005
924.849	13065
924.956	13160
925.064	13118
925.172	12973
925.279	13042
925.387	12996
925.494	13053
925.602	13133
925.709	13050
925.816	12966
925.924	12996
926.031	13118
926.138	12954
926.245	13065
926.352	12905
926.459	13031
926.566	13000
926.673	12981
926.779	12810
926.886	12768
926.993	12601
927.099	12517
927.206	12555
927.312	12525
927.419	12582
927.525	12635
927.631	12627
927.737	12490
927.843	12376
927.95	12277
928.056	12414
928.162	12353
928.267	12475
928.373	13080
928.479	12532
928.585	12178
928.69	12437
928.796	12353
928.901	12330
929.007	12163
929.112	12224
929.218	12262
929.323	12102
929.428	12076
929.533	12254
929.638	12057
929.743	12155
929.848	12136
929.953	12045
930.058	12003
930.163	11851
930.267	11775
930.372	11984
930.477	11775
930.581	11965
930.685	11866
930.79	11775
930.894	11737
930.998	11623
931.103	11748
931.207	11421
931.311	11379
931.415	11326
931.519	10999
931.623	11060
