Data from test_V78500241_3132.txt Node
Date: Fri Mar 25 16:03:29 CST 2022
User: usil
Spectrometer: V785-0024
Trigger mode: 0
Integration Time (sec): 4.000000E-1
Scans to average: 1
Nonlinearity correction enabled: false
Boxcar width: 0
Storing dark spectrum: false
XAxis mode: Wavelengths
Number of Pixels in Spectrum: 1024
>>>>>Begin Spectral Data<<<<<
801.071	28976
801.214	28805
801.356	28725
801.499	28569
801.641	28459
801.783	28493
801.926	28500
802.068	28546
802.211	28386
802.353	28310
802.496	28280
802.638	28211
802.78	28025
802.923	28124
803.065	28105
803.208	27987
803.35	28226
803.492	28337
803.635	28360
803.777	28344
803.919	28436
804.061	28733
804.204	28504
804.346	28367
804.488	28424
804.63	28440
804.773	28303
804.915	28664
805.057	28645
805.199	28303
805.341	28523
805.483	28706
805.626	28599
805.768	28519
805.91	28618
806.052	28603
806.194	28462
806.336	28634
806.478	28683
806.62	28672
806.762	28698
806.904	28862
807.046	29227
807.188	29052
807.33	29071
807.472	29113
807.614	28984
807.756	29174
807.898	29044
808.04	28873
808.182	28934
808.324	28869
808.465	28919
808.607	29204
808.749	29360
808.891	29334
809.033	29455
809.174	29326
809.316	29330
809.458	29223
809.6	29273
809.741	29307
809.883	29444
810.025	29745
810.166	29649
810.308	29589
810.45	29528
810.591	29562
810.733	29349
810.875	29353
811.016	29307
811.158	29318
811.299	29520
811.441	29455
811.582	29444
811.724	29296
811.865	29273
812.007	29079
812.148	29364
812.29	29444
812.431	29592
812.573	29623
812.714	29783
812.855	29923
812.997	29882
813.138	30133
813.279	29996
813.421	29931
813.562	29878
813.703	29680
813.845	29630
813.986	29197
814.127	29094
814.268	29083
814.41	29086
814.551	28976
814.692	29220
814.833	29003
814.974	29098
815.115	29079
815.256	28976
815.397	28953
815.539	29041
815.68	28782
815.821	28653
815.962	28862
816.103	28946
816.244	28839
816.385	28748
816.526	28588
816.666	28443
816.807	28413
816.948	28455
817.089	28371
817.23	28432
817.371	28337
817.512	28424
817.653	28329
817.793	28196
817.934	28341
818.075	28367
818.216	28516
818.356	28322
818.497	28306
818.638	28215
818.778	28192
818.919	28097
819.06	28143
819.2	28280
819.341	28303
819.481	28363
819.622	28508
819.762	28637
819.903	28733
820.043	28645
820.184	28615
820.324	28546
820.465	28440
820.605	28561
820.746	28538
820.886	28375
821.026	28436
821.167	28474
821.307	28417
821.447	28314
821.588	28375
821.728	28276
821.868	28070
822.008	27850
822.149	27949
822.289	27838
822.429	27583
822.569	27648
822.709	27667
822.849	27310
822.99	27370
823.13	27306
823.27	27165
823.41	27093
823.55	27138
823.69	27367
823.83	27131
823.97	27100
824.11	26975
824.25	26933
824.389	27028
824.529	27020
824.669	26998
824.809	27222
824.949	27161
825.089	27024
825.228	27096
825.368	26887
825.508	26868
825.648	26986
825.787	26982
825.927	26937
826.067	26807
826.206	26857
826.346	26990
826.485	26921
826.625	26944
826.765	27066
826.904	27020
827.044	26735
827.183	26693
827.323	26651
827.462	26663
827.601	26697
827.741	26670
827.88	26625
828.02	26625
828.159	26522
828.298	26602
828.437	26697
828.577	26617
828.716	26701
828.855	26568
828.994	26301
829.134	26404
829.273	26320
829.412	26294
829.551	26263
829.69	26320
829.829	26328
829.968	26343
830.107	26480
830.246	26278
830.385	26275
830.524	26103
830.663	26084
830.802	26024
830.941	25955
831.08	25833
831.219	25959
831.357	26130
831.496	26069
831.635	25917
831.774	25917
831.913	25822
832.051	25742
832.19	25674
832.329	25757
832.467	25616
832.606	25525
832.744	25693
832.883	25658
833.022	25670
833.16	25537
833.299	25609
833.437	25655
833.576	25723
833.714	25685
833.852	25704
833.991	25639
834.129	25788
834.267	25681
834.406	25613
834.544	25715
834.682	25586
834.821	25651
834.959	25727
835.097	25586
835.235	25734
835.373	25556
835.511	25731
835.65	25590
835.788	25559
835.926	25312
836.064	25316
836.202	25282
836.34	25426
836.478	25468
836.615	25453
836.753	25441
836.891	25502
837.029	25586
837.167	25358
837.305	25373
837.443	25316
837.58	25343
837.718	25362
837.856	25331
837.993	25308
838.131	25240
838.269	25164
838.406	25175
838.544	25061
838.681	24932
838.819	24905
838.956	24798
839.094	24738
839.231	24776
839.369	24859
839.506	25187
839.643	25145
839.781	24776
839.918	24715
840.055	24814
840.193	24749
840.33	24566
840.467	24730
840.604	24734
840.742	24882
840.879	24513
841.016	24585
841.153	24483
841.29	24757
841.427	24582
841.564	24795
841.701	24684
841.838	24494
841.975	24498
842.112	24604
842.249	24483
842.385	24433
842.522	24639
842.659	24570
842.796	24452
842.933	24395
843.069	24410
843.206	24281
843.343	24509
843.479	24365
843.616	24323
843.752	24174
843.889	24266
844.025	24319
844.162	24220
844.298	24270
844.435	24174
844.571	24174
844.708	24167
844.844	24327
844.98	24395
845.117	24338
845.253	24117
845.389	24110
845.525	24155
845.661	24133
845.798	23992
845.934	23965
846.07	23980
846.206	23851
846.342	24117
846.478	23946
846.614	23630
846.75	23573
846.886	23619
847.022	23695
847.158	23615
847.294	23665
847.429	23668
847.565	23684
847.701	23813
847.837	23455
847.972	23421
848.108	23512
848.244	23474
848.379	23261
848.515	23227
848.65	23246
848.786	23151
848.921	23235
849.057	23421
849.192	23391
849.328	23151
849.463	23315
849.598	23200
849.734	23239
849.869	23174
850.004	23052
850.14	23025
850.275	23117
850.41	22949
850.545	22869
850.68	22866
850.815	23033
850.95	22984
851.085	23235
851.22	23140
851.355	22961
851.49	22953
851.625	22900
851.76	23124
851.895	22911
852.03	22908
852.165	23079
852.299	22980
852.434	23037
852.569	23044
852.703	22923
852.838	22984
852.973	23109
853.107	23010
853.242	22911
853.376	22927
853.511	22820
853.645	22748
853.78	23006
853.914	22782
854.048	22740
854.183	22820
854.317	22790
854.451	22987
854.585	22763
854.72	22752
854.854	22976
854.988	22721
855.122	22820
855.256	22653
855.39	22801
855.524	22892
855.658	22904
855.792	22862
855.926	22908
856.06	22919
856.194	22850
856.327	22866
856.461	22691
856.595	22790
856.729	22927
856.862	22858
856.996	22835
857.13	22896
857.263	22934
857.397	22881
857.53	22782
857.664	22911
857.797	22961
857.931	23003
858.064	22778
858.197	22862
858.331	22881
858.464	22740
858.597	22797
858.731	22847
858.864	22831
858.997	22767
859.13	22759
859.263	22904
859.396	22900
859.529	22854
859.662	22725
859.795	22801
859.928	22957
860.061	22980
860.194	23113
860.327	22927
860.46	22854
860.592	22923
860.725	22927
860.858	22835
860.99	22984
861.123	22672
861.256	22691
861.388	22896
861.521	23436
861.653	22656
861.786	22557
861.918	22573
862.05	22748
862.183	22694
862.315	22721
862.447	22820
862.58	22755
862.712	22523
862.844	22500
862.976	22656
863.108	22561
863.24	22946
863.372	22329
863.504	22603
863.636	22596
863.768	22481
863.9	22459
864.032	22504
864.164	22557
864.296	22557
864.428	22584
864.559	22637
864.691	22740
864.823	22394
864.954	22500
865.086	22497
865.217	22481
865.349	22310
865.48	22409
865.612	22352
865.743	22580
865.875	22329
866.006	22223
866.137	22386
866.269	22325
866.4	22341
866.531	22325
866.662	22192
866.793	22451
866.924	22276
867.055	22390
867.186	22402
867.317	22196
867.448	22177
867.579	22280
867.71	22249
867.841	22207
867.972	22398
868.103	22268
868.233	22356
868.364	22428
868.495	22386
868.625	22618
868.756	22710
868.886	22603
869.017	22504
869.147	22702
869.278	22656
869.408	22618
869.539	22538
869.669	22615
869.799	22675
869.929	22599
870.06	22683
870.19	22774
870.32	22755
870.45	23003
870.58	22930
870.71	22987
870.84	23086
870.97	22961
871.1	22949
871.23	23166
871.36	23250
871.489	23037
871.619	23227
871.749	23269
871.879	23109
872.008	23250
872.138	23261
872.267	23151
872.397	23029
872.526	23018
872.656	23067
872.785	23071
872.915	23170
873.044	23337
873.173	23090
873.303	23353
873.432	23326
873.561	23174
873.69	23105
873.819	23212
873.948	23265
874.077	23147
874.206	23178
874.335	23159
874.464	23261
874.593	23406
874.722	23337
874.851	23425
874.979	23436
875.108	23520
875.237	23299
875.365	23197
875.494	23322
875.623	23478
875.751	23353
875.88	23337
876.008	23547
876.136	23509
876.265	23760
876.393	24030
876.521	23961
876.65	23904
876.778	23836
876.906	23718
877.034	23707
877.162	23832
877.29	23649
877.418	23824
877.546	23745
877.674	23630
877.802	23691
877.93	23748
878.058	23661
878.185	23604
878.313	23737
878.441	23741
878.568	23554
878.696	23661
878.824	23691
878.951	23764
879.079	23828
879.206	24007
879.333	23771
879.461	23824
879.588	23882
879.715	23954
879.842	23901
879.97	23726
880.097	23695
880.224	23493
880.351	23592
880.478	23535
880.605	23429
880.732	23581
880.859	23672
880.986	23562
881.112	23509
881.239	23345
881.366	23379
881.493	23185
881.619	23159
881.746	23280
881.872	23067
881.999	22999
882.125	22968
882.252	23155
882.378	23075
882.505	23242
882.631	22885
882.757	22828
882.883	22911
883.01	22790
883.136	22843
883.262	22592
883.388	22599
883.514	22733
883.64	22828
883.766	22805
883.892	22497
884.018	22466
884.143	22637
884.269	22869
884.395	22402
884.52	22390
884.646	22405
884.772	22398
884.897	22333
885.023	22371
885.148	22409
885.274	22603
885.399	22500
885.524	22424
885.65	22424
885.775	22440
885.9	22348
886.025	22580
886.15	22428
886.275	22428
886.4	22284
886.525	22363
886.65	22280
886.775	22299
886.9	22455
887.025	22538
887.149	22318
887.274	22211
887.399	22086
887.523	22150
887.648	22101
887.773	22063
887.897	22253
888.021	22143
888.146	22093
888.27	22181
888.395	22196
888.519	22219
888.643	22249
888.767	22242
888.891	22097
889.015	21945
889.139	22086
889.263	21793
889.387	22074
889.511	22116
889.635	22017
889.759	21926
889.883	21876
890.006	21934
890.13	22040
890.254	21812
890.377	21876
890.501	21679
890.624	21610
890.748	21656
890.871	21534
890.995	21504
891.118	21374
891.241	21500
891.364	21504
891.488	21595
891.611	21454
891.734	21367
891.857	21526
891.98	21416
892.103	21538
892.226	21443
892.349	21382
892.471	21279
892.594	21374
892.717	21542
892.839	21431
892.962	21466
893.085	21485
893.207	21374
893.33	21188
893.452	21252
893.575	21298
893.697	21340
893.819	21416
893.941	21420
894.064	21447
894.186	21249
894.308	21214
894.43	21458
894.552	21644
894.674	21534
894.796	21127
894.918	21367
895.04	21344
895.161	21500
895.283	21370
895.405	21233
895.526	21298
895.648	21283
895.769	21412
895.891	21439
896.012	21462
896.134	21420
896.255	21378
896.376	21351
896.498	21397
896.619	21405
896.74	21416
896.861	21416
896.982	21576
897.103	21739
897.224	21686
897.345	21549
897.466	21336
897.587	21606
897.708	21686
897.828	21538
897.949	21466
898.07	21485
898.19	21454
898.311	21587
898.431	21469
898.552	21492
898.672	21519
898.792	21591
898.913	21523
899.033	21469
899.153	21477
899.273	21256
899.393	21222
899.513	21367
899.633	21317
899.753	21218
899.873	21127
899.993	21393
900.113	21203
900.232	21237
900.352	21074
900.472	21135
900.591	21024
900.711	21074
900.83	21001
900.95	21039
901.069	21131
901.189	20986
901.308	20674
901.427	20431
901.546	20625
901.665	20682
901.784	20579
901.904	20400
902.023	20324
902.141	20191
902.26	20180
902.379	20286
902.498	20195
902.617	20100
902.735	20122
902.854	20119
902.973	20005
903.091	19757
903.21	19704
903.328	19799
903.446	19594
903.565	19529
903.683	19578
903.801	19548
903.919	19525
904.038	19396
904.156	19350
904.274	19331
904.392	19255
904.51	19244
904.627	19263
904.745	19316
904.863	19312
904.981	19069
905.098	19019
905.216	19023
905.334	19034
905.451	19012
905.569	18958
905.686	18985
905.803	18909
905.921	18798
906.038	18783
906.155	18646
906.272	18757
906.389	18563
906.506	18593
906.623	18471
906.74	18502
906.857	18350
906.974	18486
907.091	18486
907.208	18544
907.324	18570
907.441	18285
907.557	18296
907.674	18232
907.79	18121
907.907	18201
908.023	18311
908.139	18155
908.256	18216
908.372	18064
908.488	18034
908.604	17999
908.72	17866
908.836	17840
908.952	17828
909.068	17908
909.184	17904
909.3	17889
909.415	17923
909.531	17920
909.647	17668
909.762	17585
909.878	17615
909.993	17604
910.108	17634
910.224	17573
910.339	17581
910.454	17402
910.57	17421
910.685	17383
910.8	17608
910.915	17539
911.03	17372
911.145	17303
911.259	17143
911.374	17223
911.489	17189
911.604	17060
911.718	16805
911.833	16991
911.947	16790
912.062	16790
912.176	16839
912.291	16892
912.405	16839
912.519	17037
912.633	17117
912.748	16953
912.862	16961
912.976	16664
913.09	16618
913.204	16710
913.318	16782
913.431	16797
913.545	16763
913.659	16790
913.772	16759
913.886	16596
914	16546
914.113	16440
914.226	16607
914.34	16565
914.453	16459
914.566	16386
914.68	16417
914.793	16276
914.906	16200
915.019	16105
915.132	15987
915.245	16044
915.358	16036
915.47	16185
915.583	16021
915.696	16044
915.809	16093
915.921	16185
916.034	16048
916.146	15922
916.259	15918
916.371	15983
916.483	16051
916.595	15888
916.708	15915
916.82	15846
916.932	15800
917.044	15774
917.156	15770
917.268	15709
917.38	15793
917.491	15751
917.603	15793
917.715	15800
917.826	15679
917.938	15698
918.049	15466
918.161	15694
918.272	15739
918.384	15717
918.495	15568
918.606	15553
918.717	15302
918.828	15439
918.939	15519
919.05	15199
919.161	15363
919.272	15150
919.383	15230
919.494	15393
919.604	15587
919.715	15428
919.826	15313
919.936	15367
920.047	15485
920.157	15389
920.267	15534
920.378	15450
920.488	15287
920.598	15431
920.708	15587
920.818	15428
920.928	15477
921.038	15641
921.148	15656
921.258	15348
921.368	15226
921.477	15180
921.587	15146
921.697	14921
921.806	15173
921.916	14979
922.025	14785
922.134	14750
922.244	14644
922.353	14765
922.462	14632
922.571	14499
922.68	14294
922.789	14404
922.898	14396
923.007	14301
923.116	14358
923.224	14408
923.333	14328
923.442	14267
923.55	14107
923.659	14271
923.767	14214
923.876	14142
923.984	14183
924.092	14065
924.201	14111
924.309	14024
924.417	14161
924.525	14031
924.633	13951
924.741	14823
924.849	13833
924.956	13940
925.064	13791
925.172	13704
925.279	13704
925.387	13826
925.494	13742
925.602	13799
925.709	13727
925.816	13620
925.924	13620
926.031	13719
926.138	13708
926.245	13719
926.352	13605
926.459	13769
926.566	13742
926.673	13624
926.779	13487
926.886	13422
926.993	13327
927.099	13247
927.206	13293
927.312	13247
927.419	13217
927.525	13263
927.631	13358
927.737	13198
927.843	13122
927.95	12958
928.056	13034
928.162	13053
928.267	13145
928.373	13731
928.479	13164
928.585	12878
928.69	13069
928.796	13076
928.901	12916
929.007	12764
929.112	12886
929.218	12897
929.323	12863
929.428	12745
929.533	12905
929.638	12597
929.743	12795
929.848	12749
929.953	12764
930.058	12620
930.163	12544
930.267	12479
930.372	12559
930.477	12486
930.581	12646
930.685	12486
930.79	12350
930.894	12361
930.998	12391
931.103	12426
931.207	12079
931.311	12038
931.415	11961
931.519	11794
931.623	11623
