Data from test_V78500241_2599.txt Node
Date: Fri Mar 25 15:59:48 CST 2022
User: usil
Spectrometer: V785-0024
Trigger mode: 0
Integration Time (sec): 4.000000E-1
Scans to average: 1
Nonlinearity correction enabled: false
Boxcar width: 0
Storing dark spectrum: false
XAxis mode: Wavelengths
Number of Pixels in Spectrum: 1024
>>>>>Begin Spectral Data<<<<<
801.071	28637
801.214	28478
801.356	28459
801.499	28246
801.641	28101
801.783	28253
801.926	28173
802.068	28128
802.211	28169
802.353	28063
802.496	28048
802.638	27804
802.78	27941
802.923	27793
803.065	27705
803.208	27633
803.35	27835
803.492	27937
803.635	27991
803.777	27880
803.919	28082
804.061	28485
804.204	28135
804.346	28086
804.488	27934
804.63	28101
804.773	28040
804.915	28154
805.057	28181
805.199	28166
805.341	28196
805.483	28211
805.626	28139
805.768	28238
805.91	28128
806.052	28280
806.194	28128
806.336	28375
806.478	28280
806.62	28147
806.762	28405
806.904	28577
807.046	28763
807.188	28630
807.33	28641
807.472	28816
807.614	28698
807.756	28626
807.898	28459
808.04	28592
808.182	28577
808.324	28702
808.465	28634
808.607	28790
808.749	28923
808.891	28888
809.033	29018
809.174	29025
809.316	28938
809.458	28946
809.6	28980
809.741	29079
809.883	28961
810.025	29246
810.166	29124
810.308	29258
810.45	29143
810.591	29060
810.733	28915
810.875	28793
811.016	28805
811.158	28862
811.299	29064
811.441	29094
811.582	29208
811.724	28923
811.865	28888
812.007	28957
812.148	28972
812.29	29010
812.431	29200
812.573	29246
812.714	29322
812.855	29512
812.997	29467
813.138	29638
813.279	29600
813.421	29459
813.562	29307
813.703	29398
813.845	29277
813.986	28839
814.127	28717
814.268	28546
814.41	28801
814.551	28675
814.692	28706
814.833	28557
814.974	28611
815.115	28546
815.256	28504
815.397	28527
815.539	28401
815.68	28474
815.821	28276
815.962	28478
816.103	28481
816.244	28188
816.385	28181
816.526	28200
816.666	28162
816.807	27899
816.948	28006
817.089	28105
817.23	27930
817.371	27956
817.512	27899
817.653	27876
817.793	27823
817.934	27918
818.075	28032
818.216	27991
818.356	27808
818.497	27876
818.638	27656
818.778	27732
818.919	27827
819.06	27682
819.2	27713
819.341	27838
819.481	27880
819.622	28219
819.762	28299
819.903	28147
820.043	28128
820.184	28185
820.324	28101
820.465	28112
820.605	28219
820.746	28196
820.886	27907
821.026	27968
821.167	27979
821.307	28112
821.447	27953
821.588	27838
821.728	27759
821.868	27545
822.008	27447
822.149	27378
822.289	27291
822.429	27169
822.569	27051
822.709	27024
822.849	27020
822.99	26902
823.13	26963
823.27	26883
823.41	26735
823.55	26651
823.69	26842
823.83	26674
823.97	26792
824.11	26469
824.25	26545
824.389	26636
824.529	26845
824.669	26629
824.809	26667
824.949	26545
825.089	26598
825.228	26678
825.368	26427
825.508	26263
825.648	26590
825.787	26541
825.927	26446
826.067	26583
826.206	26511
826.346	26629
826.485	26374
826.625	26495
826.765	26590
826.904	26552
827.044	26199
827.183	26237
827.323	26142
827.462	26256
827.601	26240
827.741	26100
827.88	26187
828.02	26016
828.159	26103
828.298	26191
828.437	26206
828.577	26107
828.716	26210
828.855	26233
828.994	25959
829.134	25784
829.273	25864
829.412	25791
829.551	25970
829.69	25841
829.829	26008
829.968	25944
830.107	26073
830.246	25875
830.385	25765
830.524	25731
830.663	25780
830.802	25567
830.941	25392
831.08	25346
831.219	25609
831.357	25426
831.496	25738
831.635	25362
831.774	25362
831.913	25327
832.051	25308
832.19	25194
832.329	25285
832.467	25148
832.606	25095
832.744	25145
832.883	25118
833.022	25114
833.16	25019
833.299	25114
833.437	25312
833.576	25297
833.714	25297
833.852	25202
833.991	25213
834.129	25285
834.267	25278
834.406	25312
834.544	25251
834.682	25282
834.821	25118
834.959	25369
835.097	25042
835.235	25255
835.373	25168
835.511	25198
835.65	25034
835.788	25046
835.926	24981
836.064	24875
836.202	24916
836.34	25137
836.478	25190
836.615	24802
836.753	25023
836.891	25160
837.029	24947
837.167	24814
837.305	24973
837.443	24905
837.58	24814
837.718	24897
837.856	24875
837.993	24973
838.131	24943
838.269	24711
838.406	24829
838.544	24673
838.681	24551
838.819	24445
838.956	24399
839.094	24327
839.231	24235
839.369	24502
839.506	24635
839.643	24700
839.781	24361
839.918	24292
840.055	24186
840.193	24365
840.33	24216
840.467	24235
840.604	24251
840.742	24574
840.879	24171
841.016	24091
841.153	24235
841.29	24315
841.427	24327
841.564	24342
841.701	24292
841.838	24144
841.975	24133
842.112	24106
842.249	24038
842.385	23973
842.522	24140
842.659	24110
842.796	24003
842.933	23859
843.069	24034
843.206	23912
843.343	24038
843.479	24034
843.616	24034
843.752	23741
843.889	23855
844.025	23920
844.162	23737
844.298	23859
844.435	23642
844.571	23729
844.708	23794
844.844	23874
844.98	23828
845.117	23851
845.253	23733
845.389	23627
845.525	23619
845.661	23619
845.798	23463
845.934	23585
846.07	23509
846.206	23524
846.342	23653
846.478	23429
846.614	23436
846.75	23231
846.886	23181
847.022	23311
847.158	23220
847.294	23254
847.429	23292
847.565	23189
847.701	23334
847.837	22892
847.972	22843
848.108	23090
848.244	23010
848.379	22873
848.515	22831
848.65	22721
848.786	22755
848.921	22759
849.057	22911
849.192	22885
849.328	22790
849.463	22824
849.598	22790
849.734	22641
849.869	22653
850.004	22603
850.14	22607
850.275	22512
850.41	22554
850.545	22599
850.68	22512
850.815	22618
850.95	22554
851.085	22744
851.22	22569
851.355	22550
851.49	22542
851.625	22485
851.76	22668
851.895	22470
852.03	22500
852.165	22664
852.299	22599
852.434	22580
852.569	22565
852.703	22565
852.838	22630
852.973	22634
853.107	22596
853.242	22462
853.376	22481
853.511	22234
853.645	22322
853.78	22478
853.914	22341
854.048	22371
854.183	22398
854.317	22409
854.451	22596
854.585	22371
854.72	22314
854.854	22538
854.988	22211
855.122	22371
855.256	22268
855.39	22310
855.524	22402
855.658	22322
855.792	22424
855.926	22417
856.06	22398
856.194	22432
856.327	22363
856.461	22402
856.595	22382
856.729	22337
856.862	22455
856.996	22474
857.13	22394
857.263	22554
857.397	22478
857.53	22322
857.664	22459
857.797	22348
857.931	22447
858.064	22424
858.197	22409
858.331	22360
858.464	22424
858.597	22280
858.731	22284
858.864	22242
858.997	22367
859.13	22409
859.263	22310
859.396	22527
859.529	22310
859.662	22398
859.795	22306
859.928	22386
860.061	22466
860.194	22611
860.327	22455
860.46	22367
860.592	22557
860.725	22527
860.858	22557
860.99	22470
861.123	22341
861.256	22318
861.388	22432
861.521	23048
861.653	22177
861.786	22215
861.918	22173
862.05	22246
862.183	22405
862.315	22371
862.447	22405
862.58	22268
862.712	22055
862.844	22002
862.976	22120
863.108	22139
863.24	22542
863.372	22135
863.504	22177
863.636	21968
863.768	22074
863.9	22097
864.032	22032
864.164	21922
864.296	22147
864.428	22158
864.559	22128
864.691	22223
864.823	22097
864.954	21926
865.086	22040
865.217	21994
865.349	21888
865.48	22006
865.612	21907
865.743	22070
865.875	21846
866.006	21979
866.137	21979
866.269	21915
866.4	21994
866.531	21861
866.662	21884
866.793	21911
866.924	21816
867.055	21922
867.186	21937
867.317	21835
867.448	21781
867.579	21865
867.71	21751
867.841	21854
867.972	21850
868.103	21983
868.233	21892
868.364	21892
868.495	22055
868.625	22158
868.756	22169
868.886	22048
869.017	22162
869.147	22268
869.278	22246
869.408	22135
869.539	22059
869.669	22128
869.799	22204
869.929	22287
870.06	22268
870.19	22432
870.32	22436
870.45	22478
870.58	22546
870.71	22687
870.84	22630
870.97	22588
871.1	22519
871.23	22634
871.36	22702
871.489	22656
871.619	22668
871.749	22630
871.879	22733
872.008	22900
872.138	22653
872.267	22748
872.397	22729
872.526	22542
872.656	22508
872.785	22675
872.915	22782
873.044	22721
873.173	22809
873.303	22774
873.432	22812
873.561	22710
873.69	22763
873.819	22733
873.948	22892
874.077	22767
874.206	22786
874.335	22786
874.464	22831
874.593	23102
874.722	22961
874.851	23018
874.979	23003
875.108	23060
875.237	22904
875.365	22930
875.494	22930
875.623	23029
875.751	22991
875.88	22999
876.008	23060
876.136	23117
876.265	23414
876.393	23497
876.521	23467
876.65	23463
876.778	23337
876.906	23307
877.034	23223
877.162	23326
877.29	23185
877.418	23356
877.546	23353
877.674	23307
877.802	23227
877.93	23280
878.058	23474
878.185	23162
878.313	23341
878.441	23258
878.568	23193
878.696	23307
878.824	23265
878.951	23307
879.079	23474
879.206	23630
879.333	23570
879.461	23334
879.588	23444
879.715	23551
879.842	23657
879.97	23322
880.097	23151
880.224	23064
880.351	23208
880.478	23064
880.605	23071
880.732	23178
880.859	23322
880.986	23159
881.112	23121
881.239	23075
881.366	22915
881.493	22702
881.619	22782
881.746	22710
881.872	22668
881.999	22611
882.125	22767
882.252	22755
882.378	22557
882.505	22778
882.631	22637
882.757	22363
882.883	22466
883.01	22523
883.136	22356
883.262	22306
883.388	22128
883.514	22386
883.64	22386
883.766	22367
883.892	22124
884.018	22112
884.143	22272
884.269	22478
884.395	22067
884.52	21987
884.646	21972
884.772	21941
884.897	21915
885.023	21911
885.148	21975
885.274	22150
885.399	22166
885.524	21998
885.65	22036
885.775	22112
885.9	22044
886.025	22105
886.15	22021
886.275	21964
886.4	21937
886.525	21804
886.65	21975
886.775	21895
886.9	22139
887.025	22074
887.149	22055
887.274	21854
887.399	21732
887.523	21671
887.648	21694
887.773	21679
887.897	21850
888.021	21781
888.146	21743
888.27	21884
888.395	21899
888.519	21743
888.643	21701
888.767	21618
888.891	21564
889.015	21599
889.139	21633
889.263	21542
889.387	21656
889.511	21785
889.635	21755
889.759	21454
889.883	21549
890.006	21542
890.13	21614
890.254	21473
890.377	21530
890.501	21386
890.624	21268
890.748	21260
890.871	21169
890.995	21055
891.118	21055
891.241	21184
891.364	21009
891.488	21195
891.611	21017
891.734	21222
891.857	21230
891.98	21005
892.103	21020
892.226	21112
892.349	20944
892.471	20868
892.594	20967
892.717	21077
892.839	21089
892.962	21066
893.085	20998
893.207	21020
893.33	20872
893.452	20857
893.575	20944
893.697	21024
893.819	21032
893.941	21249
894.064	21207
894.186	20739
894.308	20994
894.43	20975
894.552	21112
894.674	21100
894.796	20967
894.918	20887
895.04	20948
895.161	21024
895.283	21051
895.405	21020
895.526	20952
895.648	20941
895.769	20963
895.891	20967
896.012	20994
896.134	21047
896.255	21024
896.376	21036
896.498	21005
896.619	21013
896.74	21028
896.861	21047
896.982	21275
897.103	21397
897.224	21302
897.345	21104
897.466	21192
897.587	21150
897.708	21420
897.828	21199
897.949	21241
898.07	21032
898.19	21142
898.311	21165
898.431	21055
898.552	21161
898.672	21279
898.792	21184
898.913	21142
899.033	21039
899.153	20899
899.273	20857
899.393	20891
899.513	20944
899.633	20929
899.753	20925
899.873	20800
899.993	20944
900.113	20750
900.232	20883
900.352	20758
900.472	20693
900.591	20571
900.711	20743
900.83	20625
900.95	20804
901.069	20830
901.189	20571
901.308	20275
901.427	20199
901.546	20362
901.665	20237
901.784	20237
901.904	20122
902.023	20005
902.141	19845
902.26	19780
902.379	19795
902.498	19742
902.617	19670
902.735	19849
902.854	19674
902.973	19753
903.091	19449
903.21	19533
903.328	19388
903.446	19335
903.565	19266
903.683	19114
903.801	19244
903.919	19225
904.038	19148
904.156	18905
904.274	19034
904.392	19019
904.51	18844
904.627	19046
904.745	18863
904.863	19027
904.981	18719
905.098	18635
905.216	18654
905.334	18639
905.451	18578
905.569	18555
905.686	18700
905.803	18703
905.921	18437
906.038	18566
906.155	18429
906.272	18395
906.389	18391
906.506	18106
906.623	18239
906.74	18224
906.857	18072
906.974	18064
907.091	18247
907.208	18277
907.324	18171
907.441	18216
907.557	17946
907.674	17832
907.79	17783
907.907	17813
908.023	17855
908.139	17836
908.256	17790
908.372	17794
908.488	17710
908.604	17551
908.72	17589
908.836	17657
908.952	17646
909.068	17570
909.184	17733
909.3	17608
909.415	17615
909.531	17528
909.647	17322
909.762	17166
909.878	17239
909.993	17383
910.108	17307
910.224	17307
910.339	17292
910.454	17162
910.57	17143
910.685	17067
910.8	17265
910.915	17204
911.03	17056
911.145	17025
911.259	16911
911.374	16873
911.489	16850
911.604	16759
911.718	16653
911.833	16645
911.947	16508
912.062	16478
912.176	16622
912.291	16596
912.405	16660
912.519	16835
912.633	16801
912.748	16664
912.862	16694
912.976	16432
913.09	16409
913.204	16417
913.318	16459
913.431	16485
913.545	16413
913.659	16512
913.772	16470
913.886	16253
914	16158
914.113	16207
914.226	16325
914.34	16280
914.453	16074
914.566	16261
914.68	16044
914.793	16074
914.906	15880
915.019	15823
915.132	15770
915.245	15762
915.358	15869
915.47	15785
915.583	15732
915.696	15823
915.809	15926
915.921	15899
916.034	15717
916.146	15686
916.259	15641
916.371	15743
916.483	15739
916.595	15534
916.708	15614
916.82	15576
916.932	15534
917.044	15587
917.156	15485
917.268	15473
917.38	15587
917.491	15412
917.603	15428
917.715	15580
917.826	15564
917.938	15325
918.049	15272
918.161	15408
918.272	15485
918.384	15507
918.495	15363
918.606	15218
918.717	15157
918.828	15176
918.939	15104
919.05	15024
919.161	15222
919.272	14941
919.383	15062
919.494	15203
919.604	15348
919.715	15176
919.826	15036
919.936	15108
920.047	15184
920.157	15165
920.267	15272
920.378	15085
920.488	15180
920.598	15279
920.708	15321
920.818	15237
920.928	15283
921.038	15500
921.148	15393
921.258	15043
921.368	15013
921.477	14944
921.587	14819
921.697	14701
921.806	14861
921.916	14686
922.025	14598
922.134	14404
922.244	14469
922.353	14590
922.462	14332
922.571	14271
922.68	14328
922.789	14027
922.898	14187
923.007	14050
923.116	14161
923.224	14096
923.333	14039
923.442	14012
923.55	13967
923.659	13982
923.767	14111
923.876	13928
923.984	14043
924.092	13837
924.201	13875
924.309	13864
924.417	13906
924.525	13803
924.633	13723
924.741	14731
924.849	13624
924.956	13628
925.064	13651
925.172	13411
925.279	13403
925.387	13537
925.494	13464
925.602	13605
925.709	13510
925.816	13381
925.924	13419
926.031	13476
926.138	13472
926.245	13510
926.352	13369
926.459	13362
926.566	13457
926.673	13403
926.779	13343
926.886	13206
926.993	13114
927.099	13000
927.206	12954
927.312	13000
927.419	13099
927.525	13061
927.631	13042
927.737	12935
927.843	12890
927.95	12658
928.056	12928
928.162	12943
928.267	12844
928.373	13388
928.479	12894
928.585	12658
928.69	12749
928.796	12757
928.901	12722
929.007	12517
929.112	12616
929.218	12684
929.323	12642
929.428	12582
929.533	12741
929.638	12471
929.743	12589
929.848	12650
929.953	12437
930.058	12422
930.163	12270
930.267	12243
930.372	12403
930.477	12216
930.581	12486
930.685	12292
930.79	12133
930.894	12220
930.998	12053
931.103	12247
931.207	11931
931.311	11893
931.415	11790
931.519	11566
931.623	11433
