Data from test_V78500241_1874.txt Node
Date: Fri Mar 25 15:54:46 CST 2022
User: usil
Spectrometer: V785-0024
Trigger mode: 0
Integration Time (sec): 4.000000E-1
Scans to average: 1
Nonlinearity correction enabled: false
Boxcar width: 0
Storing dark spectrum: false
XAxis mode: Wavelengths
Number of Pixels in Spectrum: 1024
>>>>>Begin Spectral Data<<<<<
801.071	28698
801.214	28557
801.356	28447
801.499	28181
801.641	28147
801.783	28211
801.926	28265
802.068	28322
802.211	28150
802.353	27930
802.496	27937
802.638	28021
802.78	27789
802.923	27671
803.065	27797
803.208	27797
803.35	27778
803.492	28078
803.635	28025
803.777	27895
803.919	28150
804.061	28409
804.204	28078
804.346	28078
804.488	27983
804.63	28135
804.773	28063
804.915	28131
805.057	28257
805.199	28131
805.341	28162
805.483	28314
805.626	28162
805.768	28211
805.91	28268
806.052	28219
806.194	28147
806.336	28325
806.478	28116
806.62	28303
806.762	28455
806.904	28603
807.046	28759
807.188	28672
807.33	28713
807.472	28786
807.614	28736
807.756	28649
807.898	28653
808.04	28611
808.182	28432
808.324	28508
808.465	28462
808.607	28843
808.749	29060
808.891	28911
809.033	29166
809.174	29018
809.316	28946
809.458	28839
809.6	28995
809.741	29048
809.883	29079
810.025	29140
810.166	29227
810.308	29200
810.45	29162
810.591	29140
810.733	28984
810.875	28949
811.016	28828
811.158	28717
811.299	29041
811.441	29113
811.582	29083
811.724	29018
811.865	28946
812.007	28965
812.148	28949
812.29	29105
812.431	29083
812.573	29277
812.714	29383
812.855	29520
812.997	29551
813.138	29748
813.279	29646
813.421	29520
813.562	29364
813.703	29265
813.845	29181
813.986	28885
814.127	28755
814.268	28687
814.41	28675
814.551	28615
814.692	28588
814.833	28557
814.974	28672
815.115	28721
815.256	28538
815.397	28421
815.539	28630
815.68	28504
815.821	28337
815.962	28538
816.103	28394
816.244	28333
816.385	28284
816.526	28223
816.666	28063
816.807	27968
816.948	27994
817.089	28078
817.23	27956
817.371	27934
817.512	27937
817.653	28013
817.793	27838
817.934	27956
818.075	27945
818.216	28017
818.356	27899
818.497	27781
818.638	27701
818.778	27717
818.919	27823
819.06	27698
819.2	27914
819.341	27949
819.481	28048
819.622	28173
819.762	28371
819.903	28112
820.043	28200
820.184	28112
820.324	28154
820.465	28306
820.605	27975
820.746	28040
820.886	28101
821.026	28135
821.167	28090
821.307	28074
821.447	27949
821.588	27941
821.728	27641
821.868	27743
822.008	27580
822.149	27427
822.289	27420
822.429	27230
822.569	27203
822.709	27180
822.849	26963
822.99	26975
823.13	26967
823.27	26853
823.41	26777
823.55	26674
823.69	26724
823.83	26674
823.97	26804
824.11	26575
824.25	26583
824.389	26503
824.529	26727
824.669	26663
824.809	26811
824.949	26644
825.089	26731
825.228	26632
825.368	26541
825.508	26446
825.648	26552
825.787	26492
825.927	26640
826.067	26362
826.206	26480
826.346	26514
826.485	26522
826.625	26457
826.765	26716
826.904	26583
827.044	26339
827.183	26320
827.323	26088
827.462	26119
827.601	26229
827.741	26309
827.88	26153
828.02	26103
828.159	26202
828.298	26267
828.437	26191
828.577	26149
828.716	26233
828.855	26161
828.994	25925
829.134	25978
829.273	25868
829.412	25811
829.551	25807
829.69	25852
829.829	25955
829.968	26054
830.107	25917
830.246	25849
830.385	25791
830.524	25609
830.663	25761
830.802	25578
830.941	25445
831.08	25445
831.219	25430
831.357	25457
831.496	25723
831.635	25369
831.774	25453
831.913	25464
832.051	25358
832.19	25285
832.329	25148
832.467	25206
832.606	25103
832.744	24928
832.883	25095
833.022	25168
833.16	25152
833.299	25194
833.437	25221
833.576	25171
833.714	25141
833.852	25270
833.991	25255
834.129	25331
834.267	25293
834.406	25285
834.544	25316
834.682	25194
834.821	25164
834.959	25453
835.097	25187
835.235	25156
835.373	25126
835.511	25206
835.65	24958
835.788	25091
835.926	24837
836.064	24905
836.202	24894
836.34	24973
836.478	25084
836.615	25008
836.753	24947
836.891	24962
837.029	25057
837.167	25019
837.305	24973
837.443	24878
837.58	24951
837.718	24897
837.856	24844
837.993	24776
838.131	24810
838.269	24738
838.406	24829
838.544	24494
838.681	24509
838.819	24357
838.956	24281
839.094	24448
839.231	24388
839.369	24559
839.506	24658
839.643	24471
839.781	24410
839.918	24296
840.055	24407
840.193	24323
840.33	24308
840.467	24285
840.604	24342
840.742	24597
840.879	24114
841.016	24224
841.153	24079
841.29	24323
841.427	24140
841.564	24186
841.701	24228
841.838	24178
841.975	24152
842.112	24182
842.249	23958
842.385	23965
842.522	24292
842.659	24053
842.796	24034
842.933	23988
843.069	23889
843.206	23920
843.343	24064
843.479	24053
843.616	24038
843.752	23764
843.889	23779
844.025	23771
844.162	23726
844.298	23832
844.435	23722
844.571	23767
844.708	23687
844.844	23885
844.98	23942
845.117	23901
845.253	23722
845.389	23638
845.525	23665
845.661	23661
845.798	23638
845.934	23551
846.07	23463
846.206	23596
846.342	23646
846.478	23535
846.614	23322
846.75	23155
846.886	23242
847.022	23193
847.158	23288
847.294	23208
847.429	23299
847.565	23288
847.701	23258
847.837	23033
847.972	23060
848.108	23014
848.244	23014
848.379	22847
848.515	22786
848.65	22839
848.786	22824
848.921	22626
849.057	22972
849.192	22930
849.328	22839
849.463	22812
849.598	22691
849.734	22664
849.869	22752
850.004	22626
850.14	22630
850.275	22634
850.41	22440
850.545	22440
850.68	22443
850.815	22535
850.95	22459
851.085	22672
851.22	22740
851.355	22542
851.49	22523
851.625	22561
851.76	22554
851.895	22402
852.03	22470
852.165	22645
852.299	22615
852.434	22538
852.569	22668
852.703	22584
852.838	22645
852.973	22649
853.107	22588
853.242	22546
853.376	22523
853.511	22352
853.645	22348
853.78	22474
853.914	22318
854.048	22322
854.183	22348
854.317	22367
854.451	22538
854.585	22398
854.72	22329
854.854	22481
854.988	22303
855.122	22371
855.256	22284
855.39	22382
855.524	22440
855.658	22413
855.792	22390
855.926	22523
856.06	22398
856.194	22367
856.327	22409
856.461	22295
856.595	22314
856.729	22348
856.862	22447
856.996	22413
857.13	22337
857.263	22641
857.397	22531
857.53	22379
857.664	22409
857.797	22348
857.931	22485
858.064	22417
858.197	22337
858.331	22310
858.464	22215
858.597	22352
858.731	22246
858.864	22303
858.997	22322
859.13	22466
859.263	22409
859.396	22512
859.529	22314
859.662	22363
859.795	22299
859.928	22337
860.061	22489
860.194	22607
860.327	22413
860.46	22360
860.592	22474
860.725	22611
860.858	22637
860.99	22440
861.123	22413
861.256	22325
861.388	22443
861.521	23147
861.653	22181
861.786	22226
861.918	22246
862.05	22287
862.183	22394
862.315	22204
862.447	22379
862.58	22261
862.712	22211
862.844	21987
862.976	22226
863.108	22204
863.24	22668
863.372	22090
863.504	21979
863.636	22055
863.768	21983
863.9	22147
864.032	22044
864.164	22067
864.296	22059
864.428	22207
864.559	22112
864.691	22192
864.823	22086
864.954	21983
865.086	22032
865.217	21918
865.349	21983
865.48	21926
865.612	22044
865.743	22234
865.875	22025
866.006	21918
866.137	21888
866.269	22059
866.4	21953
866.531	21816
866.662	21975
866.793	22017
866.924	21804
867.055	22036
867.186	21873
867.317	21960
867.448	21797
867.579	21895
867.71	21854
867.841	21739
867.972	21854
868.103	21865
868.233	21953
868.364	21972
868.495	21960
868.625	22124
868.756	22249
868.886	22029
869.017	22090
869.147	22185
869.278	22223
869.408	22166
869.539	22112
869.669	22101
869.799	22128
869.929	22196
870.06	22169
870.19	22402
870.32	22291
870.45	22523
870.58	22398
870.71	22523
870.84	22622
870.97	22466
871.1	22523
871.23	22706
871.36	22615
871.489	22687
871.619	22550
871.749	22702
871.879	22816
872.008	22786
872.138	22656
872.267	22713
872.397	22599
872.526	22615
872.656	22455
872.785	22565
872.915	22786
873.044	22740
873.173	22668
873.303	22786
873.432	22847
873.561	22759
873.69	22634
873.819	22717
873.948	22793
874.077	22809
874.206	22717
874.335	22835
874.464	22862
874.593	23025
874.722	22991
874.851	23056
874.979	23083
875.108	23006
875.237	22949
875.365	22786
875.494	22908
875.623	23098
875.751	22938
875.88	22927
876.008	22999
876.136	23151
876.265	23261
876.393	23440
876.521	23497
876.65	23509
876.778	23311
876.906	23391
877.034	23406
877.162	23311
877.29	23292
877.418	23200
877.546	23337
877.674	23269
877.802	23174
877.93	23197
878.058	23269
878.185	23113
878.313	23273
878.441	23265
878.568	23147
878.696	23227
878.824	23414
878.951	23345
879.079	23406
879.206	23547
879.333	23395
879.461	23337
879.588	23379
879.715	23471
879.842	23539
879.97	23471
880.097	23128
880.224	22991
880.351	23143
880.478	23159
880.605	23223
880.732	23147
880.859	23425
880.986	23071
881.112	23086
881.239	23037
881.366	22961
881.493	22797
881.619	22843
881.746	22691
881.872	22759
881.999	22668
882.125	22535
882.252	22733
882.378	22679
882.505	22672
882.631	22443
882.757	22424
882.883	22451
883.01	22352
883.136	22329
883.262	22352
883.388	22265
883.514	22386
883.64	22470
883.766	22424
883.892	21987
884.018	22192
884.143	22295
884.269	22314
884.395	22188
884.52	22044
884.646	21964
884.772	22025
884.897	21899
885.023	22051
885.148	22055
885.274	22200
885.399	22192
885.524	22055
885.65	21979
885.775	22044
885.9	21964
886.025	22067
886.15	21934
886.275	21827
886.4	21736
886.525	22002
886.65	21960
886.775	21865
886.9	21991
887.025	22177
887.149	21937
887.274	21793
887.399	21781
887.523	21759
887.648	21701
887.773	21591
887.897	21850
888.021	21736
888.146	21629
888.27	21812
888.395	21778
888.519	21793
888.643	21857
888.767	21747
888.891	21515
889.015	21511
889.139	21641
889.263	21454
889.387	21641
889.511	21701
889.635	21637
889.759	21466
889.883	21485
890.006	21595
890.13	21618
890.254	21355
890.377	21454
890.501	21180
890.624	21116
890.748	21237
890.871	21226
890.995	21180
891.118	21047
891.241	21055
891.364	21173
891.488	21199
891.611	21245
891.734	21127
891.857	21287
891.98	21089
892.103	21096
892.226	21127
892.349	21032
892.471	20998
892.594	21077
892.717	21017
892.839	20921
892.962	21070
893.085	20960
893.207	20925
893.33	20849
893.452	20944
893.575	21074
893.697	20937
893.819	21192
893.941	21214
894.064	21176
894.186	20899
894.308	20921
894.43	20994
894.552	21108
894.674	21108
894.796	20899
894.918	20944
895.04	20902
895.161	21074
895.283	20925
895.405	20963
895.526	20975
895.648	21020
895.769	21032
895.891	21066
896.012	21047
896.134	21047
896.255	21119
896.376	20986
896.498	20944
896.619	20967
896.74	20956
896.861	21123
896.982	21340
897.103	21370
897.224	21226
897.345	21291
897.466	21077
897.587	21291
897.708	21302
897.828	21241
897.949	21150
898.07	20986
898.19	21119
898.311	21207
898.431	20982
898.552	21085
898.672	21317
898.792	21192
898.913	21165
899.033	21100
899.153	21043
899.273	20815
899.393	20979
899.513	21043
899.633	20895
899.753	20933
899.873	20811
899.993	20937
900.113	20819
900.232	20815
900.352	20849
900.472	20655
900.591	20735
900.711	20769
900.83	20617
900.95	20739
901.069	20777
901.189	20522
901.308	20290
901.427	20164
901.546	20195
901.665	20282
901.784	20267
901.904	20263
902.023	19902
902.141	19795
902.26	19791
902.379	19849
902.498	19693
902.617	19658
902.735	19761
902.854	19746
902.973	19632
903.091	19388
903.21	19373
903.328	19350
903.446	19388
903.565	19232
903.683	19266
903.801	19129
903.919	19179
904.038	19164
904.156	19008
904.274	18996
904.392	18962
904.51	18878
904.627	18932
904.745	19000
904.863	19046
904.981	18738
905.098	18589
905.216	18589
905.334	18639
905.451	18696
905.569	18517
905.686	18707
905.803	18639
905.921	18486
906.038	18467
906.155	18479
906.272	18369
906.389	18327
906.506	18155
906.623	18148
906.74	18194
906.857	18030
906.974	18091
907.091	18209
907.208	18232
907.324	18098
907.441	18034
907.557	17813
907.674	17882
907.79	17817
907.907	17855
908.023	17931
908.139	17866
908.256	17821
908.372	17703
908.488	17771
908.604	17646
908.72	17570
908.836	17634
908.952	17573
909.068	17581
909.184	17672
909.3	17516
909.415	17604
909.531	17600
909.647	17376
909.762	17296
909.878	17284
909.993	17273
910.108	17265
910.224	17185
910.339	17204
910.454	17151
910.57	17064
910.685	16946
910.8	17250
910.915	17162
911.03	17067
911.145	16885
911.259	16919
911.374	16850
911.489	16869
911.604	16790
911.718	16546
911.833	16660
911.947	16447
912.062	16413
912.176	16584
912.291	16588
912.405	16596
912.519	16774
912.633	16736
912.748	16683
912.862	16672
912.976	16470
913.09	16261
913.204	16390
913.318	16413
913.431	16432
913.545	16527
913.659	16535
913.772	16272
913.886	16200
914	16139
914.113	16230
914.226	16432
914.34	16284
914.453	16128
914.566	16131
914.68	16101
914.793	16044
914.906	15812
915.019	15823
915.132	15808
915.245	15667
915.358	15793
915.47	15804
915.583	15781
915.696	15736
915.809	15907
915.921	15903
916.034	15709
916.146	15667
916.259	15591
916.371	15705
916.483	15778
916.595	15591
916.708	15682
916.82	15614
916.932	15545
917.044	15473
917.156	15492
917.268	15542
917.38	15416
917.491	15298
917.603	15389
917.715	15511
917.826	15447
917.938	15245
918.049	15211
918.161	15420
918.272	15500
918.384	15473
918.495	15306
918.606	15165
918.717	15070
918.828	15184
918.939	15173
919.05	15047
919.161	15112
919.272	14864
919.383	15074
919.494	15237
919.604	15374
919.715	15135
919.826	15001
919.936	15058
920.047	15131
920.157	15142
920.267	15260
920.378	15093
920.488	15062
920.598	15275
920.708	15382
920.818	15195
920.928	15211
921.038	15378
921.148	15226
921.258	14971
921.368	14921
921.477	14800
921.587	14853
921.697	14712
921.806	14800
921.916	14796
922.025	14469
922.134	14594
922.244	14412
922.353	14454
922.462	14320
922.571	14374
922.68	14229
922.789	14191
922.898	14119
923.007	14077
923.116	14138
923.224	14149
923.333	14084
923.442	13947
923.55	13936
923.659	13997
923.767	14062
923.876	13913
923.984	13928
924.092	13871
924.201	13894
924.309	13921
924.417	13932
924.525	13727
924.633	13868
924.741	14590
924.849	13662
924.956	13776
925.064	13571
925.172	13578
925.279	13495
925.387	13514
925.494	13529
925.602	13685
925.709	13521
925.816	13407
925.924	13556
926.031	13510
926.138	13502
926.245	13518
926.352	13308
926.459	13449
926.566	13590
926.673	13438
926.779	13339
926.886	13320
926.993	13179
927.099	13072
927.206	13019
927.312	13088
927.419	13118
927.525	13019
927.631	13080
927.737	12996
927.843	12943
927.95	12844
928.056	12882
928.162	12916
928.267	12920
928.373	13453
928.479	12932
928.585	12810
928.69	12802
928.796	12924
928.901	12734
929.007	12642
929.112	12806
929.218	12654
929.323	12555
929.428	12650
929.533	12745
929.638	12616
929.743	12570
929.848	12525
929.953	12517
930.058	12460
930.163	12251
930.267	12277
930.372	12330
930.477	12216
930.581	12429
930.685	12308
930.79	12216
930.894	12140
930.998	12064
931.103	12262
931.207	11870
931.311	11809
931.415	11703
931.519	11497
931.623	11444
