Data from test_V78500241_2043.txt Node
Date: Fri Mar 25 15:55:57 CST 2022
User: usil
Spectrometer: V785-0024
Trigger mode: 0
Integration Time (sec): 4.000000E-1
Scans to average: 1
Nonlinearity correction enabled: false
Boxcar width: 0
Storing dark spectrum: false
XAxis mode: Wavelengths
Number of Pixels in Spectrum: 1024
>>>>>Begin Spectral Data<<<<<
801.071	28793
801.214	28763
801.356	28500
801.499	28531
801.641	28379
801.783	28428
801.926	28428
802.068	28333
802.211	28341
802.353	28261
802.496	28116
802.638	27972
802.78	27934
802.923	27907
803.065	27949
803.208	27960
803.35	28105
803.492	28150
803.635	28162
803.777	28105
803.919	28333
804.061	28500
804.204	28432
804.346	28173
804.488	28230
804.63	28265
804.773	28200
804.915	28371
805.057	28462
805.199	28223
805.341	28390
805.483	28436
805.626	28375
805.768	28265
805.91	28489
806.052	28573
806.194	28459
806.336	28637
806.478	28599
806.62	28474
806.762	28675
806.904	28679
807.046	28961
807.188	28911
807.33	28869
807.472	28892
807.614	28850
807.756	28854
807.898	28767
808.04	28660
808.182	28786
808.324	28877
808.465	28752
808.607	29227
808.749	29124
808.891	29109
809.033	29280
809.174	29197
809.316	29083
809.458	29124
809.6	29086
809.741	29200
809.883	29098
810.025	29455
810.166	29463
810.308	29387
810.45	29425
810.591	29292
810.733	29220
810.875	29143
811.016	29022
811.158	29041
811.299	29212
811.441	29296
811.582	29277
811.724	29181
811.865	29124
812.007	29155
812.148	29041
812.29	29353
812.431	29425
812.573	29524
812.714	29703
812.855	29821
812.997	29847
813.138	30034
813.279	29847
813.421	29646
813.562	29627
813.703	29395
813.845	29425
813.986	29151
814.127	29044
814.268	28881
814.41	28793
814.551	28763
814.692	28854
814.833	28786
814.974	28873
815.115	28938
815.256	28862
815.397	28702
815.539	28752
815.68	28645
815.821	28634
815.962	28679
816.103	28675
816.244	28645
816.385	28603
816.526	28538
816.666	28230
816.807	28162
816.948	28234
817.089	28344
817.23	28158
817.371	28116
817.512	28268
817.653	28006
817.793	28162
817.934	28242
818.075	28257
818.216	28303
818.356	28223
818.497	28006
818.638	27827
818.778	27876
818.919	27831
819.06	28135
819.2	28074
819.341	28253
819.481	28322
819.622	28413
819.762	28569
819.903	28360
820.043	28371
820.184	28306
820.324	28405
820.465	28424
820.605	28337
820.746	28363
820.886	28310
821.026	28344
821.167	28268
821.307	28455
821.447	28173
821.588	28219
821.728	28051
821.868	27736
822.008	27694
822.149	27698
822.289	27671
822.429	27420
822.569	27378
822.709	27180
822.849	27199
822.99	27218
823.13	27131
823.27	27104
823.41	26940
823.55	26754
823.69	26929
823.83	27085
823.97	26929
824.11	26777
824.25	26670
824.389	26811
824.529	26883
824.669	26792
824.809	26891
824.949	26963
825.089	26925
825.228	26902
825.368	26625
825.508	26682
825.648	26788
825.787	26727
825.927	26735
826.067	26720
826.206	26830
826.346	26716
826.485	26823
826.625	26689
826.765	26876
826.904	26773
827.044	26503
827.183	26431
827.323	26492
827.462	26484
827.601	26541
827.741	26484
827.88	26446
828.02	26210
828.159	26480
828.298	26358
828.437	26617
828.577	26328
828.716	26366
828.855	26328
828.994	26012
829.134	26115
829.273	26020
829.412	26161
829.551	26119
829.69	26138
829.829	26149
829.968	26237
830.107	26221
830.246	26122
830.385	26096
830.524	26039
830.663	25947
830.802	25784
830.941	25742
831.08	25632
831.219	25635
831.357	25803
831.496	25879
831.635	25719
831.774	25750
831.913	25674
832.051	25537
832.19	25540
832.329	25468
832.467	25293
832.606	25335
832.744	25343
832.883	25285
833.022	25502
833.16	25247
833.299	25460
833.437	25373
833.576	25457
833.714	25381
833.852	25521
833.991	25407
834.129	25540
834.267	25575
834.406	25445
834.544	25430
834.682	25434
834.821	25426
834.959	25635
835.097	25350
835.235	25559
835.373	25476
835.511	25407
835.65	25232
835.788	25289
835.926	25183
836.064	25015
836.202	25076
836.34	25168
836.478	25384
836.615	25266
836.753	25240
836.891	25297
837.029	25209
837.167	25148
837.305	25194
837.443	25031
837.58	25129
837.718	25160
837.856	25175
837.993	25107
838.131	25122
838.269	24924
838.406	25000
838.544	24913
838.681	24688
838.819	24817
838.956	24593
839.094	24540
839.231	24559
839.369	24684
839.506	24992
839.643	24738
839.781	24574
839.918	24426
840.055	24467
840.193	24498
840.33	24391
840.467	24437
840.604	24441
840.742	24768
840.879	24281
841.016	24308
841.153	24262
841.29	24566
841.427	24456
841.564	24551
841.701	24414
841.838	24563
841.975	24448
842.112	24376
842.249	24205
842.385	24251
842.522	24456
842.659	24239
842.796	24308
842.933	24121
843.069	24022
843.206	24091
843.343	24083
843.479	24209
843.616	24190
843.752	24030
843.889	24003
844.025	24026
844.162	23992
844.298	24083
844.435	23901
844.571	23931
844.708	23958
844.844	24159
844.98	23977
845.117	24045
845.253	23813
845.389	23855
845.525	23969
845.661	23817
845.798	23687
845.934	23866
846.07	23687
846.206	23752
846.342	23821
846.478	23657
846.614	23421
846.75	23448
846.886	23459
847.022	23414
847.158	23452
847.294	23356
847.429	23512
847.565	23501
847.701	23619
847.837	23216
847.972	23033
848.108	23132
848.244	23223
848.379	22957
848.515	23056
848.65	22999
848.786	22999
848.921	23025
849.057	23170
849.192	23128
849.328	22968
849.463	23010
849.598	22938
849.734	22869
849.869	22839
850.004	22706
850.14	22854
850.275	22816
850.41	22774
850.545	22675
850.68	22698
850.815	22710
850.95	22763
851.085	22877
851.22	22873
851.355	22797
851.49	22713
851.625	22854
851.76	22691
851.895	22615
852.03	22763
852.165	22850
852.299	22869
852.434	22698
852.569	22854
852.703	22706
852.838	22805
852.973	22774
853.107	22869
853.242	22668
853.376	22660
853.511	22386
853.645	22580
853.78	22637
853.914	22645
854.048	22588
854.183	22493
854.317	22733
854.451	22786
854.585	22451
854.72	22527
854.854	22706
854.988	22611
855.122	22664
855.256	22413
855.39	22675
855.524	22634
855.658	22580
855.792	22725
855.926	22649
856.06	22668
856.194	22717
856.327	22516
856.461	22531
856.595	22519
856.729	22634
856.862	22805
856.996	22717
857.13	22694
857.263	22702
857.397	22664
857.53	22508
857.664	22618
857.797	22691
857.931	22744
858.064	22706
858.197	22615
858.331	22634
858.464	22611
858.597	22451
858.731	22588
858.864	22626
858.997	22546
859.13	22493
859.263	22603
859.396	22694
859.529	22691
859.662	22432
859.795	22535
859.928	22577
860.061	22694
860.194	22615
860.327	22694
860.46	22626
860.592	22786
860.725	22771
860.858	22573
860.99	22523
861.123	22577
861.256	22512
861.388	22649
861.521	23220
861.653	22554
861.786	22402
861.918	22421
862.05	22508
862.183	22527
862.315	22478
862.447	22554
862.58	22535
862.712	22276
862.844	22150
862.976	22375
863.108	22344
863.24	22767
863.372	22280
863.504	22310
863.636	22169
863.768	22226
863.9	22382
864.032	22265
864.164	22257
864.296	22382
864.428	22341
864.559	22344
864.691	22348
864.823	22299
864.954	22249
865.086	22238
865.217	22093
865.349	22082
865.48	22265
865.612	22181
865.743	22257
865.875	22280
866.006	22192
866.137	22196
866.269	22242
866.4	22181
866.531	22086
866.662	22116
866.793	22105
866.924	22166
867.055	22124
867.186	22029
867.317	22139
867.448	22059
867.579	22051
867.71	22044
867.841	22044
867.972	22166
868.103	22131
868.233	22154
868.364	22097
868.495	22246
868.625	22272
868.756	22314
868.886	22295
869.017	22242
869.147	22493
869.278	22557
869.408	22428
869.539	22375
869.669	22405
869.799	22394
869.929	22436
870.06	22356
870.19	22656
870.32	22694
870.45	22797
870.58	22782
870.71	22934
870.84	22885
870.97	22759
871.1	22850
871.23	22946
871.36	23003
871.489	22790
871.619	23025
871.749	23060
871.879	23014
872.008	23128
872.138	22999
872.267	23064
872.397	23014
872.526	22786
872.656	22862
872.785	22820
872.915	23022
873.044	23098
873.173	23033
873.303	22972
873.432	22995
873.561	23102
873.69	22915
873.819	23105
873.948	23086
874.077	23018
874.206	23022
874.335	22953
874.464	23094
874.593	23273
874.722	23143
874.851	23208
874.979	23322
875.108	23341
875.237	23185
875.365	23079
875.494	23235
875.623	23372
875.751	23170
875.88	23322
876.008	23273
876.136	23398
876.265	23554
876.393	23722
876.521	23585
876.65	23653
876.778	23490
876.906	23463
877.034	23531
877.162	23657
877.29	23417
877.418	23501
877.546	23554
877.674	23516
877.802	23585
877.93	23478
878.058	23531
878.185	23402
878.313	23471
878.441	23661
878.568	23254
878.696	23455
878.824	23619
878.951	23619
879.079	23726
879.206	23764
879.333	23847
879.461	23668
879.588	23710
879.715	23726
879.842	23843
879.97	23619
880.097	23452
880.224	23425
880.351	23303
880.478	23349
880.605	23425
880.732	23269
880.859	23596
880.986	23406
881.112	23353
881.239	23223
881.366	23223
881.493	23003
881.619	22889
881.746	22987
881.872	22984
881.999	22999
882.125	22831
882.252	22930
882.378	22873
882.505	22991
882.631	22744
882.757	22656
882.883	22683
883.01	22645
883.136	22531
883.262	22508
883.388	22413
883.514	22596
883.64	22603
883.766	22535
883.892	22398
884.018	22325
884.143	22535
884.269	22573
884.395	22322
884.52	22173
884.646	22280
884.772	22215
884.897	22120
885.023	22181
885.148	22363
885.274	22405
885.399	22295
885.524	22291
885.65	22177
885.775	22280
885.9	22188
886.025	22200
886.15	22314
886.275	22177
886.4	22029
886.525	22086
886.65	22070
886.775	22078
886.9	22333
887.025	22455
887.149	22124
887.274	22223
887.399	21857
887.523	21861
887.648	21907
887.773	21846
887.897	21945
888.021	22032
888.146	21903
888.27	22044
888.395	22078
888.519	22032
888.643	22013
888.767	22017
888.891	21739
889.015	21778
889.139	21922
889.263	21850
889.387	21953
889.511	21903
889.635	21816
889.759	21652
889.883	21675
890.006	21793
890.13	21903
890.254	21709
890.377	21625
890.501	21580
890.624	21511
890.748	21595
890.871	21359
890.995	21241
891.118	21256
891.241	21275
891.364	21298
891.488	21481
891.611	21268
891.734	21321
891.857	21165
891.98	21264
892.103	21370
892.226	21374
892.349	21260
892.471	21085
892.594	21336
892.717	21135
892.839	21116
892.962	21165
893.085	21214
893.207	21192
893.33	21089
893.452	21218
893.575	21165
893.697	21157
893.819	21310
893.941	21443
894.064	21298
894.186	21218
894.308	21188
894.43	21237
894.552	21264
894.674	21245
894.796	21222
894.918	21150
895.04	21150
895.161	21146
895.283	21184
895.405	21142
895.526	21214
895.648	21081
895.769	21233
895.891	21252
896.012	21370
896.134	21298
896.255	21150
896.376	21192
896.498	21256
896.619	21245
896.74	21123
896.861	21268
896.982	21370
897.103	21644
897.224	21389
897.345	21367
897.466	21260
897.587	21344
897.708	21408
897.828	21332
897.949	21351
898.07	21173
898.19	21321
898.311	21526
898.431	21245
898.552	21367
898.672	21412
898.792	21382
898.913	21336
899.033	21348
899.153	21176
899.273	21214
899.393	21180
899.513	21154
899.633	21161
899.753	21176
899.873	21062
899.993	21116
900.113	21055
900.232	21058
900.352	20971
900.472	21017
900.591	20872
900.711	20883
900.83	20655
900.95	20864
901.069	20956
901.189	20788
901.308	20549
901.427	20381
901.546	20507
901.665	20537
901.784	20476
901.904	20343
902.023	20161
902.141	19944
902.26	20065
902.379	20058
902.498	19974
902.617	19898
902.735	20031
902.854	19928
902.973	19772
903.091	19575
903.21	19616
903.328	19639
903.446	19537
903.565	19472
903.683	19468
903.801	19293
903.919	19392
904.038	19255
904.156	19282
904.274	19236
904.392	19046
904.51	19080
904.627	19031
904.745	19187
904.863	19259
904.981	18973
905.098	18852
905.216	18825
905.334	18875
905.451	18795
905.569	18734
905.686	18810
905.803	18783
905.921	18597
906.038	18635
906.155	18650
906.272	18502
906.389	18563
906.506	18357
906.623	18460
906.74	18441
906.857	18334
906.974	18273
907.091	18456
907.208	18350
907.324	18239
907.441	18205
907.557	17988
907.674	17973
907.79	18022
907.907	18026
908.023	17999
908.139	18041
908.256	18041
908.372	17840
908.488	17889
908.604	17783
908.72	17726
908.836	17786
908.952	17699
909.068	17817
909.184	17878
909.3	17798
909.415	17805
909.531	17828
909.647	17505
909.762	17471
909.878	17452
909.993	17512
910.108	17402
910.224	17414
910.339	17516
910.454	17391
910.57	17204
910.685	17208
910.8	17448
910.915	17368
911.03	17250
911.145	17094
911.259	17006
911.374	17056
911.489	16965
911.604	16908
911.718	16858
911.833	16786
911.947	16592
912.062	16641
912.176	16763
912.291	16801
912.405	16793
912.519	17003
912.633	16881
912.748	16854
912.862	16843
912.976	16630
913.09	16459
913.204	16493
913.318	16580
913.431	16672
913.545	16679
913.659	16618
913.772	16565
913.886	16436
914	16402
914.113	16436
914.226	16394
914.34	16478
914.453	16215
914.566	16447
914.68	16310
914.793	16158
914.906	15960
915.019	15941
915.132	15857
915.245	15888
915.358	15991
915.47	15934
915.583	15945
915.696	16048
915.809	16017
915.921	16093
916.034	15793
916.146	15838
916.259	15869
916.371	15987
916.483	15895
916.595	15842
916.708	15720
916.82	15842
916.932	15785
917.044	15720
917.156	15610
917.268	15625
917.38	15545
917.491	15618
917.603	15644
917.715	15667
917.826	15675
917.938	15466
918.049	15412
918.161	15561
918.272	15717
918.384	15648
918.495	15523
918.606	15298
918.717	15230
918.828	15272
918.939	15310
919.05	15214
919.161	15310
919.272	15100
919.383	15180
919.494	15348
919.604	15530
919.715	15241
919.826	15180
919.936	15291
920.047	15332
920.157	15252
920.267	15477
920.378	15340
920.488	15222
920.598	15218
920.708	15572
920.818	15389
920.928	15306
921.038	15523
921.148	15504
921.258	15146
921.368	15119
921.477	15066
921.587	14941
921.697	14765
921.806	15032
921.916	14823
922.025	14629
922.134	14621
922.244	14564
922.353	14636
922.462	14514
922.571	14377
922.68	14172
922.789	14259
922.898	14240
923.007	14256
923.116	14282
923.224	14240
923.333	14282
923.442	14149
923.55	14123
923.659	14187
923.767	14111
923.876	13993
923.984	14077
924.092	13982
924.201	13978
924.309	13944
924.417	13940
924.525	13814
924.633	13906
924.741	14792
924.849	13639
924.956	13799
925.064	13689
925.172	13510
925.279	13575
925.387	13750
925.494	13601
925.602	13742
925.709	13746
925.816	13491
925.924	13590
926.031	13723
926.138	13601
926.245	13575
926.352	13388
926.459	13514
926.566	13613
926.673	13563
926.779	13358
926.886	13350
926.993	13190
927.099	13145
927.206	13145
927.312	13137
927.419	13145
927.525	13145
927.631	13206
927.737	13023
927.843	12920
927.95	12810
928.056	12935
928.162	13046
928.267	13076
928.373	13609
928.479	13038
928.585	12852
928.69	12966
928.796	12939
928.901	12814
929.007	12612
929.112	12802
929.218	12798
929.323	12703
929.428	12711
929.533	12791
929.638	12620
929.743	12563
929.848	12665
929.953	12585
930.058	12498
930.163	12380
930.267	12380
930.372	12555
930.477	12232
930.581	12532
930.685	12388
930.79	12251
930.894	12117
930.998	12209
931.103	12262
931.207	12003
931.311	11908
931.415	11874
931.519	11596
931.623	11592
