Data from test_V78500241_2402.txt Node
Date: Fri Mar 25 15:58:26 CST 2022
User: usil
Spectrometer: V785-0024
Trigger mode: 0
Integration Time (sec): 4.000000E-1
Scans to average: 1
Nonlinearity correction enabled: false
Boxcar width: 0
Storing dark spectrum: false
XAxis mode: Wavelengths
Number of Pixels in Spectrum: 1024
>>>>>Begin Spectral Data<<<<<
801.071	28717
801.214	28653
801.356	28470
801.499	28318
801.641	28188
801.783	28147
801.926	28268
802.068	28257
802.211	28223
802.353	28223
802.496	28101
802.638	27914
802.78	27953
802.923	27895
803.065	27865
803.208	27945
803.35	27937
803.492	28150
803.635	28154
803.777	27895
803.919	28101
804.061	28599
804.204	28253
804.346	28116
804.488	28017
804.63	28276
804.773	28135
804.915	28207
805.057	28379
805.199	28059
805.341	28150
805.483	28363
805.626	28325
805.768	28192
805.91	28352
806.052	28401
806.194	28188
806.336	28466
806.478	28424
806.62	28375
806.762	28542
806.904	28573
807.046	28835
807.188	28812
807.33	28862
807.472	28896
807.614	28656
807.756	28797
807.898	28626
808.04	28577
808.182	28740
808.324	28611
808.465	28569
808.607	28877
808.749	29056
808.891	29090
809.033	29235
809.174	29159
809.316	29048
809.458	28911
809.6	28961
809.741	29136
809.883	29223
810.025	29326
810.166	29273
810.308	29303
810.45	29151
810.591	29288
810.733	29170
810.875	29022
811.016	28824
811.158	28812
811.299	29071
811.441	29136
811.582	29311
811.724	29014
811.865	29048
812.007	28953
812.148	29060
812.29	29155
812.431	29296
812.573	29501
812.714	29395
812.855	29608
812.997	29615
813.138	29676
813.279	29634
813.421	29687
813.562	29455
813.703	29364
813.845	29132
813.986	29102
814.127	28991
814.268	28675
814.41	28778
814.551	28733
814.692	28862
814.833	28615
814.974	28607
815.115	28752
815.256	28592
815.397	28611
815.539	28691
815.68	28432
815.821	28504
815.962	28546
816.103	28618
816.244	28432
816.385	28147
816.526	28261
816.666	28200
816.807	28036
816.948	28078
817.089	28090
817.23	28063
817.371	28044
817.512	28116
817.653	28093
817.793	27945
817.934	28044
818.075	28025
818.216	27983
818.356	28029
818.497	27926
818.638	27781
818.778	27831
818.919	27846
819.06	27934
819.2	28044
819.341	28086
819.481	28063
819.622	28215
819.762	28333
819.903	28318
820.043	28303
820.184	28211
820.324	28238
820.465	28223
820.605	28131
820.746	28063
820.886	28059
821.026	28143
821.167	28147
821.307	28253
821.447	28131
821.588	28051
821.728	27873
821.868	27675
822.008	27549
822.149	27507
822.289	27462
822.429	27264
822.569	27135
822.709	27291
822.849	27032
822.99	27039
823.13	27138
823.27	26952
823.41	26910
823.55	26743
823.69	26876
823.83	26830
823.97	26708
824.11	26537
824.25	26598
824.389	26568
824.529	26674
824.669	26606
824.809	26788
824.949	26667
825.089	26644
825.228	26727
825.368	26594
825.508	26473
825.648	26644
825.787	26686
825.927	26636
826.067	26560
826.206	26480
826.346	26537
826.485	26571
826.625	26640
826.765	26659
826.904	26602
827.044	26313
827.183	26263
827.323	26225
827.462	26252
827.601	26328
827.741	26240
827.88	26298
828.02	26142
828.159	26191
828.298	26240
828.437	26396
828.577	26202
828.716	26461
828.855	26191
828.994	26107
829.134	25932
829.273	25997
829.412	25898
829.551	25868
829.69	25902
829.829	25925
829.968	25909
830.107	25955
830.246	25940
830.385	25906
830.524	25791
830.663	25837
830.802	25712
830.941	25472
831.08	25468
831.219	25704
831.357	25597
831.496	25814
831.635	25544
831.774	25411
831.913	25434
832.051	25392
832.19	25403
832.329	25354
832.467	25221
832.606	25244
832.744	25198
832.883	25168
833.022	25232
833.16	25088
833.299	25301
833.437	25320
833.576	25247
833.714	25263
833.852	25491
833.991	25282
834.129	25278
834.267	25327
834.406	25327
834.544	25282
834.682	25148
834.821	25190
834.959	25510
835.097	25194
835.235	25316
835.373	25373
835.511	25202
835.65	25080
835.788	25069
835.926	24970
836.064	24920
836.202	25012
836.34	25069
836.478	25065
836.615	24951
836.753	25194
836.891	25217
837.029	25133
837.167	25000
837.305	25050
837.443	25095
837.58	24951
837.718	25088
837.856	24916
837.993	24741
838.131	24962
838.269	24981
838.406	24673
838.544	24753
838.681	24544
838.819	24551
838.956	24410
839.094	24403
839.231	24467
839.369	24585
839.506	24833
839.643	24620
839.781	24418
839.918	24437
840.055	24498
840.193	24445
840.33	24357
840.467	24346
840.604	24315
840.742	24475
840.879	24194
841.016	24197
841.153	24098
841.29	24338
841.427	24403
841.564	24346
841.701	24194
841.838	24391
841.975	24289
842.112	24087
842.249	24110
842.385	24152
842.522	24357
842.659	24125
842.796	24102
842.933	24133
843.069	23984
843.206	24018
843.343	24076
843.479	24117
843.616	24140
843.752	23874
843.889	23821
844.025	23969
844.162	23897
844.298	23843
844.435	23851
844.571	23741
844.708	23832
844.844	23904
844.98	24072
845.117	23908
845.253	23809
845.389	23710
845.525	23764
845.661	23684
845.798	23452
845.934	23619
846.07	23501
846.206	23657
846.342	23573
846.478	23558
846.614	23406
846.75	23303
846.886	23269
847.022	23280
847.158	23364
847.294	23406
847.429	23322
847.565	23273
847.701	23497
847.837	23086
847.972	22919
848.108	23132
848.244	23067
848.379	23022
848.515	22965
848.65	22896
848.786	22923
848.921	22816
849.057	22862
849.192	23064
849.328	22889
849.463	22980
849.598	22694
849.734	22820
849.869	22820
850.004	22622
850.14	22634
850.275	22733
850.41	22523
850.545	22569
850.68	22615
850.815	22637
850.95	22588
851.085	22877
851.22	22797
851.355	22588
851.49	22656
851.625	22580
851.76	22561
851.895	22508
852.03	22489
852.165	22398
852.299	22592
852.434	22691
852.569	22630
852.703	22740
852.838	22736
852.973	22778
853.107	22710
853.242	22538
853.376	22523
853.511	22322
853.645	22550
853.78	22611
853.914	22504
854.048	22432
854.183	22424
854.317	22428
854.451	22455
854.585	22531
854.72	22493
854.854	22405
854.988	22390
855.122	22474
855.256	22390
855.39	22447
855.524	22481
855.658	22557
855.792	22436
855.926	22474
856.06	22592
856.194	22508
856.327	22455
856.461	22204
856.595	22356
856.729	22394
856.862	22531
856.996	22573
857.13	22565
857.263	22569
857.397	22459
857.53	22478
857.664	22580
857.797	22569
857.931	22634
858.064	22489
858.197	22497
858.331	22405
858.464	22417
858.597	22314
858.731	22440
858.864	22360
858.997	22344
859.13	22421
859.263	22535
859.396	22592
859.529	22360
859.662	22443
859.795	22504
859.928	22485
860.061	22588
860.194	22656
860.327	22580
860.46	22413
860.592	22573
860.725	22725
860.858	22580
860.99	22440
861.123	22516
861.256	22382
861.388	22363
861.521	23102
861.653	22367
861.786	22272
861.918	22166
862.05	22428
862.183	22474
862.315	22310
862.447	22421
862.58	22424
862.712	22249
862.844	22192
862.976	22257
863.108	22333
863.24	22675
863.372	22150
863.504	22124
863.636	22192
863.768	22181
863.9	22249
864.032	22207
864.164	22147
864.296	22253
864.428	22249
864.559	22337
864.691	22226
864.823	22040
864.954	22147
865.086	22192
865.217	22097
865.349	22010
865.48	22078
865.612	22131
865.743	22192
865.875	22055
866.006	21998
866.137	22044
866.269	22120
866.4	21975
866.531	21975
866.662	21888
866.793	22040
866.924	21953
867.055	21915
867.186	21915
867.317	21865
867.448	21926
867.579	21930
867.71	21945
867.841	21865
867.972	22070
868.103	21960
868.233	21873
868.364	21972
868.495	22154
868.625	22211
868.756	22207
868.886	22169
869.017	22150
869.147	22310
869.278	22421
869.408	22162
869.539	22253
869.669	22158
869.799	22257
869.929	22265
870.06	22322
870.19	22424
870.32	22390
870.45	22512
870.58	22569
870.71	22679
870.84	22733
870.97	22535
871.1	22588
871.23	22694
871.36	22755
871.489	22744
871.619	22824
871.749	22767
871.879	22987
872.008	22957
872.138	22740
872.267	22801
872.397	22656
872.526	22580
872.656	22675
872.785	22550
872.915	22904
873.044	22923
873.173	22790
873.303	22866
873.432	22896
873.561	22801
873.69	22999
873.819	22809
873.948	22702
874.077	22919
874.206	22816
874.335	22774
874.464	23083
874.593	23075
874.722	22987
874.851	23109
874.979	23098
875.108	23132
875.237	23067
875.365	22991
875.494	22927
875.623	23113
875.751	23083
875.88	23079
876.008	23242
876.136	23246
876.265	23436
876.393	23623
876.521	23585
876.65	23490
876.778	23322
876.906	23391
877.034	23421
877.162	23337
877.29	23231
877.418	23425
877.546	23425
877.674	23360
877.802	23436
877.93	23406
878.058	23292
878.185	23360
878.313	23318
878.441	23208
878.568	23246
878.696	23337
878.824	23421
878.951	23387
879.079	23558
879.206	23710
879.333	23497
879.461	23505
879.588	23528
879.715	23539
879.842	23611
879.97	23436
880.097	23208
880.224	23056
880.351	23353
880.478	23280
880.605	23117
880.732	23280
880.859	23425
880.986	23212
881.112	23239
881.239	23052
881.366	23067
881.493	22752
881.619	22721
881.746	22816
881.872	22828
881.999	22748
882.125	22637
882.252	22927
882.378	22702
882.505	22843
882.631	22561
882.757	22466
882.883	22535
883.01	22455
883.136	22234
883.262	22352
883.388	22333
883.514	22546
883.64	22440
883.766	22367
883.892	22207
884.018	22181
884.143	22405
884.269	22504
884.395	22093
884.52	22002
884.646	22048
884.772	22021
884.897	22067
885.023	22021
885.148	22249
885.274	22143
885.399	22185
885.524	22135
885.65	22135
885.775	22192
885.9	22097
886.025	22082
886.15	22105
886.275	22082
886.4	22082
886.525	21968
886.65	21979
886.775	21941
886.9	22177
887.025	22200
887.149	21953
887.274	21819
887.399	21823
887.523	21899
887.648	21751
887.773	21846
887.897	21873
888.021	21876
888.146	21751
888.27	21994
888.395	21888
888.519	21968
888.643	21804
888.767	21907
888.891	21816
889.015	21625
889.139	21675
889.263	21679
889.387	21816
889.511	21751
889.635	21641
889.759	21576
889.883	21603
890.006	21568
890.13	21705
890.254	21405
890.377	21454
890.501	21420
890.624	21336
890.748	21564
890.871	21325
890.995	21230
891.118	21077
891.241	21264
891.364	21199
891.488	21294
891.611	21192
891.734	21039
891.857	21169
891.98	21131
892.103	21214
892.226	21226
892.349	21081
892.471	21058
892.594	21093
892.717	21142
892.839	21017
892.962	21138
893.085	21123
893.207	21119
893.33	20956
893.452	20849
893.575	21154
893.697	20925
893.819	21233
893.941	21211
894.064	21119
894.186	21039
894.308	20937
894.43	21237
894.552	21245
894.674	21116
894.796	20925
894.918	21169
895.04	21013
895.161	20998
895.283	21081
895.405	21009
895.526	21005
895.648	21039
895.769	21055
895.891	21116
896.012	21070
896.134	21089
896.255	21058
896.376	21020
896.498	21131
896.619	20925
896.74	20979
896.861	21081
896.982	21389
897.103	21408
897.224	21424
897.345	21268
897.466	21161
897.587	21268
897.708	21226
897.828	21256
897.949	21119
898.07	21074
898.19	21211
898.311	21169
898.431	21081
898.552	21154
898.672	21348
898.792	21249
898.913	21173
899.033	21169
899.153	21017
899.273	21020
899.393	20990
899.513	21017
899.633	21039
899.753	20971
899.873	20826
899.993	21005
900.113	20880
900.232	20861
900.352	20868
900.472	20796
900.591	20621
900.711	20625
900.83	20667
900.95	20819
901.069	20849
901.189	20530
901.308	20362
901.427	20252
901.546	20298
901.665	20377
901.784	20362
901.904	20157
902.023	20088
902.141	19871
902.26	19856
902.379	19902
902.498	19811
902.617	19746
902.735	19818
902.854	19788
902.973	19746
903.091	19533
903.21	19468
903.328	19616
903.446	19396
903.565	19346
903.683	19247
903.801	19133
903.919	19202
904.038	19289
904.156	18871
904.274	19050
904.392	19042
904.51	18916
904.627	19084
904.745	19038
904.863	19152
904.981	18734
905.098	18688
905.216	18726
905.334	18738
905.451	18734
905.569	18764
905.686	18730
905.803	18623
905.921	18540
906.038	18589
906.155	18426
906.272	18346
906.389	18380
906.506	18228
906.623	18266
906.74	18220
906.857	18057
906.974	18087
907.091	18277
907.208	18384
907.324	18068
907.441	18133
907.557	18003
907.674	17935
907.79	17916
907.907	17885
908.023	17889
908.139	17859
908.256	17878
908.372	17889
908.488	17764
908.604	17638
908.72	17592
908.836	17615
908.952	17684
909.068	17687
909.184	17665
909.3	17589
909.415	17623
909.531	17653
909.647	17402
909.762	17341
909.878	17303
909.993	17364
910.108	17334
910.224	17303
910.339	17261
910.454	17231
910.57	17208
910.685	17067
910.8	17288
910.915	17421
911.03	17166
911.145	16987
911.259	16923
911.374	16930
911.489	16831
911.604	16793
911.718	16637
911.833	16721
911.947	16660
912.062	16546
912.176	16748
912.291	16588
912.405	16622
912.519	16824
912.633	16927
912.748	16717
912.862	16584
912.976	16478
913.09	16280
913.204	16459
913.318	16462
913.431	16500
913.545	16504
913.659	16615
913.772	16398
913.886	16314
914	16234
914.113	16348
914.226	16382
914.34	16246
914.453	16055
914.566	16192
914.68	16207
914.793	16124
914.906	15956
915.019	15857
915.132	15747
915.245	15911
915.358	15842
915.47	15922
915.583	15808
915.696	15838
915.809	15804
915.921	15972
916.034	15762
916.146	15705
916.259	15736
916.371	15766
916.483	15759
916.595	15675
916.708	15671
916.82	15705
916.932	15564
917.044	15641
917.156	15515
917.268	15485
917.38	15534
917.491	15416
917.603	15450
917.715	15538
917.826	15587
917.938	15458
918.049	15264
918.161	15492
918.272	15526
918.384	15500
918.495	15313
918.606	15188
918.717	15203
918.828	15252
918.939	15294
919.05	15127
919.161	15150
919.272	15112
919.383	15062
919.494	15279
919.604	15321
919.715	15184
919.826	15093
919.936	15180
920.047	15256
920.157	15169
920.267	15344
920.378	15085
920.488	15127
920.598	15165
920.708	15416
920.818	15264
920.928	15245
921.038	15408
921.148	15405
921.258	14994
921.368	14876
921.477	14788
921.587	14883
921.697	14815
921.806	14864
921.916	14610
922.025	14625
922.134	14537
922.244	14461
922.353	14560
922.462	14305
922.571	14259
922.68	14107
922.789	14130
922.898	14210
923.007	14100
923.116	14233
923.224	14126
923.333	14191
923.442	14024
923.55	13902
923.659	14016
923.767	14008
923.876	13982
923.984	13997
924.092	13826
924.201	13864
924.309	13951
924.417	13947
924.525	13822
924.633	13887
924.741	14575
924.849	13662
924.956	13715
925.064	13514
925.172	13601
925.279	13525
925.387	13396
925.494	13594
925.602	13613
925.709	13590
925.816	13400
925.924	13460
926.031	13609
926.138	13518
926.245	13529
926.352	13354
926.459	13521
926.566	13525
926.673	13449
926.779	13179
926.886	13289
926.993	13141
927.099	13129
927.206	13080
927.312	13042
927.419	13110
927.525	13088
927.631	13076
927.737	13004
927.843	12916
927.95	12795
928.056	12935
928.162	12875
928.267	12894
928.373	13559
928.479	12901
928.585	12639
928.69	12928
928.796	12897
928.901	12681
929.007	12612
929.112	12730
929.218	12760
929.323	12703
929.428	12623
929.533	12711
929.638	12464
929.743	12536
929.848	12662
929.953	12464
930.058	12460
930.163	12292
930.267	12262
930.372	12361
930.477	12235
930.581	12452
930.685	12391
930.79	12155
930.894	12213
930.998	12186
931.103	12334
931.207	11863
931.311	11748
931.415	11726
931.519	11532
931.623	11490
