Data from test_V78500241_2999.txt Node
Date: Fri Mar 25 16:02:34 CST 2022
User: usil
Spectrometer: V785-0024
Trigger mode: 0
Integration Time (sec): 4.000000E-1
Scans to average: 1
Nonlinearity correction enabled: false
Boxcar width: 0
Storing dark spectrum: false
XAxis mode: Wavelengths
Number of Pixels in Spectrum: 1024
>>>>>Begin Spectral Data<<<<<
801.071	28828
801.214	28641
801.356	28584
801.499	28512
801.641	28367
801.783	28504
801.926	28508
802.068	28447
802.211	28356
802.353	28276
802.496	28169
802.638	28128
802.78	28048
802.923	28105
803.065	27975
803.208	27953
803.35	28238
803.492	28238
803.635	28196
803.777	28177
803.919	28265
804.061	28637
804.204	28344
804.346	28204
804.488	28211
804.63	28291
804.773	28143
804.915	28447
805.057	28421
805.199	28295
805.341	28516
805.483	28691
805.626	28561
805.768	28443
805.91	28531
806.052	28630
806.194	28421
806.336	28717
806.478	28535
806.62	28447
806.762	28668
806.904	28816
807.046	29128
807.188	29044
807.33	28919
807.472	29022
807.614	28972
807.756	28957
807.898	28694
808.04	28748
808.182	28755
808.324	28850
808.465	28911
808.607	29193
808.749	29288
808.891	29284
809.033	29349
809.174	29231
809.316	29109
809.458	29197
809.6	29292
809.741	29307
809.883	29383
810.025	29277
810.166	29478
810.308	29395
810.45	29417
810.591	29414
810.733	29124
810.875	29197
811.016	29155
811.158	29010
811.299	29296
811.441	29379
811.582	29414
811.724	29273
811.865	29102
812.007	29227
812.148	29250
812.29	29223
812.431	29482
812.573	29554
812.714	29680
812.855	29684
812.997	29942
813.138	29893
813.279	29912
813.421	29832
813.562	29661
813.703	29657
813.845	29478
813.986	29254
814.127	28934
814.268	28980
814.41	28999
814.551	28968
814.692	28984
814.833	28858
814.974	28968
815.115	28835
815.256	28809
815.397	28850
815.539	28767
815.68	28698
815.821	28599
815.962	28854
816.103	28710
816.244	28668
816.385	28649
816.526	28440
816.666	28295
816.807	28303
816.948	28356
817.089	28318
817.23	28287
817.371	28207
817.512	28295
817.653	28215
817.793	28246
817.934	28135
818.075	28375
818.216	28185
818.356	28196
818.497	28105
818.638	28051
818.778	28082
818.919	27941
819.06	28067
819.2	28287
819.341	28226
819.481	28204
819.622	28485
819.762	28634
819.903	28489
820.043	28451
820.184	28398
820.324	28379
820.465	28379
820.605	28352
820.746	28390
820.886	28390
821.026	28360
821.167	28352
821.307	28318
821.447	28185
821.588	28150
821.728	28200
821.868	27975
822.008	27774
822.149	27625
822.289	27724
822.429	27530
822.569	27450
822.709	27485
822.849	27310
822.99	27237
823.13	27176
823.27	27176
823.41	27096
823.55	26986
823.69	26986
823.83	27169
823.97	27028
824.11	26914
824.25	26876
824.389	26826
824.529	26960
824.669	26868
824.809	27081
824.949	27070
825.089	27051
825.228	26979
825.368	26746
825.508	26800
825.648	26731
825.787	26933
825.927	26925
826.067	26781
826.206	26705
826.346	26785
826.485	26906
826.625	26842
826.765	26891
826.904	26895
827.044	26530
827.183	26617
827.323	26396
827.462	26568
827.601	26537
827.741	26415
827.88	26552
828.02	26374
828.159	26484
828.298	26568
828.437	26438
828.577	26469
828.716	26617
828.855	26400
828.994	26218
829.134	26237
829.273	26168
829.412	26149
829.551	26252
829.69	26172
829.829	26199
829.968	26221
830.107	26294
830.246	26206
830.385	26199
830.524	26077
830.663	26119
830.802	25875
830.941	25860
831.08	25643
831.219	25887
831.357	25849
831.496	26035
831.635	25837
831.774	25635
831.913	25712
832.051	25601
832.19	25597
832.329	25605
832.467	25559
832.606	25487
832.744	25388
832.883	25384
833.022	25544
833.16	25411
833.299	25521
833.437	25460
833.576	25609
833.714	25643
833.852	25681
833.991	25506
834.129	25544
834.267	25635
834.406	25620
834.544	25582
834.682	25487
834.821	25533
834.959	25628
835.097	25373
835.235	25586
835.373	25540
835.511	25540
835.65	25377
835.788	25441
835.926	25297
836.064	25137
836.202	25194
836.34	25453
836.478	25343
836.615	25350
836.753	25392
836.891	25468
837.029	25407
837.167	25282
837.305	25213
837.443	25194
837.58	25293
837.718	25228
837.856	25194
837.993	24973
838.131	25228
838.269	25179
838.406	25023
838.544	25069
838.681	24920
838.819	24726
838.956	24578
839.094	24696
839.231	24703
839.369	24764
839.506	25015
839.643	24935
839.781	24631
839.918	24490
840.055	24654
840.193	24642
840.33	24486
840.467	24665
840.604	24547
840.742	24867
840.879	24376
841.016	24437
841.153	24479
841.29	24707
841.427	24616
841.564	24608
841.701	24608
841.838	24490
841.975	24418
842.112	24464
842.249	24372
842.385	24403
842.522	24475
842.659	24441
842.796	24285
842.933	24372
843.069	24304
843.206	24281
843.343	24239
843.479	24361
843.616	24372
843.752	24022
843.889	24155
844.025	24266
844.162	24117
844.298	24163
844.435	24125
844.571	24060
844.708	24304
844.844	24224
844.98	24216
845.117	24114
845.253	24190
845.389	23984
845.525	23866
845.661	23870
845.798	23748
845.934	23878
846.07	23939
846.206	23984
846.342	23927
846.478	23710
846.614	23573
846.75	23505
846.886	23630
847.022	23592
847.158	23497
847.294	23543
847.429	23699
847.565	23528
847.701	23855
847.837	23258
847.972	23292
848.108	23322
848.244	23326
848.379	23223
848.515	23102
848.65	23246
848.786	23113
848.921	23162
849.057	23208
849.192	23311
849.328	23174
849.463	23117
849.598	23109
849.734	23060
849.869	22999
850.004	23029
850.14	22930
850.275	22900
850.41	22790
850.545	22873
850.68	22934
850.815	22927
850.95	22831
851.085	23029
851.22	22991
851.355	22968
851.49	22820
851.625	22850
851.76	22866
851.895	22869
852.03	22881
852.165	22809
852.299	23025
852.434	22927
852.569	23010
852.703	22828
852.838	22957
852.973	22987
853.107	23037
853.242	22820
853.376	22721
853.511	22672
853.645	22694
853.78	22957
853.914	22717
854.048	22771
854.183	22786
854.317	22755
854.451	22889
854.585	22717
854.72	22786
854.854	22873
854.988	22660
855.122	22740
855.256	22580
855.39	22752
855.524	22820
855.658	22839
855.792	22706
855.926	22801
856.06	22672
856.194	22828
856.327	22675
856.461	22656
856.595	22763
856.729	22664
856.862	22801
856.996	22755
857.13	22816
857.263	22805
857.397	22812
857.53	22736
857.664	22782
857.797	22782
857.931	22801
858.064	22824
858.197	22843
858.331	22691
858.464	22748
858.597	22622
858.731	22664
858.864	22683
858.997	22664
859.13	22611
859.263	22592
859.396	22759
859.529	22740
859.662	22641
859.795	22607
859.928	22900
860.061	22885
860.194	22938
860.327	22698
860.46	22713
860.592	22957
860.725	22892
860.858	22889
860.99	22706
861.123	22752
861.256	22653
861.388	22755
861.521	23547
861.653	22588
861.786	22485
861.918	22405
862.05	22542
862.183	22611
862.315	22653
862.447	22725
862.58	22611
862.712	22561
862.844	22375
862.976	22466
863.108	22592
863.24	22831
863.372	22443
863.504	22394
863.636	22508
863.768	22489
863.9	22455
864.032	22284
864.164	22443
864.296	22409
864.428	22512
864.559	22424
864.691	22455
864.823	22455
864.954	22421
865.086	22470
865.217	22306
865.349	22147
865.48	22207
865.612	22287
865.743	22440
865.875	22257
866.006	22257
866.137	22333
866.269	22303
866.4	22337
866.531	22211
866.662	22116
866.793	22268
866.924	22234
867.055	22211
867.186	22200
867.317	22196
867.448	22109
867.579	22287
867.71	22135
867.841	22192
867.972	22303
868.103	22215
868.233	22158
868.364	22135
868.495	22352
868.625	22481
868.756	22573
868.886	22436
869.017	22402
869.147	22550
869.278	22626
869.408	22436
869.539	22531
869.669	22596
869.799	22538
869.929	22649
870.06	22607
870.19	22820
870.32	22752
870.45	22702
870.58	22782
870.71	22889
870.84	23022
870.97	22843
871.1	22869
871.23	22919
871.36	23151
871.489	22980
871.619	23086
871.749	23025
871.879	23067
872.008	23121
872.138	23037
872.267	23033
872.397	22995
872.526	22915
872.656	22862
872.785	22847
872.915	23094
873.044	23075
873.173	23010
873.303	23041
873.432	23170
873.561	23204
873.69	23151
873.819	22976
873.948	23197
874.077	23204
874.206	22999
874.335	22980
874.464	23197
874.593	23330
874.722	23337
874.851	23368
874.979	23334
875.108	23368
875.237	23140
875.365	23200
875.494	23227
875.623	23353
875.751	23254
875.88	23406
876.008	23497
876.136	23531
876.265	23771
876.393	23931
876.521	23707
876.65	23665
876.778	23691
876.906	23676
877.034	23581
877.162	23573
877.29	23638
877.418	23817
877.546	23581
877.674	23562
877.802	23668
877.93	23657
878.058	23611
878.185	23649
878.313	23520
878.441	23596
878.568	23356
878.696	23505
878.824	23585
878.951	23684
879.079	23771
879.206	23859
879.333	23809
879.461	23596
879.588	23794
879.715	23745
879.842	23977
879.97	23699
880.097	23486
880.224	23501
880.351	23383
880.478	23417
880.605	23345
880.732	23425
880.859	23703
880.986	23444
881.112	23558
881.239	23349
881.366	23086
881.493	23098
881.619	22915
881.746	23010
881.872	23075
881.999	22930
882.125	22843
882.252	23079
882.378	22930
882.505	23056
882.631	22900
882.757	22668
882.883	22858
883.01	22786
883.136	22596
883.262	22538
883.388	22512
883.514	22653
883.64	22755
883.766	22535
883.892	22443
884.018	22409
884.143	22603
884.269	22630
884.395	22424
884.52	22303
884.646	22325
884.772	22219
884.897	22303
885.023	22390
885.148	22329
885.274	22421
885.399	22417
885.524	22402
885.65	22398
885.775	22402
885.9	22348
886.025	22386
886.15	22341
886.275	22276
886.4	22086
886.525	22314
886.65	22246
886.775	22333
886.9	22333
887.025	22538
887.149	22230
887.274	22074
887.399	22120
887.523	22192
887.648	22116
887.773	21960
887.897	22105
888.021	22143
888.146	22040
888.27	22093
888.395	22131
888.519	22169
888.643	22086
888.767	22120
888.891	21998
889.015	21926
889.139	21842
889.263	21789
889.387	21972
889.511	22112
889.635	22048
889.759	21998
889.883	21922
890.006	21911
890.13	21926
890.254	21652
890.377	21812
890.501	21690
890.624	21473
890.748	21690
890.871	21587
890.995	21416
891.118	21481
891.241	21466
891.364	21355
891.488	21481
891.611	21447
891.734	21298
891.857	21511
891.98	21401
892.103	21488
892.226	21534
892.349	21302
892.471	21176
892.594	21279
892.717	21291
892.839	21401
892.962	21344
893.085	21454
893.207	21237
893.33	21241
893.452	21272
893.575	21420
893.697	21222
893.819	21428
893.941	21420
894.064	21466
894.186	21359
894.308	21222
894.43	21283
894.552	21481
894.674	21287
894.796	21184
894.918	21203
895.04	21252
895.161	21397
895.283	21275
895.405	21241
895.526	21233
895.648	21291
895.769	21249
895.891	21287
896.012	21344
896.134	21226
896.255	21218
896.376	21260
896.498	21199
896.619	21287
896.74	21214
896.861	21279
896.982	21568
897.103	21709
897.224	21553
897.345	21523
897.466	21511
897.587	21515
897.708	21564
897.828	21481
897.949	21435
898.07	21367
898.19	21382
898.311	21561
898.431	21485
898.552	21420
898.672	21534
898.792	21587
898.913	21412
899.033	21256
899.153	21279
899.273	21161
899.393	21116
899.513	21214
899.633	21157
899.753	21176
899.873	21013
899.993	21237
900.113	21218
900.232	21123
900.352	21142
900.472	20941
900.591	20849
900.711	20944
900.83	20746
900.95	21051
901.069	21070
901.189	20785
901.308	20571
901.427	20621
901.546	20594
901.665	20602
901.784	20518
901.904	20473
902.023	20332
902.141	20069
902.26	20031
902.379	20142
902.498	20016
902.617	19978
902.735	19997
902.854	20024
902.973	19970
903.091	19700
903.21	19578
903.328	19693
903.446	19594
903.565	19464
903.683	19518
903.801	19415
903.919	19434
904.038	19350
904.156	19232
904.274	19350
904.392	19171
904.51	19122
904.627	19145
904.745	19148
904.863	19187
904.981	19004
905.098	18977
905.216	18909
905.334	19004
905.451	18719
905.569	18817
905.686	18947
905.803	18738
905.921	18833
906.038	18764
906.155	18696
906.272	18578
906.389	18616
906.506	18471
906.623	18418
906.74	18452
906.857	18270
906.974	18315
907.091	18460
907.208	18559
907.324	18525
907.441	18247
907.557	18220
907.674	18155
907.79	18106
907.907	18053
908.023	18106
908.139	18098
908.256	18011
908.372	17999
908.488	17889
908.604	17832
908.72	17916
908.836	17901
908.952	17745
909.068	17809
909.184	17885
909.3	17859
909.415	17893
909.531	17920
909.647	17577
909.762	17638
909.878	17467
909.993	17520
910.108	17414
910.224	17501
910.339	17482
910.454	17474
910.57	17406
910.685	17235
910.8	17520
910.915	17532
911.03	17273
911.145	17170
911.259	17277
911.374	17166
911.489	17083
911.604	16961
911.718	16816
911.833	16900
911.947	16774
912.062	16611
912.176	16904
912.291	16854
912.405	16828
912.519	17094
912.633	16961
912.748	16858
912.862	16812
912.976	16615
913.09	16531
913.204	16649
913.318	16740
913.431	16706
913.545	16733
913.659	16778
913.772	16577
913.886	16554
914	16409
914.113	16485
914.226	16527
914.34	16561
914.453	16379
914.566	16440
914.68	16344
914.793	16268
914.906	16093
915.019	16040
915.132	15972
915.245	15956
915.358	16067
915.47	16063
915.583	15934
915.696	16158
915.809	16223
915.921	16162
916.034	16078
916.146	15956
916.259	15941
916.371	16010
916.483	15945
916.595	15907
916.708	15857
916.82	15842
916.932	15816
917.044	15778
917.156	15732
917.268	15637
917.38	15663
917.491	15599
917.603	15652
917.715	15679
917.826	15800
917.938	15633
918.049	15393
918.161	15561
918.272	15778
918.384	15633
918.495	15580
918.606	15450
918.717	15382
918.828	15408
918.939	15367
919.05	15344
919.161	15401
919.272	15245
919.383	15279
919.494	15348
919.604	15584
919.715	15283
919.826	15222
919.936	15306
920.047	15428
920.157	15378
920.267	15534
920.378	15469
920.488	15355
920.598	15389
920.708	15599
920.818	15477
920.928	15443
921.038	15633
921.148	15576
921.258	15233
921.368	15214
921.477	15112
921.587	15097
921.697	14868
921.806	14994
921.916	14910
922.025	14765
922.134	14716
922.244	14659
922.353	14701
922.462	14625
922.571	14503
922.68	14381
922.789	14237
922.898	14278
923.007	14313
923.116	14358
923.224	14355
923.333	14195
923.442	14183
923.55	14145
923.659	14172
923.767	14263
923.876	14149
923.984	14187
924.092	13959
924.201	14096
924.309	14012
924.417	14069
924.525	13974
924.633	13925
924.741	14762
924.849	13696
924.956	13921
925.064	13742
925.172	13601
925.279	13807
925.387	13780
925.494	13670
925.602	13856
925.709	13734
925.816	13571
925.924	13639
926.031	13693
926.138	13575
926.245	13590
926.352	13563
926.459	13639
926.566	13655
926.673	13594
926.779	13449
926.886	13438
926.993	13152
927.099	13221
927.206	13232
927.312	13164
927.419	13301
927.525	13202
927.631	13270
927.737	13076
927.843	13114
927.95	12897
928.056	13088
928.162	13042
928.267	13050
928.373	13746
928.479	13088
928.585	12966
928.69	12977
928.796	12996
928.901	12821
929.007	12745
929.112	12825
929.218	12856
929.323	12757
929.428	12707
929.533	12833
929.638	12703
929.743	12662
929.848	12700
929.953	12631
930.058	12593
930.163	12456
930.267	12426
930.372	12593
930.477	12403
930.581	12665
930.685	12414
930.79	12281
930.894	12251
930.998	12273
931.103	12441
931.207	12098
931.311	11999
931.415	11836
931.519	11684
931.623	11688
