Data from test_V78500241_2024.txt Node
Date: Fri Mar 25 15:55:49 CST 2022
User: usil
Spectrometer: V785-0024
Trigger mode: 0
Integration Time (sec): 4.000000E-1
Scans to average: 1
Nonlinearity correction enabled: false
Boxcar width: 0
Storing dark spectrum: false
XAxis mode: Wavelengths
Number of Pixels in Spectrum: 1024
>>>>>Begin Spectral Data<<<<<
801.071	28569
801.214	28561
801.356	28352
801.499	28249
801.641	28211
801.783	28090
801.926	28261
802.068	28143
802.211	28128
802.353	28044
802.496	27888
802.638	27876
802.78	27759
802.923	27831
803.065	27561
803.208	27637
803.35	27732
803.492	27857
803.635	28059
803.777	27956
803.919	28090
804.061	28497
804.204	28185
804.346	28074
804.488	28082
804.63	28128
804.773	27956
804.915	28120
805.057	28051
805.199	28192
805.341	28093
805.483	28173
805.626	28116
805.768	27941
805.91	28116
806.052	28196
806.194	28021
806.336	28409
806.478	28223
806.62	28215
806.762	28352
806.904	28367
807.046	28637
807.188	28660
807.33	28641
807.472	28725
807.614	28485
807.756	28675
807.898	28618
808.04	28489
808.182	28508
808.324	28493
808.465	28660
808.607	28790
808.749	28915
808.891	29033
809.033	29022
809.174	28991
809.316	28831
809.458	28816
809.6	28919
809.741	28965
809.883	29052
810.025	29132
810.166	29235
810.308	29174
810.45	29170
810.591	29181
810.733	28942
810.875	28740
811.016	28888
811.158	28793
811.299	28938
811.441	29037
811.582	29033
811.724	28816
811.865	28904
812.007	28896
812.148	28923
812.29	29010
812.431	29143
812.573	29258
812.714	29341
812.855	29341
812.997	29490
813.138	29634
813.279	29596
813.421	29353
813.562	29391
813.703	29197
813.845	29117
813.986	28774
814.127	28656
814.268	28691
814.41	28596
814.551	28675
814.692	28786
814.833	28519
814.974	28592
815.115	28713
815.256	28451
815.397	28550
815.539	28348
815.68	28462
815.821	28246
815.962	28287
816.103	28344
816.244	28150
816.385	28352
816.526	28055
816.666	27987
816.807	27835
816.948	27945
817.089	27979
817.23	27812
817.371	27876
817.512	27907
817.653	27979
817.793	27895
817.934	27991
818.075	27892
818.216	27983
818.356	27857
818.497	27869
818.638	27766
818.778	27568
818.919	27751
819.06	27709
819.2	27789
819.341	28006
819.481	27846
819.622	28086
819.762	28143
819.903	28078
820.043	28124
820.184	27907
820.324	28112
820.465	28131
820.605	28029
820.746	28010
820.886	27884
821.026	27979
821.167	28059
821.307	28059
821.447	27842
821.588	27842
821.728	27781
821.868	27576
822.008	27473
822.149	27378
822.289	27462
822.429	27135
822.569	27146
822.709	27192
822.849	26986
822.99	26937
823.13	26975
823.27	26743
823.41	26697
823.55	26674
823.69	26648
823.83	26727
823.97	26609
824.11	26434
824.25	26499
824.389	26442
824.529	26689
824.669	26571
824.809	26678
824.949	26549
825.089	26655
825.228	26640
825.368	26427
825.508	26317
825.648	26419
825.787	26457
825.927	26522
826.067	26423
826.206	26233
826.346	26453
826.485	26552
826.625	26324
826.765	26480
826.904	26339
827.044	26180
827.183	26202
827.323	26111
827.462	26286
827.601	26172
827.741	26252
827.88	26252
828.02	25940
828.159	26138
828.298	26191
828.437	26191
828.577	26096
828.716	26298
828.855	25993
828.994	25799
829.134	25753
829.273	25811
829.412	25822
829.551	25784
829.69	25738
829.829	25807
829.968	25970
830.107	25852
830.246	25731
830.385	25875
830.524	25685
830.663	25605
830.802	25548
830.941	25453
831.08	25445
831.219	25548
831.357	25457
831.496	25757
831.635	25457
831.774	25441
831.913	25324
832.051	25228
832.19	25114
832.329	25206
832.467	25168
832.606	25137
832.744	25274
832.883	25038
833.022	25042
833.16	25171
833.299	25076
833.437	25148
833.576	25179
833.714	25236
833.852	25324
833.991	25179
834.129	25285
834.267	25278
834.406	25091
834.544	25148
834.682	25190
834.821	25152
834.959	25354
835.097	25122
835.235	25080
835.373	25232
835.511	25118
835.65	25050
835.788	25183
835.926	25042
836.064	24829
836.202	24833
836.34	24928
836.478	25107
836.615	24977
836.753	25004
836.891	24992
837.029	25031
837.167	24909
837.305	24795
837.443	24913
837.58	24825
837.718	24970
837.856	24802
837.993	24665
838.131	24776
838.269	24654
838.406	24703
838.544	24654
838.681	24532
838.819	24601
838.956	24213
839.094	24315
839.231	24353
839.369	24448
839.506	24688
839.643	24525
839.781	24407
839.918	24110
840.055	24327
840.193	24213
840.33	24262
840.467	24102
840.604	24167
840.742	24540
840.879	24057
841.016	24133
841.153	24064
841.29	24258
841.427	24194
841.564	24201
841.701	24148
841.838	24072
841.975	24041
842.112	24003
842.249	24018
842.385	24022
842.522	24167
842.659	24007
842.796	23969
842.933	23897
843.069	23958
843.206	23878
843.343	24041
843.479	23897
843.616	23836
843.752	23642
843.889	23733
844.025	23821
844.162	23684
844.298	23863
844.435	23809
844.571	23611
844.708	23767
844.844	23935
844.98	23923
845.117	23741
845.253	23710
845.389	23649
845.525	23501
845.661	23505
845.798	23455
845.934	23395
846.07	23486
846.206	23516
846.342	23573
846.478	23383
846.614	23242
846.75	23181
846.886	23071
847.022	23159
847.158	23231
847.294	23277
847.429	23208
847.565	23003
847.701	23395
847.837	22797
847.972	22862
848.108	22995
848.244	22923
848.379	22793
848.515	22801
848.65	22767
848.786	22790
848.921	22843
849.057	22965
849.192	22713
849.328	22835
849.463	22740
849.598	22820
849.734	22634
849.869	22599
850.004	22615
850.14	22580
850.275	22622
850.41	22424
850.545	22596
850.68	22489
850.815	22497
850.95	22500
851.085	22721
851.22	22573
851.355	22611
851.49	22599
851.625	22489
851.76	22500
851.895	22371
852.03	22489
852.165	22523
852.299	22706
852.434	22588
852.569	22516
852.703	22577
852.838	22493
852.973	22736
853.107	22580
853.242	22466
853.376	22390
853.511	22185
853.645	22344
853.78	22474
853.914	22325
854.048	22379
854.183	22379
854.317	22375
854.451	22474
854.585	22394
854.72	22337
854.854	22447
854.988	22128
855.122	22398
855.256	22188
855.39	22348
855.524	22352
855.658	22356
855.792	22310
855.926	22314
856.06	22531
856.194	22546
856.327	22265
856.461	22371
856.595	22333
856.729	22280
856.862	22440
856.996	22272
857.13	22314
857.263	22516
857.397	22565
857.53	22405
857.664	22413
857.797	22291
857.931	22455
858.064	22390
858.197	22542
858.331	22352
858.464	22265
858.597	22287
858.731	22295
858.864	22481
858.997	22379
859.13	22299
859.263	22268
859.396	22367
859.529	22341
859.662	22344
859.795	22379
859.928	22325
860.061	22436
860.194	22466
860.327	22329
860.46	22424
860.592	22462
860.725	22424
860.858	22512
860.99	22390
861.123	22162
861.256	22253
861.388	22356
861.521	23170
861.653	22272
861.786	22105
861.918	22215
862.05	22219
862.183	22325
862.315	22314
862.447	22295
862.58	22436
862.712	22021
862.844	22029
862.976	22044
863.108	22166
863.24	22409
863.372	22013
863.504	21991
863.636	22090
863.768	22131
863.9	22029
864.032	22010
864.164	22040
864.296	22097
864.428	22223
864.559	22051
864.691	22063
864.823	22002
864.954	22010
865.086	22051
865.217	21880
865.349	21899
865.48	21953
865.612	21926
865.743	21972
865.875	21972
866.006	21960
866.137	21842
866.269	21991
866.4	21956
866.531	21781
866.662	21804
866.793	21797
866.924	21850
867.055	21888
867.186	21850
867.317	21850
867.448	21850
867.579	21861
867.71	21778
867.841	21835
867.972	21835
868.103	21827
868.233	21869
868.364	21861
868.495	21934
868.625	22006
868.756	22112
868.886	22010
869.017	22135
869.147	22265
869.278	22188
869.408	22078
869.539	22135
869.669	22158
869.799	22230
869.929	22154
870.06	22158
870.19	22287
870.32	22219
870.45	22409
870.58	22538
870.71	22565
870.84	22630
870.97	22459
871.1	22382
871.23	22599
871.36	22588
871.489	22519
871.619	22565
871.749	22637
871.879	22702
872.008	22733
872.138	22729
872.267	22687
872.397	22580
872.526	22523
872.656	22561
872.785	22455
872.915	22649
873.044	22759
873.173	22660
873.303	22744
873.432	22736
873.561	22850
873.69	22694
873.819	22733
873.948	22820
874.077	22797
874.206	22656
874.335	22641
874.464	22805
874.593	22816
874.722	22938
874.851	22934
874.979	22991
875.108	22980
875.237	22892
875.365	22759
875.494	22839
875.623	22999
875.751	23014
875.88	22949
876.008	23090
876.136	23155
876.265	23417
876.393	23349
876.521	23337
876.65	23417
876.778	23258
876.906	23258
877.034	23162
877.162	23250
877.29	23280
877.418	23174
877.546	23387
877.674	23227
877.802	23162
877.93	23277
878.058	23261
878.185	23174
878.313	23181
878.441	23265
878.568	23189
878.696	23261
878.824	23212
878.951	23307
879.079	23383
879.206	23493
879.333	23444
879.461	23277
879.588	23360
879.715	23417
879.842	23581
879.97	23250
880.097	23086
880.224	23025
880.351	23136
880.478	23056
880.605	22995
880.732	23064
880.859	23280
880.986	22930
881.112	23052
881.239	22965
881.366	22858
881.493	22824
881.619	22664
881.746	22694
881.872	22561
881.999	22596
882.125	22523
882.252	22668
882.378	22618
882.505	22626
882.631	22561
882.757	22344
882.883	22352
883.01	22371
883.136	22306
883.262	22158
883.388	22196
883.514	22253
883.64	22348
883.766	22246
883.892	22097
884.018	22230
884.143	22265
884.269	22272
884.395	22059
884.52	21987
884.646	21983
884.772	21861
884.897	21911
885.023	21880
885.148	21930
885.274	22169
885.399	22051
885.524	21968
885.65	21968
885.775	21911
885.9	22063
886.025	22116
886.15	22048
886.275	21930
886.4	21911
886.525	21888
886.65	21892
886.775	21873
886.9	21972
887.025	22158
887.149	21804
887.274	21831
887.399	21880
887.523	21705
887.648	21720
887.773	21644
887.897	21701
888.021	21827
888.146	21743
888.27	21759
888.395	21739
888.519	21675
888.643	21819
888.767	21804
888.891	21671
889.015	21530
889.139	21523
889.263	21507
889.387	21564
889.511	21671
889.635	21644
889.759	21538
889.883	21496
890.006	21568
890.13	21686
890.254	21355
890.377	21321
890.501	21154
890.624	21096
890.748	21363
890.871	21112
890.995	21066
891.118	21077
891.241	21127
891.364	21062
891.488	21207
891.611	21043
891.734	20929
891.857	21055
891.98	20979
892.103	21020
892.226	21108
892.349	20952
892.471	20880
892.594	20963
892.717	20921
892.839	20979
892.962	20963
893.085	21051
893.207	21070
893.33	20788
893.452	20792
893.575	20929
893.697	20948
893.819	21005
893.941	21093
894.064	21028
894.186	20891
894.308	20876
894.43	20941
894.552	21074
894.674	20929
894.796	20792
894.918	20918
895.04	20815
895.161	20933
895.283	20998
895.405	20925
895.526	20960
895.648	20857
895.769	21047
895.891	20952
896.012	21127
896.134	20963
896.255	21066
896.376	20952
896.498	20952
896.619	20925
896.74	20902
896.861	20895
896.982	21287
897.103	21405
897.224	21127
897.345	21127
897.466	21100
897.587	21199
897.708	21268
897.828	21176
897.949	21001
898.07	20975
898.19	21032
898.311	21272
898.431	21146
898.552	21051
898.672	21195
898.792	21188
898.913	21005
899.033	21047
899.153	20994
899.273	20743
899.393	20826
899.513	20979
899.633	20948
899.753	20967
899.873	20769
899.993	20876
900.113	20842
900.232	20853
900.352	20727
900.472	20697
900.591	20693
900.711	20598
900.83	20533
900.95	20773
901.069	20674
901.189	20549
901.308	20347
901.427	20199
901.546	20199
901.665	20183
901.784	20164
901.904	19997
902.023	20012
902.141	19826
902.26	19757
902.379	19734
902.498	19757
902.617	19734
902.735	19750
902.854	19704
902.973	19635
903.091	19308
903.21	19213
903.328	19362
903.446	19316
903.565	19129
903.683	19187
903.801	19053
903.919	19122
904.038	19099
904.156	18905
904.274	18985
904.392	18935
904.51	18973
904.627	18894
904.745	18989
904.863	18928
904.981	18787
905.098	18703
905.216	18604
905.334	18646
905.451	18639
905.569	18566
905.686	18578
905.803	18650
905.921	18296
906.038	18464
906.155	18353
906.272	18346
906.389	18289
906.506	18133
906.623	18083
906.74	18136
906.857	17992
906.974	18152
907.091	18190
907.208	18315
907.324	18167
907.441	17980
907.557	17904
907.674	17859
907.79	17866
907.907	17824
908.023	17859
908.139	17779
908.256	17733
908.372	17775
908.488	17748
908.604	17554
908.72	17532
908.836	17570
908.952	17471
909.068	17562
909.184	17634
909.3	17566
909.415	17577
909.531	17528
909.647	17246
909.762	17223
909.878	17216
909.993	17204
910.108	17178
910.224	17284
910.339	17242
910.454	17117
910.57	17098
910.685	16934
910.8	17242
910.915	17178
911.03	17025
911.145	16862
911.259	16786
911.374	16763
911.489	16725
911.604	16626
911.718	16626
911.833	16618
911.947	16443
912.062	16417
912.176	16580
912.291	16519
912.405	16588
912.519	16713
912.633	16713
912.748	16710
912.862	16504
912.976	16287
913.09	16265
913.204	16352
913.318	16462
913.431	16405
913.545	16523
913.659	16440
913.772	16436
913.886	16162
914	16128
914.113	16215
914.226	16272
914.34	16249
914.453	16082
914.566	16276
914.68	16059
914.793	16036
914.906	15899
915.019	15797
915.132	15660
915.245	15774
915.358	15739
915.47	15762
915.583	15774
915.696	15759
915.809	15857
915.921	15827
916.034	15762
916.146	15660
916.259	15644
916.371	15812
916.483	15743
916.595	15663
916.708	15603
916.82	15564
916.932	15564
917.044	15515
917.156	15526
917.268	15378
917.38	15374
917.491	15447
917.603	15462
917.715	15424
917.826	15424
917.938	15382
918.049	15272
918.161	15336
918.272	15367
918.384	15443
918.495	15272
918.606	15211
918.717	15039
918.828	15161
918.939	15043
919.05	15039
919.161	15058
919.272	14853
919.383	14971
919.494	15112
919.604	15351
919.715	15150
919.826	14998
919.936	15001
920.047	15146
920.157	15051
920.267	15272
920.378	15119
920.488	14990
920.598	15291
920.708	15325
920.818	15195
920.928	15104
921.038	15329
921.148	15310
921.258	15005
921.368	14880
921.477	14868
921.587	14754
921.697	14750
921.806	14853
921.916	14610
922.025	14518
922.134	14461
922.244	14385
922.353	14552
922.462	14320
922.571	14221
922.68	14058
922.789	14077
922.898	14012
923.007	13978
923.116	14096
923.224	13955
923.333	13906
923.442	13894
923.55	13909
923.659	13974
923.767	13894
923.876	13883
923.984	13932
924.092	13784
924.201	13868
924.309	13803
924.417	13795
924.525	13784
924.633	13784
924.741	14412
924.849	13476
924.956	13685
925.064	13434
925.172	13415
925.279	13521
925.387	13415
925.494	13506
925.602	13518
925.709	13613
925.816	13369
925.924	13472
926.031	13552
926.138	13384
926.245	13449
926.352	13278
926.459	13457
926.566	13506
926.673	13304
926.779	13320
926.886	13221
926.993	13110
927.099	13019
927.206	12951
927.312	12878
927.419	12958
927.525	13019
927.631	13004
927.737	13008
927.843	12913
927.95	12692
928.056	12882
928.162	12913
928.267	12913
928.373	13369
928.479	12916
928.585	12570
928.69	12776
928.796	12848
928.901	12608
929.007	12517
929.112	12662
929.218	12627
929.323	12612
929.428	12563
929.533	12563
929.638	12464
929.743	12528
929.848	12460
929.953	12456
930.058	12372
930.163	12281
930.267	12285
930.372	12266
930.477	12186
930.581	12407
930.685	12262
930.79	12125
930.894	12076
930.998	12125
931.103	12262
931.207	11805
931.311	11676
931.415	11699
931.519	11459
931.623	11493
