Data from test_V78500241_936.txt Node
Date: Fri Mar 25 15:48:17 CST 2022
User: usil
Spectrometer: V785-0024
Trigger mode: 0
Integration Time (sec): 4.000000E-1
Scans to average: 1
Nonlinearity correction enabled: false
Boxcar width: 0
Storing dark spectrum: false
XAxis mode: Wavelengths
Number of Pixels in Spectrum: 1024
>>>>>Begin Spectral Data<<<<<
801.071	28580
801.214	28379
801.356	28196
801.499	28352
801.641	28063
801.783	28112
801.926	28150
802.068	28238
802.211	27991
802.353	28032
802.496	27869
802.638	27720
802.78	27907
802.923	27835
803.065	27720
803.208	27641
803.35	27842
803.492	27789
803.635	28002
803.777	27880
803.919	27960
804.061	28348
804.204	28059
804.346	27998
804.488	27895
804.63	28135
804.773	27937
804.915	27903
805.057	28162
805.199	27998
805.341	28128
805.483	28261
805.626	28147
805.768	28207
805.91	28158
806.052	28154
806.194	28055
806.336	28363
806.478	28166
806.62	28154
806.762	28306
806.904	28394
807.046	28656
807.188	28797
807.33	28603
807.472	28721
807.614	28615
807.756	28508
807.898	28512
808.04	28382
808.182	28519
808.324	28493
808.465	28596
808.607	28626
808.749	28820
808.891	28873
809.033	29044
809.174	28812
809.316	28816
809.458	28949
809.6	28812
809.741	29052
809.883	29079
810.025	29174
810.166	29193
810.308	29242
810.45	29140
810.591	29029
810.733	28961
810.875	29044
811.016	28790
811.158	28744
811.299	29014
811.441	29044
811.582	28984
811.724	29075
811.865	28930
812.007	29025
812.148	28892
812.29	28965
812.431	29056
812.573	29341
812.714	29337
812.855	29353
812.997	29573
813.138	29638
813.279	29657
813.421	29516
813.562	29452
813.703	29337
813.845	29025
813.986	28888
814.127	28767
814.268	28641
814.41	28584
814.551	28554
814.692	28721
814.833	28599
814.974	28630
815.115	28584
815.256	28504
815.397	28421
815.539	28592
815.68	28440
815.821	28318
815.962	28466
816.103	28379
816.244	28287
816.385	28181
816.526	28409
816.666	27972
816.807	27888
816.948	28109
817.089	28150
817.23	28082
817.371	27987
817.512	27960
817.653	27956
817.793	27789
817.934	27968
818.075	28067
818.216	27895
818.356	27865
818.497	27774
818.638	27583
818.778	27770
818.919	27622
819.06	27622
819.2	27903
819.341	27793
819.481	27865
819.622	28086
819.762	28215
819.903	28162
820.043	28147
820.184	28158
820.324	28040
820.465	28135
820.605	27968
820.746	28086
820.886	27907
821.026	28021
821.167	28032
821.307	28166
821.447	28093
821.588	27983
821.728	27690
821.868	27686
822.008	27340
822.149	27431
822.289	27458
822.429	27058
822.569	27085
822.709	27093
822.849	26880
822.99	26914
823.13	26899
823.27	26842
823.41	26762
823.55	26640
823.69	26807
823.83	26796
823.97	26720
824.11	26564
824.25	26648
824.389	26644
824.529	26621
824.669	26629
824.809	26663
824.949	26765
825.089	26659
825.228	26651
825.368	26431
825.508	26514
825.648	26423
825.787	26400
825.927	26708
826.067	26408
826.206	26587
826.346	26514
826.485	26450
826.625	26522
826.765	26621
826.904	26461
827.044	26240
827.183	26126
827.323	25997
827.462	26294
827.601	26351
827.741	26077
827.88	26252
828.02	26081
828.159	26145
828.298	26187
828.437	26237
828.577	26115
828.716	26286
828.855	26115
828.994	25894
829.134	25833
829.273	25902
829.412	25951
829.551	25750
829.69	25868
829.829	25982
829.968	25940
830.107	25925
830.246	25780
830.385	25909
830.524	25742
830.663	25696
830.802	25525
830.941	25441
831.08	25495
831.219	25620
831.357	25693
831.496	25734
831.635	25362
831.774	25369
831.913	25506
832.051	25247
832.19	25194
832.329	25221
832.467	25274
832.606	25099
832.744	25190
832.883	25221
833.022	25190
833.16	25251
833.299	25088
833.437	25247
833.576	25274
833.714	25179
833.852	25171
833.991	25251
834.129	25312
834.267	25285
834.406	25129
834.544	25228
834.682	25118
834.821	25213
834.959	25324
835.097	25114
835.235	25232
835.373	25156
835.511	25236
835.65	25072
835.788	25107
835.926	24905
836.064	24894
836.202	24848
836.34	25072
836.478	25156
836.615	25069
836.753	25015
836.891	25171
837.029	24985
837.167	24992
837.305	25008
837.443	24882
837.58	24791
837.718	24962
837.856	24840
837.993	24817
838.131	24844
838.269	24715
838.406	24757
838.544	24677
838.681	24555
838.819	24483
838.956	24380
839.094	24372
839.231	24384
839.369	24525
839.506	24821
839.643	24627
839.781	24357
839.918	24273
840.055	24315
840.193	24270
840.33	24152
840.467	24213
840.604	24220
840.742	24498
840.879	24018
841.016	24167
841.153	24254
841.29	24258
841.427	24270
841.564	24315
841.701	24171
841.838	24098
841.975	24152
842.112	24216
842.249	24079
842.385	23904
842.522	24148
842.659	24178
842.796	23882
842.933	24034
843.069	23988
843.206	23992
843.343	24072
843.479	24011
843.616	24007
843.752	23726
843.889	23718
844.025	23847
844.162	23585
844.298	23878
844.435	23843
844.571	23547
844.708	23718
844.844	23863
844.98	23946
845.117	23802
845.253	23718
845.389	23623
845.525	23611
845.661	23653
845.798	23543
845.934	23531
846.07	23425
846.206	23463
846.342	23570
846.478	23570
846.614	23216
846.75	23193
846.886	23128
847.022	23220
847.158	23280
847.294	23341
847.429	23105
847.565	23098
847.701	23326
847.837	22892
847.972	22965
848.108	23022
848.244	22991
848.379	22786
848.515	22866
848.65	22736
848.786	22831
848.921	22763
849.057	22915
849.192	22854
849.328	22835
849.463	22797
849.598	22733
849.734	22831
849.869	22550
850.004	22584
850.14	22615
850.275	22478
850.41	22512
850.545	22516
850.68	22497
850.815	22599
850.95	22554
851.085	22694
851.22	22596
851.355	22508
851.49	22603
851.625	22546
851.76	22512
851.895	22432
852.03	22588
852.165	22493
852.299	22592
852.434	22577
852.569	22596
852.703	22607
852.838	22580
852.973	22748
853.107	22641
853.242	22542
853.376	22538
853.511	22246
853.645	22299
853.78	22573
853.914	22382
854.048	22314
854.183	22322
854.317	22371
854.451	22489
854.585	22352
854.72	22432
854.854	22344
854.988	22166
855.122	22299
855.256	22230
855.39	22261
855.524	22428
855.658	22417
855.792	22421
855.926	22352
856.06	22398
856.194	22413
856.327	22219
856.461	22204
856.595	22386
856.729	22272
856.862	22489
856.996	22462
857.13	22325
857.263	22329
857.397	22409
857.53	22382
857.664	22432
857.797	22489
857.931	22504
858.064	22348
858.197	22409
858.331	22367
858.464	22257
858.597	22147
858.731	22299
858.864	22223
858.997	22276
859.13	22314
859.263	22322
859.396	22474
859.529	22268
859.662	22238
859.795	22398
859.928	22466
860.061	22554
860.194	22394
860.327	22329
860.46	22371
860.592	22455
860.725	22580
860.858	22466
860.99	22375
861.123	22211
861.256	22169
861.388	22299
861.521	22984
861.653	22185
861.786	22169
861.918	22116
862.05	22333
862.183	22398
862.315	22295
862.447	22318
862.58	22226
862.712	22093
862.844	22097
862.976	22242
863.108	22143
863.24	22246
863.372	22040
863.504	22082
863.636	22105
863.768	22097
863.9	21968
864.032	21975
864.164	22055
864.296	22055
864.428	22246
864.559	22059
864.691	22154
864.823	22025
864.954	22051
865.086	22002
865.217	21884
865.349	21926
865.48	21918
865.612	21915
865.743	22070
865.875	22048
866.006	21945
866.137	21895
866.269	21991
866.4	21876
866.531	21827
866.662	21892
866.793	21895
866.924	21956
867.055	21903
867.186	21812
867.317	21876
867.448	21876
867.579	21892
867.71	21648
867.841	21682
867.972	21880
868.103	21816
868.233	21857
868.364	21865
868.495	22032
868.625	22124
868.756	22291
868.886	22051
869.017	22128
869.147	22166
869.278	22268
869.408	22169
869.539	21983
869.669	22265
869.799	22280
869.929	22299
870.06	22249
870.19	22409
870.32	22512
870.45	22523
870.58	22409
870.71	22599
870.84	22596
870.97	22508
871.1	22443
871.23	22691
871.36	22664
871.489	22607
871.619	22660
871.749	22721
871.879	22786
872.008	22824
872.138	22702
872.267	22653
872.397	22565
872.526	22618
872.656	22675
872.785	22554
872.915	22816
873.044	22782
873.173	22805
873.303	22812
873.432	22778
873.561	22847
873.69	22824
873.819	22748
873.948	22824
874.077	22774
874.206	22683
874.335	22702
874.464	22900
874.593	23044
874.722	22911
874.851	23121
874.979	23159
875.108	22904
875.237	22919
875.365	22854
875.494	22911
875.623	23098
875.751	23010
875.88	23010
876.008	23056
876.136	23189
876.265	23395
876.393	23471
876.521	23330
876.65	23520
876.778	23486
876.906	23364
877.034	23265
877.162	23292
877.29	23227
877.418	23265
877.546	23307
877.674	23284
877.802	23307
877.93	23227
878.058	23318
878.185	23174
878.313	23254
878.441	23383
878.568	23178
878.696	23197
878.824	23311
878.951	23337
879.079	23497
879.206	23474
879.333	23512
879.461	23258
879.588	23292
879.715	23372
879.842	23558
879.97	23307
880.097	23094
880.224	22999
880.351	23212
880.478	23189
880.605	23128
880.732	23052
880.859	23330
880.986	23086
881.112	23178
881.239	22946
881.366	22892
881.493	22702
881.619	22706
881.746	22710
881.872	22649
881.999	22660
882.125	22717
882.252	22710
882.378	22702
882.505	22816
882.631	22653
882.757	22356
882.883	22421
883.01	22249
883.136	22299
883.262	22295
883.388	22086
883.514	22371
883.64	22421
883.766	22196
883.892	22196
884.018	22166
884.143	22318
884.269	22337
884.395	22040
884.52	21998
884.646	22010
884.772	21979
884.897	21869
885.023	22093
885.148	22135
885.274	22173
885.399	22093
885.524	21941
885.65	21945
885.775	22029
885.9	21994
886.025	22006
886.15	22059
886.275	21975
886.4	21934
886.525	21972
886.65	21873
886.775	21949
886.9	22093
887.025	22188
887.149	21972
887.274	21907
887.399	21751
887.523	21739
887.648	21789
887.773	21717
887.897	21831
888.021	21778
888.146	21728
888.27	21759
888.395	21895
888.519	21850
888.643	21873
888.767	21846
888.891	21542
889.015	21568
889.139	21671
889.263	21553
889.387	21622
889.511	21736
889.635	21625
889.759	21553
889.883	21492
890.006	21500
890.13	21583
890.254	21504
890.377	21351
890.501	21329
890.624	21260
890.748	21283
890.871	21222
890.995	21055
891.118	21066
891.241	21051
891.364	21119
891.488	21325
891.611	20952
891.734	21108
891.857	21195
891.98	21214
892.103	21249
892.226	21081
892.349	21074
892.471	20952
892.594	20986
892.717	20933
892.839	21062
892.962	21032
893.085	21100
893.207	20975
893.33	20948
893.452	20925
893.575	20990
893.697	20990
893.819	21150
893.941	21195
894.064	21165
894.186	20994
894.308	20933
894.43	20982
894.552	21211
894.674	21112
894.796	21005
894.918	20998
895.04	20868
895.161	21039
895.283	20880
895.405	20937
895.526	20937
895.648	20956
895.769	21024
895.891	20914
896.012	21119
896.134	21047
896.255	20910
896.376	20944
896.498	20899
896.619	21085
896.74	20921
896.861	20937
896.982	21104
897.103	21416
897.224	21230
897.345	21104
897.466	21108
897.587	21211
897.708	21279
897.828	21119
897.949	21047
898.07	20933
898.19	21154
898.311	21260
898.431	21237
898.552	21180
898.672	21180
898.792	21313
898.913	21161
899.033	21135
899.153	21058
899.273	20842
899.393	20838
899.513	20708
899.633	20918
899.753	20902
899.873	20887
899.993	20910
900.113	20842
900.232	20921
900.352	20758
900.472	20830
900.591	20632
900.711	20800
900.83	20541
900.95	20792
901.069	20800
901.189	20613
901.308	20317
901.427	20229
901.546	20336
901.665	20271
901.784	20332
901.904	20138
902.023	20027
902.141	19826
902.26	19814
902.379	19894
902.498	19757
902.617	19788
902.735	19677
902.854	19677
902.973	19639
903.091	19483
903.21	19381
903.328	19381
903.446	19228
903.565	19225
903.683	19255
903.801	19179
903.919	19069
904.038	19145
904.156	19004
904.274	18966
904.392	18852
904.51	19137
904.627	19004
904.745	18928
904.863	18821
904.981	18848
905.098	18745
905.216	18734
905.334	18745
905.451	18654
905.569	18551
905.686	18719
905.803	18525
905.921	18437
906.038	18513
906.155	18464
906.272	18369
906.389	18273
906.506	18182
906.623	18228
906.74	18076
906.857	18106
906.974	18117
907.091	18273
907.208	18228
907.324	18197
907.441	18091
907.557	17866
907.674	18003
907.79	17802
907.907	17824
908.023	17855
908.139	17843
908.256	17668
908.372	17786
908.488	17771
908.604	17592
908.72	17687
908.836	17615
908.952	17592
909.068	17596
909.184	17733
909.3	17455
909.415	17596
909.531	17562
909.647	17421
909.762	17288
909.878	17273
909.993	17235
910.108	17269
910.224	17242
910.339	17208
910.454	17033
910.57	17189
910.685	17113
910.8	17258
910.915	17239
911.03	16972
911.145	16938
911.259	16820
911.374	16809
911.489	16919
911.604	16687
911.718	16615
911.833	16626
911.947	16512
912.062	16489
912.176	16675
912.291	16668
912.405	16512
912.519	16679
912.633	16744
912.748	16561
912.862	16519
912.976	16436
913.09	16242
913.204	16337
913.318	16379
913.431	16363
913.545	16538
913.659	16538
913.772	16344
913.886	16303
914	16200
914.113	16272
914.226	16344
914.34	16303
914.453	16078
914.566	16287
914.68	16158
914.793	16097
914.906	15861
915.019	15759
915.132	15709
915.245	15762
915.358	15861
915.47	15804
915.583	15804
915.696	15804
915.809	15835
915.921	15907
916.034	15755
916.146	15686
916.259	15614
916.371	15648
916.483	15762
916.595	15629
916.708	15648
916.82	15622
916.932	15603
917.044	15542
917.156	15549
917.268	15454
917.38	15488
917.491	15416
917.603	15382
917.715	15488
917.826	15405
917.938	15294
918.049	15165
918.161	15374
918.272	15515
918.384	15492
918.495	15389
918.606	15214
918.717	15097
918.828	15146
918.939	15230
919.05	15024
919.161	15135
919.272	14990
919.383	14990
919.494	15218
919.604	15367
919.715	15184
919.826	15032
919.936	15093
920.047	15203
920.157	15074
920.267	15176
920.378	15169
920.488	15051
920.598	15283
920.708	15389
920.818	15157
920.928	15180
921.038	15428
921.148	15363
921.258	14963
921.368	15001
921.477	14883
921.587	14815
921.697	14667
921.806	14720
921.916	14606
922.025	14530
922.134	14522
922.244	14423
922.353	14587
922.462	14396
922.571	14176
922.68	14058
922.789	14115
922.898	14168
923.007	14054
923.116	14183
923.224	14149
923.333	14020
923.442	13917
923.55	13928
923.659	13894
923.767	14001
923.876	13856
923.984	13917
924.092	13803
924.201	13833
924.309	13852
924.417	13890
924.525	13681
924.633	13662
924.741	14686
924.849	13529
924.956	13731
925.064	13468
925.172	13460
925.279	13529
925.387	13559
925.494	13491
925.602	13636
925.709	13556
925.816	13438
925.924	13464
926.031	13544
926.138	13411
926.245	13426
926.352	13278
926.459	13548
926.566	13476
926.673	13396
926.779	13240
926.886	13255
926.993	13149
927.099	13008
927.206	13057
927.312	12939
927.419	13072
927.525	13012
927.631	13019
927.737	12894
927.843	12875
927.95	12795
928.056	12859
928.162	12833
928.267	12844
928.373	13369
928.479	12863
928.585	12555
928.69	12840
928.796	12821
928.901	12692
929.007	12547
929.112	12745
929.218	12669
929.323	12692
929.428	12509
929.533	12635
929.638	12494
929.743	12566
929.848	12471
929.953	12456
930.058	12300
930.163	12258
930.267	12285
930.372	12380
930.477	12197
930.581	12418
930.685	12323
930.79	12133
930.894	12163
930.998	12110
931.103	12171
931.207	11908
931.311	11798
931.415	11695
931.519	11448
931.623	11528
