Data from test_V78500241_1347.txt Node
Date: Fri Mar 25 15:51:07 CST 2022
User: usil
Spectrometer: V785-0024
Trigger mode: 0
Integration Time (sec): 4.000000E-1
Scans to average: 1
Nonlinearity correction enabled: false
Boxcar width: 0
Storing dark spectrum: false
XAxis mode: Wavelengths
Number of Pixels in Spectrum: 1024
>>>>>Begin Spectral Data<<<<<
801.071	28344
801.214	28303
801.356	28109
801.499	27972
801.641	27937
801.783	27720
801.926	27876
802.068	27842
802.211	27831
802.353	27812
802.496	27553
802.638	27530
802.78	27469
802.923	27485
803.065	27427
803.208	27553
803.35	27557
803.492	27564
803.635	27705
803.777	27606
803.919	27755
804.061	28078
804.204	27880
804.346	27804
804.488	27736
804.63	27679
804.773	27595
804.915	27884
805.057	27972
805.199	27671
805.341	27781
805.483	27888
805.626	27987
805.768	27819
805.91	27774
806.052	28029
806.194	27865
806.336	28139
806.478	27934
806.62	27903
806.762	28177
806.904	28211
807.046	28424
807.188	28295
807.33	28314
807.472	28401
807.614	28223
807.756	28325
807.898	28177
808.04	28128
808.182	28204
808.324	28276
808.465	28329
808.607	28493
808.749	28569
808.891	28653
809.033	28710
809.174	28679
809.316	28603
809.458	28664
809.6	28656
809.741	28653
809.883	28660
810.025	28782
810.166	28816
810.308	28949
810.45	28862
810.591	28877
810.733	28550
810.875	28694
811.016	28500
811.158	28622
811.299	28649
811.441	28630
811.582	28782
811.724	28599
811.865	28519
812.007	28546
812.148	28474
812.29	28641
812.431	28793
812.573	28984
812.714	28946
812.855	29071
812.997	29341
813.138	29315
813.279	29227
813.421	29052
813.562	28976
813.703	28759
813.845	28797
813.986	28584
814.127	28504
814.268	28173
814.41	28272
814.551	28371
814.692	28253
814.833	28318
814.974	28253
815.115	28363
815.256	28162
815.397	28177
815.539	28188
815.68	28158
815.821	28063
815.962	28150
816.103	27968
816.244	27953
816.385	27937
816.526	27797
816.666	27652
816.807	27405
816.948	27717
817.089	27648
817.23	27599
817.371	27530
817.512	27648
817.653	27542
817.793	27507
817.934	27545
818.075	27656
818.216	27663
818.356	27625
818.497	27576
818.638	27329
818.778	27344
818.919	27321
819.06	27450
819.2	27424
819.341	27595
819.481	27614
819.622	27819
819.762	27907
819.903	27945
820.043	27854
820.184	27648
820.324	27648
820.465	27854
820.605	27599
820.746	27747
820.886	27431
821.026	27648
821.167	27663
821.307	27728
821.447	27530
821.588	27496
821.728	27306
821.868	27150
822.008	27081
822.149	27062
822.289	27005
822.429	26880
822.569	26655
822.709	26689
822.849	26514
822.99	26655
823.13	26499
823.27	26507
823.41	26469
823.55	26263
823.69	26317
823.83	26434
823.97	26408
824.11	26180
824.25	26317
824.389	26355
824.529	26339
824.669	26229
824.809	26514
824.949	26358
825.089	26374
825.228	26313
825.368	26191
825.508	26115
825.648	26122
825.787	26202
825.927	26206
826.067	26164
826.206	25928
826.346	26187
826.485	26210
826.625	26054
826.765	26126
826.904	26252
827.044	26005
827.183	25898
827.323	25776
827.462	25651
827.601	25947
827.741	25795
827.88	25966
828.02	25776
828.159	25841
828.298	25898
828.437	25978
828.577	25856
828.716	26046
828.855	25818
828.994	25518
829.134	25544
829.273	25601
829.412	25495
829.551	25609
829.69	25556
829.829	25597
829.968	25575
830.107	25556
830.246	25499
830.385	25403
830.524	25403
830.663	25438
830.802	25259
830.941	25160
831.08	25198
831.219	25225
831.357	25103
831.496	25320
831.635	25091
831.774	25046
831.913	25084
832.051	24966
832.19	24943
832.329	24935
832.467	24783
832.606	24821
832.744	24875
832.883	24795
833.022	24726
833.16	24829
833.299	24844
833.437	24863
833.576	24711
833.714	24935
833.852	25000
833.991	24920
834.129	24932
834.267	24939
834.406	24802
834.544	24878
834.682	24901
834.821	24837
834.959	25000
835.097	24738
835.235	24943
835.373	24837
835.511	24768
835.65	24715
835.788	24776
835.926	24646
836.064	24532
836.202	24570
836.34	24760
836.478	24722
836.615	24608
836.753	24738
836.891	24856
837.029	24741
837.167	24798
837.305	24547
837.443	24528
837.58	24441
837.718	24574
837.856	24555
837.993	24498
838.131	24604
838.269	24414
838.406	24410
838.544	24502
838.681	24076
838.819	24289
838.956	24038
839.094	23897
839.231	24095
839.369	24140
839.506	24243
839.643	24365
839.781	24003
839.918	24079
840.055	23984
840.193	23931
840.33	23859
840.467	23980
840.604	24087
840.742	24285
840.879	23832
841.016	23912
841.153	23817
841.29	23999
841.427	23984
841.564	23836
841.701	23802
841.838	23946
841.975	23824
842.112	23710
842.249	23741
842.385	23665
842.522	23973
842.659	23748
842.796	23649
842.933	23676
843.069	23615
843.206	23623
843.343	23786
843.479	23623
843.616	23573
843.752	23490
843.889	23566
844.025	23524
844.162	23478
844.298	23634
844.435	23478
844.571	23258
844.708	23482
844.844	23600
844.98	23528
845.117	23539
845.253	23318
845.389	23307
845.525	23433
845.661	23254
845.798	23174
845.934	23178
846.07	23204
846.206	23143
846.342	23345
846.478	23048
846.614	23041
846.75	22843
846.886	22972
847.022	22949
847.158	22976
847.294	22961
847.429	23044
847.565	22790
847.701	23204
847.837	22554
847.972	22641
848.108	22801
848.244	22828
848.379	22497
848.515	22508
848.65	22436
848.786	22561
848.921	22432
849.057	22599
849.192	22554
849.328	22535
849.463	22409
849.598	22459
849.734	22542
849.869	22371
850.004	22268
850.14	22303
850.275	22249
850.41	22211
850.545	22120
850.68	22120
850.815	22322
850.95	22344
851.085	22375
851.22	22322
851.355	22257
851.49	22284
851.625	22287
851.76	22147
851.895	22131
852.03	22143
852.165	22200
852.299	22314
852.434	22306
852.569	22257
852.703	22139
852.838	22211
852.973	22390
853.107	22398
853.242	22162
853.376	21987
853.511	21953
853.645	21975
853.78	22192
853.914	22067
854.048	22059
854.183	21979
854.317	22116
854.451	22120
854.585	22032
854.72	22128
854.854	22185
854.988	22097
855.122	22055
855.256	22051
855.39	22219
855.524	22139
855.658	22078
855.792	22112
855.926	22090
856.06	22063
856.194	22086
856.327	22124
856.461	22025
856.595	22002
856.729	22063
856.862	22200
856.996	22055
857.13	22215
857.263	22169
857.397	22173
857.53	22048
857.664	22162
857.797	22192
857.931	22219
858.064	22063
858.197	22196
858.331	22036
858.464	21979
858.597	21930
858.731	22112
858.864	22055
858.997	22025
859.13	21964
859.263	22173
859.396	22143
859.529	22055
859.662	22029
859.795	22048
859.928	22010
860.061	22272
860.194	22314
860.327	22025
860.46	22090
860.592	22219
860.725	22265
860.858	22261
860.99	22135
861.123	22067
861.256	22048
861.388	22086
861.521	22649
861.653	21907
861.786	21850
861.918	21759
862.05	21941
862.183	21953
862.315	21998
862.447	22074
862.58	22040
862.712	21770
862.844	21713
862.976	21698
863.108	21911
863.24	22185
863.372	21698
863.504	21755
863.636	21850
863.768	21808
863.9	21846
864.032	21800
864.164	21679
864.296	21774
864.428	21846
864.559	21899
864.691	21850
864.823	21854
864.954	21835
865.086	21717
865.217	21644
865.349	21690
865.48	21724
865.612	21603
865.743	21907
865.875	21732
866.006	21553
866.137	21690
866.269	21766
866.4	21587
866.531	21553
866.662	21553
866.793	21606
866.924	21705
867.055	21629
867.186	21618
867.317	21599
867.448	21549
867.579	21481
867.71	21568
867.841	21507
867.972	21492
868.103	21679
868.233	21530
868.364	21591
868.495	21736
868.625	21751
868.756	21800
868.886	21747
869.017	21880
869.147	21857
869.278	21808
869.408	21945
869.539	21739
869.669	21869
869.799	21854
869.929	22040
870.06	21960
870.19	22139
870.32	22158
870.45	22101
870.58	22154
870.71	22303
870.84	22265
870.97	22207
871.1	22246
871.23	22428
871.36	22455
871.489	22322
871.619	22360
871.749	22424
871.879	22459
872.008	22641
872.138	22402
872.267	22405
872.397	22147
872.526	22192
872.656	22249
872.785	22192
872.915	22474
873.044	22504
873.173	22470
873.303	22542
873.432	22409
873.561	22561
873.69	22451
873.819	22371
873.948	22436
874.077	22413
874.206	22390
874.335	22470
874.464	22500
874.593	22637
874.722	22622
874.851	22599
874.979	22634
875.108	22713
875.237	22611
875.365	22569
875.494	22702
875.623	22767
875.751	22611
875.88	22653
876.008	22881
876.136	22755
876.265	22938
876.393	23181
876.521	23094
876.65	23124
876.778	23014
876.906	22984
877.034	22908
877.162	22991
877.29	22957
877.418	23010
877.546	22965
877.674	22881
877.802	22968
877.93	22980
878.058	22984
878.185	22908
878.313	22919
878.441	22965
878.568	22820
878.696	23010
878.824	23064
878.951	23162
879.079	23178
879.206	23212
879.333	23147
879.461	23041
879.588	23018
879.715	23220
879.842	23261
879.97	23132
880.097	22995
880.224	22736
880.351	22847
880.478	22790
880.605	22843
880.732	22801
880.859	23056
880.986	22812
881.112	22919
881.239	22557
881.366	22611
881.493	22527
881.619	22493
881.746	22371
881.872	22440
881.999	22413
882.125	22276
882.252	22432
882.378	22287
882.505	22367
882.631	22139
882.757	22002
882.883	22185
883.01	22048
883.136	22051
883.262	21960
883.388	21861
883.514	22048
883.64	22112
883.766	21941
883.892	21846
884.018	21895
884.143	22059
884.269	22074
884.395	21766
884.52	21698
884.646	21720
884.772	21523
884.897	21644
885.023	21720
885.148	21865
885.274	21755
885.399	21766
885.524	21724
885.65	21736
885.775	21724
885.9	21759
886.025	21785
886.15	21789
886.275	21633
886.4	21679
886.525	21694
886.65	21663
886.775	21633
886.9	21751
887.025	21930
887.149	21641
887.274	21428
887.399	21488
887.523	21473
887.648	21386
887.773	21252
887.897	21515
888.021	21572
888.146	21431
888.27	21637
888.395	21504
888.519	21420
888.643	21408
888.767	21526
888.891	21340
889.015	21294
889.139	21408
889.263	21222
889.387	21298
889.511	21447
889.635	21317
889.759	21222
889.883	21188
890.006	21195
890.13	21332
890.254	21135
890.377	21237
890.501	21169
890.624	21017
890.748	20967
890.871	20830
890.995	20720
891.118	20777
891.241	20975
891.364	20705
891.488	20948
891.611	20819
891.734	20876
891.857	20823
891.98	20735
892.103	20876
892.226	20823
892.349	20750
892.471	20495
892.594	20697
892.717	20819
892.839	20712
892.962	20731
893.085	20826
893.207	20720
893.33	20602
893.452	20663
893.575	20678
893.697	20674
893.819	20887
893.941	20967
894.064	20861
894.186	20629
894.308	20674
894.43	20716
894.552	20899
894.674	20826
894.796	20648
894.918	20697
895.04	20583
895.161	20773
895.283	20686
895.405	20670
895.526	20739
895.648	20693
895.769	20746
895.891	20670
896.012	20857
896.134	20735
896.255	20743
896.376	20636
896.498	20708
896.619	20819
896.74	20701
896.861	20689
896.982	20960
897.103	21195
897.224	20971
897.345	20895
897.466	20872
897.587	20792
897.708	20979
897.828	20971
897.949	20880
898.07	20712
898.19	20746
898.311	21005
898.431	20765
898.552	20887
898.672	21070
898.792	20918
898.913	20883
899.033	20800
899.153	20697
899.273	20514
899.393	20625
899.513	20648
899.633	20743
899.753	20701
899.873	20499
899.993	20629
900.113	20648
900.232	20537
900.352	20545
900.472	20442
900.591	20336
900.711	20579
900.83	20370
900.95	20549
901.069	20427
901.189	20339
901.308	20073
901.427	19932
901.546	19913
901.665	20096
901.784	20005
901.904	19765
902.023	19772
902.141	19639
902.26	19521
902.379	19655
902.498	19510
902.617	19502
902.735	19476
902.854	19510
902.973	19358
903.091	19103
903.21	19190
903.328	19110
903.446	19091
903.565	18993
903.683	18989
903.801	18863
903.919	18954
904.038	18878
904.156	18810
904.274	18856
904.392	18859
904.51	18707
904.627	18684
904.745	18798
904.863	18837
904.981	18506
905.098	18315
905.216	18414
905.334	18464
905.451	18418
905.569	18357
905.686	18384
905.803	18414
905.921	18213
906.038	18289
906.155	18152
906.272	18087
906.389	18102
906.506	17847
906.623	18007
906.74	17916
906.857	17707
906.974	17836
907.091	17973
907.208	18095
907.324	18019
907.441	17798
907.557	17840
907.674	17577
907.79	17627
907.907	17668
908.023	17653
908.139	17634
908.256	17611
908.372	17433
908.488	17524
908.604	17467
908.72	17440
908.836	17360
908.952	17311
909.068	17376
909.184	17543
909.3	17341
909.415	17368
909.531	17337
909.647	17117
909.762	17067
909.878	17102
909.993	17045
910.108	17006
910.224	16965
910.339	16965
910.454	16991
910.57	16809
910.685	16717
910.8	17041
910.915	16980
911.03	16896
911.145	16664
911.259	16615
911.374	16660
911.489	16615
911.604	16519
911.718	16367
911.833	16386
911.947	16253
912.062	16196
912.176	16390
912.291	16390
912.405	16394
912.519	16592
912.633	16653
912.748	16440
912.862	16405
912.976	16204
913.09	16166
913.204	15979
913.318	16112
913.431	16337
913.545	16196
913.659	16287
913.772	16154
913.886	15983
914	16002
914.113	15983
914.226	16059
914.34	16078
914.453	15838
914.566	16032
914.68	15915
914.793	15755
914.906	15652
915.019	15568
915.132	15523
915.245	15561
915.358	15625
915.47	15488
915.583	15587
915.696	15652
915.809	15663
915.921	15606
916.034	15515
916.146	15378
916.259	15477
916.371	15572
916.483	15519
916.595	15428
916.708	15473
916.82	15405
916.932	15321
917.044	15321
917.156	15291
917.268	15237
917.38	15203
917.491	15207
917.603	15218
917.715	15291
917.826	15230
917.938	15173
918.049	15066
918.161	15173
918.272	15302
918.384	15256
918.495	15093
918.606	15020
918.717	14864
918.828	14975
918.939	15017
919.05	14842
919.161	14948
919.272	14781
919.383	14876
919.494	14963
919.604	15176
919.715	14925
919.826	14956
919.936	14891
920.047	14967
920.157	14830
920.267	15131
920.378	14925
920.488	14891
920.598	14990
920.708	15283
920.818	15028
920.928	15070
921.038	15230
921.148	15108
921.258	14944
921.368	14765
921.477	14651
921.587	14590
921.697	14526
921.806	14587
921.916	14480
922.025	14370
922.134	14324
922.244	14157
922.353	14282
922.462	14142
922.571	14077
922.68	14016
922.789	13913
922.898	13955
923.007	13826
923.116	13940
923.224	13879
923.333	13902
923.442	13719
923.55	13791
923.659	13693
923.767	13772
923.876	13666
923.984	13856
924.092	13620
924.201	13677
924.309	13704
924.417	13655
924.525	13586
924.633	13552
924.741	14419
924.849	13354
924.956	13518
925.064	13343
925.172	13324
925.279	13297
925.387	13293
925.494	13350
925.602	13316
925.709	13320
925.816	13198
925.924	13244
926.031	13285
926.138	13202
926.245	13274
926.352	13236
926.459	13270
926.566	13320
926.673	13103
926.779	13080
926.886	13023
926.993	12935
927.099	12848
927.206	12806
927.312	12768
927.419	12871
927.525	12867
927.631	12867
927.737	12696
927.843	12741
927.95	12620
928.056	12707
928.162	12711
928.267	12738
928.373	13335
928.479	12711
928.585	12483
928.69	12559
928.796	12616
928.901	12574
929.007	12426
929.112	12578
929.218	12475
929.323	12418
929.428	12410
929.533	12517
929.638	12300
929.743	12410
929.848	12380
929.953	12304
930.058	12239
930.163	12060
930.267	12121
930.372	12277
930.477	12076
930.581	12235
930.685	12163
930.79	11916
930.894	11980
930.998	11870
931.103	12129
931.207	11737
931.311	11623
931.415	11535
931.519	11364
931.623	11246
