Data from test_V78500241_1528.txt Node
Date: Fri Mar 25 15:52:23 CST 2022
User: usil
Spectrometer: V785-0024
Trigger mode: 0
Integration Time (sec): 4.000000E-1
Scans to average: 1
Nonlinearity correction enabled: false
Boxcar width: 0
Storing dark spectrum: false
XAxis mode: Wavelengths
Number of Pixels in Spectrum: 1024
>>>>>Begin Spectral Data<<<<<
801.071	28131
801.214	28139
801.356	27880
801.499	27781
801.641	27842
801.783	27770
801.926	27743
802.068	27732
802.211	27595
802.353	27603
802.496	27549
802.638	27329
802.78	27458
802.923	27363
803.065	27313
803.208	27340
803.35	27408
803.492	27656
803.635	27538
803.777	27424
803.919	27743
804.061	27937
804.204	27698
804.346	27583
804.488	27557
804.63	27614
804.773	27507
804.915	27515
805.057	27622
805.199	27618
805.341	27705
805.483	27755
805.626	27698
805.768	27762
805.91	27838
806.052	27800
806.194	27698
806.336	27831
806.478	27827
806.62	27713
806.762	27854
806.904	28029
807.046	28421
807.188	28116
807.33	28112
807.472	28291
807.614	28116
807.756	28234
807.898	28063
808.04	28105
808.182	27911
808.324	28131
808.465	28139
808.607	28291
808.749	28527
808.891	28569
809.033	28462
809.174	28557
809.316	28360
809.458	28413
809.6	28497
809.741	28577
809.883	28573
810.025	28702
810.166	28752
810.308	28744
810.45	28634
810.591	28645
810.733	28500
810.875	28481
811.016	28333
811.158	28299
811.299	28455
811.441	28645
811.582	28542
811.724	28451
811.865	28265
812.007	28341
812.148	28367
812.29	28618
812.431	28691
812.573	28706
812.714	28873
812.855	28957
812.997	28934
813.138	29159
813.279	29018
813.421	29109
813.562	28900
813.703	28793
813.845	28683
813.986	28508
814.127	28268
814.268	28261
814.41	28166
814.551	28261
814.692	28067
814.833	28051
814.974	28158
815.115	28211
815.256	28067
815.397	27998
815.539	28036
815.68	27972
815.821	27838
815.962	27922
816.103	27941
816.244	27759
816.385	27671
816.526	27759
816.666	27583
816.807	27321
816.948	27564
817.089	27511
817.23	27473
817.371	27515
817.512	27363
817.653	27321
817.793	27329
817.934	27466
818.075	27389
818.216	27412
818.356	27443
818.497	27378
818.638	27218
818.778	27199
818.919	27169
819.06	27260
819.2	27222
819.341	27405
819.481	27454
819.622	27530
819.762	27800
819.903	27656
820.043	27736
820.184	27447
820.324	27534
820.465	27656
820.605	27477
820.746	27504
820.886	27545
821.026	27511
821.167	27462
821.307	27545
821.447	27576
821.588	27355
821.728	27077
821.868	27001
822.008	26975
822.149	26720
822.289	26921
822.429	26682
822.569	26537
822.709	26686
822.849	26408
822.99	26465
823.13	26351
823.27	26400
823.41	26385
823.55	26081
823.69	26267
823.83	26294
823.97	26229
824.11	26111
824.25	26008
824.389	26199
824.529	26138
824.669	26054
824.809	26282
824.949	26130
825.089	26081
825.228	26100
825.368	26005
825.508	25970
825.648	25913
825.787	25989
825.927	26130
826.067	26039
826.206	26031
826.346	26016
826.485	25936
826.625	25951
826.765	26020
826.904	26031
827.044	25769
827.183	25826
827.323	25696
827.462	25731
827.601	25643
827.741	25590
827.88	25689
828.02	25464
828.159	25616
828.298	25765
828.437	25830
828.577	25571
828.716	25677
828.855	25658
828.994	25388
829.134	25381
829.273	25365
829.412	25244
829.551	25384
829.69	25259
829.829	25251
829.968	25468
830.107	25377
830.246	25198
830.385	25251
830.524	25388
830.663	25088
830.802	25004
830.941	24856
831.08	24878
831.219	25008
831.357	25027
831.496	25194
831.635	24897
831.774	24844
831.913	24738
832.051	24738
832.19	24817
832.329	24722
832.467	24669
832.606	24559
832.744	24650
832.883	24646
833.022	24563
833.16	24722
833.299	24760
833.437	24665
833.576	24642
833.714	24620
833.852	24768
833.991	24604
834.129	24753
834.267	24722
834.406	24696
834.544	24665
834.682	24578
834.821	24646
834.959	24859
835.097	24555
835.235	24719
835.373	24684
835.511	24661
835.65	24642
835.788	24544
835.926	24315
836.064	24311
836.202	24254
836.34	24494
836.478	24616
836.615	24517
836.753	24475
836.891	24494
837.029	24536
837.167	24292
837.305	24433
837.443	24445
837.58	24296
837.718	24456
837.856	24365
837.993	24304
838.131	24395
838.269	24148
838.406	24243
838.544	24133
838.681	24079
838.819	23965
838.956	23809
839.094	23790
839.231	23923
839.369	23992
839.506	24266
839.643	24182
839.781	23893
839.918	23809
840.055	23855
840.193	23695
840.33	23878
840.467	23748
840.604	23657
840.742	24041
840.879	23512
841.016	23600
841.153	23634
841.29	23889
841.427	23665
841.564	23752
841.701	23646
841.838	23649
841.975	23581
842.112	23668
842.249	23455
842.385	23581
842.522	23642
842.659	23619
842.796	23505
842.933	23592
843.069	23387
843.206	23345
843.343	23535
843.479	23501
843.616	23493
843.752	23391
843.889	23345
844.025	23341
844.162	23197
844.298	23204
844.435	23242
844.571	23235
844.708	23296
844.844	23395
844.98	23334
845.117	23299
845.253	23113
845.389	23083
845.525	23174
845.661	23128
845.798	22896
845.934	23075
846.07	23037
846.206	23124
846.342	23067
846.478	22984
846.614	22767
846.75	22584
846.886	22615
847.022	22767
847.158	22675
847.294	22713
847.429	22816
847.565	22828
847.701	22892
847.837	22455
847.972	22344
848.108	22611
848.244	22523
848.379	22474
848.515	22299
848.65	22356
848.786	22268
848.921	22405
849.057	22424
849.192	22428
849.328	22325
849.463	22382
849.598	22303
849.734	22173
849.869	22162
850.004	22154
850.14	22063
850.275	22162
850.41	22036
850.545	22086
850.68	22067
850.815	21964
850.95	22055
851.085	22246
851.22	22211
851.355	22101
851.49	21998
851.625	22082
851.76	22097
851.895	21922
852.03	21987
852.165	22070
852.299	22101
852.434	21937
852.569	22124
852.703	22044
852.838	22128
852.973	22356
853.107	22169
853.242	22093
853.376	21892
853.511	21861
853.645	21797
853.78	22036
853.914	21831
854.048	21816
854.183	21865
854.317	22036
854.451	21972
854.585	21907
854.72	21991
854.854	21960
854.988	21857
855.122	21865
855.256	21637
855.39	21907
855.524	22006
855.658	21850
855.792	21895
855.926	21960
856.06	22010
856.194	21964
856.327	21884
856.461	21804
856.595	21747
856.729	21895
856.862	21953
856.996	21991
857.13	21926
857.263	21911
857.397	22051
857.53	21895
857.664	21968
857.797	21987
857.931	21979
858.064	21945
858.197	21892
858.331	21907
858.464	21762
858.597	21850
858.731	21808
858.864	21781
858.997	21998
859.13	21941
859.263	22082
859.396	22090
859.529	21819
859.662	21838
859.795	21793
859.928	21831
860.061	22105
860.194	22109
860.327	22040
860.46	21922
860.592	22070
860.725	22131
860.858	22032
860.99	22002
861.123	21804
861.256	21831
861.388	21888
861.521	22424
861.653	21774
861.786	21641
861.918	21618
862.05	21698
862.183	21869
862.315	21880
862.447	21953
862.58	21816
862.712	21694
862.844	21583
862.976	21800
863.108	21667
863.24	22090
863.372	21572
863.504	21545
863.636	21561
863.768	21519
863.9	21500
864.032	21485
864.164	21553
864.296	21644
864.428	21812
864.559	21732
864.691	21736
864.823	21705
864.954	21625
865.086	21485
865.217	21443
865.349	21553
865.48	21401
865.612	21542
865.743	21720
865.875	21587
866.006	21614
866.137	21545
866.269	21431
866.4	21492
866.531	21382
866.662	21321
866.793	21397
866.924	21492
867.055	21416
867.186	21393
867.317	21382
867.448	21386
867.579	21348
867.71	21241
867.841	21317
867.972	21397
868.103	21397
868.233	21469
868.364	21458
868.495	21443
868.625	21606
868.756	21808
868.886	21492
869.017	21637
869.147	21682
869.278	21739
869.408	21682
869.539	21652
869.669	21762
869.799	21778
869.929	21800
870.06	21827
870.19	21987
870.32	21892
870.45	21964
870.58	22025
870.71	22101
870.84	22154
870.97	22067
871.1	22036
871.23	22253
871.36	22299
871.489	22162
871.619	22280
871.749	22322
871.879	22337
872.008	22398
872.138	22325
872.267	22120
872.397	22196
872.526	22086
872.656	22143
872.785	22070
872.915	22382
873.044	22390
873.173	22177
873.303	22261
873.432	22280
873.561	22485
873.69	22291
873.819	22310
873.948	22367
874.077	22219
874.206	22223
874.335	22287
874.464	22337
874.593	22516
874.722	22318
874.851	22512
874.979	22394
875.108	22592
875.237	22325
875.365	22318
875.494	22516
875.623	22470
875.751	22512
875.88	22504
876.008	22550
876.136	22702
876.265	22934
876.393	23014
876.521	22919
876.65	22976
876.778	23025
876.906	22896
877.034	22938
877.162	22831
877.29	22862
877.418	23014
877.546	22854
877.674	22858
877.802	22824
877.93	22824
878.058	22843
878.185	22755
878.313	22767
878.441	22790
878.568	22687
878.696	22828
878.824	22900
878.951	22972
879.079	23006
879.206	23181
879.333	23056
879.461	22946
879.588	22949
879.715	23037
879.842	23117
879.97	22980
880.097	22713
880.224	22713
880.351	22729
880.478	22698
880.605	22569
880.732	22687
880.859	22843
880.986	22634
881.112	22721
881.239	22500
881.366	22428
881.493	22344
881.619	22188
881.746	22280
881.872	22265
881.999	22265
882.125	22253
882.252	22246
882.378	22173
882.505	22337
882.631	22063
882.757	22002
882.883	22021
883.01	21964
883.136	21789
883.262	21774
883.388	21751
883.514	21922
883.64	21975
883.766	21895
883.892	21686
884.018	21675
884.143	21865
884.269	21819
884.395	21724
884.52	21500
884.646	21545
884.772	21507
884.897	21447
885.023	21561
885.148	21606
885.274	21671
885.399	21709
885.524	21488
885.65	21504
885.775	21572
885.9	21549
886.025	21686
886.15	21709
886.275	21504
886.4	21397
886.525	21572
886.65	21439
886.775	21488
886.9	21648
887.025	21812
887.149	21481
887.274	21511
887.399	21348
887.523	21298
887.648	21249
887.773	21344
887.897	21393
888.021	21393
888.146	21321
888.27	21348
888.395	21344
888.519	21397
888.643	21302
888.767	21367
888.891	21256
889.015	21070
889.139	21230
889.263	21066
889.387	21176
889.511	21317
889.635	21093
889.759	21028
889.883	21020
890.006	21001
890.13	21192
890.254	21119
890.377	21020
890.501	20868
890.624	20754
890.748	20971
890.871	20880
890.995	20693
891.118	20632
891.241	20636
891.364	20651
891.488	20720
891.611	20792
891.734	20648
891.857	20765
891.98	20571
892.103	20804
892.226	20648
892.349	20674
892.471	20552
892.594	20678
892.717	20568
892.839	20549
892.962	20522
893.085	20492
893.207	20606
893.33	20507
893.452	20594
893.575	20739
893.697	20492
893.819	20769
893.941	20811
894.064	20735
894.186	20442
894.308	20518
894.43	20583
894.552	20632
894.674	20598
894.796	20415
894.918	20587
895.04	20575
895.161	20682
895.283	20568
895.405	20552
895.526	20507
895.648	20640
895.769	20655
895.891	20499
896.012	20724
896.134	20640
896.255	20522
896.376	20568
896.498	20609
896.619	20545
896.74	20594
896.861	20667
896.982	20902
897.103	20941
897.224	20830
897.345	20765
897.466	20720
897.587	20689
897.708	20910
897.828	20788
897.949	20712
898.07	20583
898.19	20720
898.311	20811
898.431	20819
898.552	20853
898.672	20864
898.792	20876
898.913	20739
899.033	20640
899.153	20545
899.273	20438
899.393	20571
899.513	20583
899.633	20492
899.753	20514
899.873	20431
899.993	20530
900.113	20465
900.232	20526
900.352	20320
900.472	20362
900.591	20374
900.711	20431
900.83	20396
900.95	20385
901.069	20343
901.189	20252
901.308	19963
901.427	19833
901.546	19807
901.665	20039
901.784	19887
901.904	19704
902.023	19651
902.141	19403
902.26	19415
902.379	19460
902.498	19419
902.617	19350
902.735	19483
902.854	19434
902.973	19232
903.091	19012
903.21	18951
903.328	19034
903.446	18875
903.565	18958
903.683	18882
903.801	18745
903.919	18798
904.038	18798
904.156	18467
904.274	18734
904.392	18582
904.51	18585
904.627	18612
904.745	18696
904.863	18544
904.981	18566
905.098	18357
905.216	18315
905.334	18384
905.451	18300
905.569	18235
905.686	18315
905.803	18258
905.921	18091
906.038	18060
906.155	18049
906.272	17999
906.389	18041
906.506	17859
906.623	17828
906.74	17821
906.857	17722
906.974	17714
907.091	17859
907.208	17988
907.324	17836
907.441	17653
907.557	17471
907.674	17619
907.79	17471
907.907	17562
908.023	17615
908.139	17539
908.256	17425
908.372	17490
908.488	17387
908.604	17261
908.72	17200
908.836	17185
908.952	17185
909.068	17292
909.184	17376
909.3	17239
909.415	17212
909.531	17204
909.647	16980
909.762	16980
909.878	16927
909.993	16949
910.108	16904
910.224	16881
910.339	16873
910.454	16835
910.57	16729
910.685	16698
910.8	16995
910.915	16896
911.03	16733
911.145	16561
911.259	16386
911.374	16630
911.489	16493
911.604	16390
911.718	16287
911.833	16246
911.947	16173
912.062	16044
912.176	16169
912.291	16177
912.405	16230
912.519	16497
912.633	16466
912.748	16303
912.862	16177
912.976	16078
913.09	16006
913.204	16128
913.318	16051
913.431	16150
913.545	16185
913.659	16249
913.772	16051
913.886	15880
914	15926
914.113	15918
914.226	16017
914.34	15934
914.453	15747
914.566	15899
914.68	15751
914.793	15762
914.906	15545
915.019	15424
915.132	15450
915.245	15386
915.358	15511
915.47	15580
915.583	15530
915.696	15496
915.809	15553
915.921	15644
916.034	15401
916.146	15367
916.259	15359
916.371	15477
916.483	15450
916.595	15272
916.708	15214
916.82	15313
916.932	15252
917.044	15211
917.156	15237
917.268	15157
917.38	15188
917.491	15123
917.603	15180
917.715	15214
917.826	15203
917.938	14998
918.049	14952
918.161	15077
918.272	15165
918.384	15294
918.495	15017
918.606	14895
918.717	14826
918.828	14857
918.939	14895
919.05	14800
919.161	14765
919.272	14598
919.383	14693
919.494	14861
919.604	15047
919.715	14891
919.826	14849
919.936	14842
920.047	14880
920.157	14842
920.267	14990
920.378	14849
920.488	14701
920.598	14979
920.708	15020
920.818	14906
920.928	14952
921.038	15089
921.148	14952
921.258	14773
921.368	14731
921.477	14526
921.587	14511
921.697	14328
921.806	14556
921.916	14362
922.025	14271
922.134	14233
922.244	14263
922.353	14221
922.462	14046
922.571	14058
922.68	13879
922.789	13750
922.898	13765
923.007	13761
923.116	13898
923.224	13841
923.333	13750
923.442	13772
923.55	13559
923.659	13655
923.767	13674
923.876	13578
923.984	13677
924.092	13537
924.201	13567
924.309	13514
924.417	13552
924.525	13537
924.633	13533
924.741	14457
924.849	13335
924.956	13400
925.064	13285
925.172	13236
925.279	13244
925.387	13293
925.494	13206
925.602	13308
925.709	13251
925.816	13126
925.924	13160
926.031	13289
926.138	13278
926.245	13282
926.352	13107
926.459	13266
926.566	13244
926.673	13122
926.779	13034
926.886	12989
926.993	12844
927.099	12825
927.206	12798
927.312	12741
927.419	12886
927.525	12791
927.631	12795
927.737	12722
927.843	12612
927.95	12433
928.056	12608
928.162	12547
928.267	12707
928.373	13270
928.479	12608
928.585	12464
928.69	12506
928.796	12570
928.901	12486
929.007	12342
929.112	12506
929.218	12372
929.323	12330
929.428	12388
929.533	12479
929.638	12296
929.743	12273
929.848	12304
929.953	12239
930.058	12129
930.163	11992
930.267	12098
930.372	12155
930.477	11961
930.581	12220
930.685	12098
930.79	11908
930.894	11885
930.998	11855
931.103	11923
931.207	11611
931.311	11547
931.415	11425
931.519	11261
931.623	11181
