Data from test_V78500241_3005.txt Node
Date: Fri Mar 25 16:02:37 CST 2022
User: usil
Spectrometer: V785-0024
Trigger mode: 0
Integration Time (sec): 4.000000E-1
Scans to average: 1
Nonlinearity correction enabled: false
Boxcar width: 0
Storing dark spectrum: false
XAxis mode: Wavelengths
Number of Pixels in Spectrum: 1024
>>>>>Begin Spectral Data<<<<<
801.071	28542
801.214	28550
801.356	28318
801.499	28363
801.641	28204
801.783	28287
801.926	28291
802.068	28215
802.211	28112
802.353	27998
802.496	28006
802.638	27903
802.78	27770
802.923	27823
803.065	27736
803.208	27857
803.35	27975
803.492	28105
803.635	28112
803.777	28017
803.919	28036
804.061	28382
804.204	28143
804.346	28082
804.488	28010
804.63	28204
804.773	28105
804.915	28257
805.057	28337
805.199	28082
805.341	28325
805.483	28249
805.626	28310
805.768	28109
805.91	28367
806.052	28371
806.194	28158
806.336	28573
806.478	28303
806.62	28322
806.762	28421
806.904	28588
807.046	28786
807.188	28771
807.33	28797
807.472	28778
807.614	28679
807.756	28725
807.898	28637
808.04	28386
808.182	28573
808.324	28607
808.465	28641
808.607	28923
808.749	28862
808.891	29025
809.033	29121
809.174	28991
809.316	28942
809.458	28976
809.6	28923
809.741	29090
809.883	28987
810.025	29311
810.166	29239
810.308	29220
810.45	29246
810.591	29231
810.733	28847
810.875	29033
811.016	28900
811.158	28957
811.299	28976
811.441	29159
811.582	29220
811.724	28984
811.865	28904
812.007	28995
812.148	28888
812.29	28946
812.431	29231
812.573	29414
812.714	29501
812.855	29524
812.997	29589
813.138	29619
813.279	29604
813.421	29524
813.562	29543
813.703	29299
813.845	29231
813.986	28938
814.127	28744
814.268	28710
814.41	28740
814.551	28828
814.692	28778
814.833	28443
814.974	28698
815.115	28698
815.256	28596
815.397	28538
815.539	28546
815.68	28413
815.821	28287
815.962	28519
816.103	28546
816.244	28341
816.385	28280
816.526	28291
816.666	28090
816.807	28101
816.948	28082
817.089	28200
817.23	28013
817.371	27972
817.512	28101
817.653	28017
817.793	27873
817.934	27934
818.075	28158
818.216	28059
818.356	27918
818.497	28048
818.638	27606
818.778	27797
818.919	27876
819.06	28002
819.2	27850
819.341	27964
819.481	27956
819.622	28196
819.762	28390
819.903	28272
820.043	28265
820.184	28105
820.324	28070
820.465	28074
820.605	28131
820.746	28150
820.886	28040
821.026	28067
821.167	28078
821.307	28101
821.447	28101
821.588	28010
821.728	27724
821.868	27542
822.008	27477
822.149	27511
822.289	27454
822.429	27214
822.569	27116
822.709	27207
822.849	27119
822.99	27043
823.13	26872
823.27	26967
823.41	26918
823.55	26697
823.69	26773
823.83	26811
823.97	26796
824.11	26594
824.25	26503
824.389	26583
824.529	26769
824.669	26594
824.809	26716
824.949	26648
825.089	26701
825.228	26792
825.368	26602
825.508	26533
825.648	26469
825.787	26541
825.927	26716
826.067	26412
826.206	26556
826.346	26598
826.485	26473
826.625	26541
826.765	26667
826.904	26587
827.044	26278
827.183	26183
827.323	26286
827.462	26396
827.601	26267
827.741	26180
827.88	26233
828.02	26153
828.159	26229
828.298	26267
828.437	26176
828.577	26122
828.716	26298
828.855	26130
828.994	25966
829.134	25902
829.273	25970
829.412	25887
829.551	25750
829.69	25951
829.829	25993
829.968	25940
830.107	26065
830.246	25887
830.385	25784
830.524	25849
830.663	25753
830.802	25685
830.941	25392
831.08	25502
831.219	25708
831.357	25529
831.496	25807
831.635	25495
831.774	25464
831.913	25559
832.051	25411
832.19	25407
832.329	25343
832.467	25266
832.606	25114
832.744	25217
832.883	25225
833.022	25187
833.16	25206
833.299	25080
833.437	25221
833.576	25304
833.714	25225
833.852	25381
833.991	25282
834.129	25308
834.267	25377
834.406	25278
834.544	25304
834.682	25266
834.821	25179
834.959	25529
835.097	25274
835.235	25324
835.373	25168
835.511	25209
835.65	25126
835.788	25038
835.926	24920
836.064	24909
836.202	24989
836.34	25091
836.478	25084
836.615	25152
836.753	25232
836.891	25225
837.029	25175
837.167	24992
837.305	24973
837.443	25080
837.58	24833
837.718	24981
837.856	24973
837.993	25061
838.131	24943
838.269	24623
838.406	24833
838.544	24734
838.681	24650
838.819	24677
838.956	24509
839.094	24475
839.231	24433
839.369	24589
839.506	24745
839.643	24730
839.781	24433
839.918	24330
840.055	24551
840.193	24357
840.33	24319
840.467	24380
840.604	24273
840.742	24475
840.879	24079
841.016	24213
841.153	24190
841.29	24395
841.427	24266
841.564	24311
841.701	24254
841.838	24262
841.975	24155
842.112	24117
842.249	24117
842.385	23999
842.522	24342
842.659	24057
842.796	24064
842.933	24007
843.069	24026
843.206	24072
843.343	24121
843.479	24102
843.616	24015
843.752	23813
843.889	23885
844.025	23999
844.162	23840
844.298	23904
844.435	23802
844.571	23821
844.708	23874
844.844	23946
844.98	23973
845.117	23904
845.253	23687
845.389	23649
845.525	23718
845.661	23653
845.798	23501
845.934	23596
846.07	23448
846.206	23486
846.342	23638
846.478	23649
846.614	23364
846.75	23223
846.886	23334
847.022	23311
847.158	23364
847.294	23383
847.429	23417
847.565	23242
847.701	23562
847.837	22938
847.972	23041
848.108	23166
848.244	23121
848.379	22877
848.515	22774
848.65	22965
848.786	22904
848.921	22919
849.057	22915
849.192	22953
849.328	23056
849.463	22843
849.598	22748
849.734	22793
849.869	22744
850.004	22687
850.14	22626
850.275	22702
850.41	22561
850.545	22455
850.68	22679
850.815	22672
850.95	22660
851.085	22774
851.22	22694
851.355	22584
851.49	22500
851.625	22577
851.76	22542
851.895	22485
852.03	22641
852.165	22615
852.299	22774
852.434	22710
852.569	22649
852.703	22721
852.838	22672
852.973	22653
853.107	22790
853.242	22683
853.376	22382
853.511	22386
853.645	22508
853.78	22713
853.914	22550
854.048	22276
854.183	22466
854.317	22516
854.451	22554
854.585	22478
854.72	22367
854.854	22481
854.988	22379
855.122	22538
855.256	22371
855.39	22470
855.524	22466
855.658	22428
855.792	22519
855.926	22527
856.06	22508
856.194	22538
856.327	22424
856.461	22360
856.595	22371
856.729	22443
856.862	22588
856.996	22557
857.13	22519
857.263	22615
857.397	22618
857.53	22428
857.664	22607
857.797	22531
857.931	22592
858.064	22481
858.197	22626
858.331	22356
858.464	22436
858.597	22459
858.731	22432
858.864	22436
858.997	22409
859.13	22489
859.263	22466
859.396	22409
859.529	22405
859.662	22497
859.795	22402
859.928	22398
860.061	22523
860.194	22618
860.327	22577
860.46	22443
860.592	22596
860.725	22584
860.858	22531
860.99	22386
861.123	22341
861.256	22432
861.388	22413
861.521	23208
861.653	22363
861.786	22196
861.918	22348
862.05	22253
862.183	22352
862.315	22375
862.447	22478
862.58	22310
862.712	22177
862.844	22029
862.976	22329
863.108	22173
863.24	22478
863.372	22082
863.504	22112
863.636	22215
863.768	22162
863.9	22124
864.032	22067
864.164	22131
864.296	22120
864.428	22272
864.559	22120
864.691	22219
864.823	22185
864.954	22207
865.086	22059
865.217	22086
865.349	22025
865.48	22074
865.612	22074
865.743	22128
865.875	21983
866.006	21911
866.137	21972
866.269	22006
866.4	21926
866.531	21934
866.662	22006
866.793	21953
866.924	21983
867.055	22131
867.186	21994
867.317	21911
867.448	21979
867.579	21968
867.71	21766
867.841	21941
867.972	22036
868.103	21956
868.233	22006
868.364	21838
868.495	22150
868.625	22230
868.756	22265
868.886	22268
869.017	22337
869.147	22390
869.278	22318
869.408	22341
869.539	22257
869.669	22276
869.799	22268
869.929	22299
870.06	22348
870.19	22535
870.32	22584
870.45	22466
870.58	22554
870.71	22698
870.84	22721
870.97	22588
871.1	22641
871.23	22790
871.36	22710
871.489	22672
871.619	22744
871.749	22797
871.879	22885
872.008	23056
872.138	22850
872.267	22774
872.397	22763
872.526	22626
872.656	22516
872.785	22649
872.915	22782
873.044	22839
873.173	22748
873.303	22938
873.432	22881
873.561	22839
873.69	22873
873.819	22843
873.948	22828
874.077	22927
874.206	22847
874.335	22771
874.464	22927
874.593	23067
874.722	22869
874.851	23079
874.979	23124
875.108	23128
875.237	22976
875.365	23041
875.494	23079
875.623	23086
875.751	22980
875.88	23041
876.008	23231
876.136	23273
876.265	23505
876.393	23585
876.521	23486
876.65	23493
876.778	23474
876.906	23258
877.034	23330
877.162	23429
877.29	23296
877.418	23455
877.546	23414
877.674	23258
877.802	23322
877.93	23379
878.058	23307
878.185	23334
878.313	23383
878.441	23383
878.568	23288
878.696	23486
878.824	23452
878.951	23524
879.079	23634
879.206	23611
879.333	23581
879.461	23436
879.588	23505
879.715	23528
879.842	23611
879.97	23436
880.097	23189
880.224	23250
880.351	23307
880.478	23220
880.605	23166
880.732	23258
880.859	23364
880.986	23296
881.112	23227
881.239	23037
881.366	22961
881.493	22854
881.619	22812
881.746	22782
881.872	22721
881.999	22725
882.125	22759
882.252	22778
882.378	22672
882.505	22778
882.631	22527
882.757	22402
882.883	22489
883.01	22504
883.136	22428
883.262	22363
883.388	22314
883.514	22508
883.64	22550
883.766	22367
883.892	22131
884.018	22284
884.143	22276
884.269	22367
884.395	22188
884.52	22006
884.646	22135
884.772	21975
884.897	21991
885.023	22044
885.148	22124
885.274	22196
885.399	22143
885.524	22048
885.65	22010
885.775	22097
885.9	22150
886.025	22177
886.15	22055
886.275	22006
886.4	22013
886.525	22010
886.65	21968
886.775	21850
886.9	22154
887.025	22299
887.149	22078
887.274	21827
887.399	21861
887.523	21873
887.648	21781
887.773	21819
887.897	21994
888.021	21800
888.146	21732
888.27	21903
888.395	21945
888.519	21922
888.643	21911
888.767	21797
888.891	21724
889.015	21549
889.139	21690
889.263	21545
889.387	21739
889.511	21850
889.635	21686
889.759	21576
889.883	21515
890.006	21755
890.13	21656
890.254	21561
890.377	21595
890.501	21351
890.624	21405
890.748	21488
890.871	21237
890.995	21169
891.118	21150
891.241	21291
891.364	21218
891.488	21119
891.611	21150
891.734	21112
891.857	21161
891.98	21062
892.103	21173
892.226	21154
892.349	21024
892.471	20910
892.594	21043
892.717	21237
892.839	20941
892.962	21074
893.085	21207
893.207	20960
893.33	20880
893.452	21005
893.575	21123
893.697	21070
893.819	21195
893.941	21123
894.064	21154
894.186	20899
894.308	21036
894.43	21203
894.552	21096
894.674	20963
894.796	20990
894.918	21020
895.04	21123
895.161	21116
895.283	21017
895.405	21001
895.526	20906
895.648	20994
895.769	21077
895.891	21017
896.012	21055
896.134	21096
896.255	21074
896.376	21017
896.498	21032
896.619	21093
896.74	21070
896.861	20994
896.982	21325
897.103	21367
897.224	21245
897.345	21310
897.466	21195
897.587	21237
897.708	21367
897.828	21203
897.949	21184
898.07	21161
898.19	21150
898.311	21302
898.431	21119
898.552	21237
898.672	21188
898.792	21317
898.913	21096
899.033	21081
899.153	21024
899.273	20883
899.393	20998
899.513	20998
899.633	20933
899.753	20982
899.873	20883
899.993	21005
900.113	21036
900.232	21017
900.352	20891
900.472	20773
900.591	20651
900.711	20823
900.83	20655
900.95	20849
901.069	20800
901.189	20594
901.308	20446
901.427	20229
901.546	20317
901.665	20355
901.784	20313
901.904	20199
902.023	20092
902.141	19921
902.26	19864
902.379	19974
902.498	19868
902.617	19776
902.735	19704
902.854	19750
902.973	19647
903.091	19510
903.21	19518
903.328	19559
903.446	19324
903.565	19331
903.683	19221
903.801	19187
903.919	19209
904.038	19255
904.156	19034
904.274	19012
904.392	19080
904.51	19141
904.627	19027
904.745	18951
904.863	19168
904.981	18837
905.098	18669
905.216	18719
905.334	18707
905.451	18661
905.569	18646
905.686	18688
905.803	18734
905.921	18422
906.038	18608
906.155	18570
906.272	18365
906.389	18388
906.506	18270
906.623	18220
906.74	18171
906.857	18064
906.974	18034
907.091	18311
907.208	18353
907.324	18323
907.441	18174
907.557	17961
907.674	17939
907.79	17969
907.907	17878
908.023	17996
908.139	18003
908.256	17821
908.372	17779
908.488	17783
908.604	17661
908.72	17596
908.836	17668
908.952	17539
909.068	17596
909.184	17779
909.3	17558
909.415	17760
909.531	17672
909.647	17326
909.762	17383
909.878	17337
909.993	17220
910.108	17326
910.224	17334
910.339	17254
910.454	17185
910.57	17204
910.685	17056
910.8	17311
910.915	17261
911.03	17212
911.145	16976
911.259	16908
911.374	16927
911.489	16915
911.604	16790
911.718	16653
911.833	16599
911.947	16611
912.062	16588
912.176	16660
912.291	16736
912.405	16679
912.519	16949
912.633	16904
912.748	16713
912.862	16725
912.976	16577
913.09	16341
913.204	16443
913.318	16417
913.431	16504
913.545	16626
913.659	16451
913.772	16348
913.886	16299
914	16200
914.113	16287
914.226	16436
914.34	16390
914.453	16109
914.566	16352
914.68	16048
914.793	16116
914.906	15964
915.019	15804
915.132	15808
915.245	15842
915.358	15888
915.47	15797
915.583	15823
915.696	15915
915.809	15968
915.921	15991
916.034	15698
916.146	15880
916.259	15743
916.371	15739
916.483	15804
916.595	15633
916.708	15667
916.82	15610
916.932	15675
917.044	15652
917.156	15610
917.268	15488
917.38	15500
917.491	15370
917.603	15545
917.715	15504
917.826	15553
917.938	15466
918.049	15393
918.161	15359
918.272	15542
918.384	15526
918.495	15355
918.606	15169
918.717	15146
918.828	15142
918.939	15260
919.05	15195
919.161	15127
919.272	15062
919.383	15058
919.494	15150
919.604	15439
919.715	15249
919.826	15081
919.936	15142
920.047	15252
920.157	15195
920.267	15325
920.378	15142
920.488	15154
920.598	15367
920.708	15515
920.818	15336
920.928	15298
921.038	15462
921.148	15344
921.258	15161
921.368	15077
921.477	14948
921.587	14956
921.697	14712
921.806	14880
921.916	14788
922.025	14598
922.134	14575
922.244	14499
922.353	14514
922.462	14385
922.571	14355
922.68	14229
922.789	14100
922.898	14214
923.007	14077
923.116	14130
923.224	14138
923.333	14073
923.442	13967
923.55	14065
923.659	14046
923.767	14005
923.876	13883
923.984	13978
924.092	13875
924.201	13860
924.309	13845
924.417	13788
924.525	13788
924.633	13674
924.741	14492
924.849	13575
924.956	13666
925.064	13616
925.172	13533
925.279	13559
925.387	13552
925.494	13464
925.602	13636
925.709	13658
925.816	13434
925.924	13502
926.031	13575
926.138	13457
926.245	13529
926.352	13396
926.459	13567
926.566	13578
926.673	13453
926.779	13285
926.886	13308
926.993	13107
927.099	13187
927.206	13065
927.312	13034
927.419	13107
927.525	12996
927.631	13095
927.737	13046
927.843	12939
927.95	12852
928.056	12939
928.162	12989
928.267	12928
928.373	13571
928.479	12897
928.585	12711
928.69	12859
928.796	12916
928.901	12734
929.007	12601
929.112	12768
929.218	12677
929.323	12688
929.428	12639
929.533	12684
929.638	12513
929.743	12483
929.848	12563
929.953	12513
930.058	12467
930.163	12334
930.267	12232
930.372	12395
930.477	12254
930.581	12418
930.685	12273
930.79	12163
930.894	12205
930.998	12155
931.103	12369
931.207	11866
931.311	11703
931.415	11714
931.519	11570
931.623	11493
