Data from test_V78500241_3259.txt Node
Date: Fri Mar 25 16:04:22 CST 2022
User: usil
Spectrometer: V785-0024
Trigger mode: 0
Integration Time (sec): 4.000000E-1
Scans to average: 1
Nonlinearity correction enabled: false
Boxcar width: 0
Storing dark spectrum: false
XAxis mode: Wavelengths
Number of Pixels in Spectrum: 1024
>>>>>Begin Spectral Data<<<<<
801.071	28854
801.214	28637
801.356	28573
801.499	28417
801.641	28200
801.783	28390
801.926	28550
802.068	28356
802.211	28219
802.353	28295
802.496	28090
802.638	28192
802.78	28063
802.923	28017
803.065	27964
803.208	28006
803.35	27979
803.492	28082
803.635	28348
803.777	28242
803.919	28192
804.061	28512
804.204	28280
804.346	28242
804.488	28253
804.63	28390
804.773	28040
804.915	28299
805.057	28432
805.199	28314
805.341	28405
805.483	28447
805.626	28386
805.768	28348
805.91	28367
806.052	28485
806.194	28417
806.336	28641
806.478	28538
806.62	28405
806.762	28573
806.904	28809
807.046	28938
807.188	28919
807.33	28850
807.472	28881
807.614	28934
807.756	28888
807.898	28755
808.04	28683
808.182	28698
808.324	28877
808.465	28782
808.607	29128
808.749	29079
808.891	29143
809.033	29292
809.174	29109
809.316	29048
809.458	29006
809.6	29044
809.741	29246
809.883	29337
810.025	29375
810.166	29478
810.308	29402
810.45	29364
810.591	29250
810.733	29083
810.875	29242
811.016	28984
811.158	29109
811.299	29239
811.441	29292
811.582	29303
811.724	29128
811.865	29098
812.007	29083
812.148	29105
812.29	29220
812.431	29345
812.573	29497
812.714	29630
812.855	29634
812.997	29741
813.138	29931
813.279	29752
813.421	29813
813.562	29695
813.703	29509
813.845	29524
813.986	29250
814.127	29064
814.268	28778
814.41	28850
814.551	28748
814.692	28900
814.833	28824
814.974	28824
815.115	28915
815.256	28748
815.397	28782
815.539	28774
815.68	28736
815.821	28668
815.962	28565
816.103	28763
816.244	28584
816.385	28512
816.526	28459
816.666	28223
816.807	28284
816.948	28074
817.089	28242
817.23	28284
817.371	28200
817.512	28230
817.653	28101
817.793	28177
817.934	28029
818.075	28215
818.216	28154
818.356	28162
818.497	28086
818.638	27968
818.778	27922
818.919	27918
819.06	27956
819.2	28010
819.341	28268
819.481	28086
819.622	28432
819.762	28462
819.903	28497
820.043	28371
820.184	28344
820.324	28246
820.465	28314
820.605	28291
820.746	28280
820.886	28246
821.026	28352
821.167	28226
821.307	28352
821.447	28128
821.588	28036
821.728	28090
821.868	27835
822.008	27690
822.149	27660
822.289	27614
822.429	27355
822.569	27431
822.709	27378
822.849	27180
822.99	27211
823.13	27154
823.27	27157
823.41	27077
823.55	26910
823.69	27009
823.83	26998
823.97	26937
824.11	26849
824.25	26716
824.389	26758
824.529	26998
824.669	26807
824.809	26937
824.949	26967
825.089	26990
825.228	26899
825.368	26830
825.508	26686
825.648	26739
825.787	26834
825.927	26861
826.067	26777
826.206	26743
826.346	26834
826.485	26777
826.625	26811
826.765	26876
826.904	26765
827.044	26484
827.183	26480
827.323	26408
827.462	26564
827.601	26412
827.741	26480
827.88	26473
828.02	26294
828.159	26351
828.298	26522
828.437	26400
828.577	26355
828.716	26514
828.855	26168
828.994	26149
829.134	26134
829.273	26161
829.412	26122
829.551	25989
829.69	26005
829.829	26103
829.968	26012
830.107	26153
830.246	26122
830.385	26149
830.524	26054
830.663	25921
830.802	25951
830.941	25795
831.08	25708
831.219	25921
831.357	25769
831.496	25852
831.635	25807
831.774	25742
831.913	25799
832.051	25552
832.19	25540
832.329	25392
832.467	25415
832.606	25274
832.744	25297
832.883	25362
833.022	25331
833.16	25388
833.299	25377
833.437	25472
833.576	25430
833.714	25441
833.852	25548
833.991	25491
834.129	25468
834.267	25525
834.406	25495
834.544	25525
834.682	25457
834.821	25571
834.959	25689
835.097	25365
835.235	25510
835.373	25476
835.511	25426
835.65	25312
835.788	25381
835.926	25266
836.064	25099
836.202	25126
836.34	25285
836.478	25335
836.615	25232
836.753	25244
836.891	25358
837.029	25369
837.167	25255
837.305	25289
837.443	25202
837.58	24989
837.718	25213
837.856	25148
837.993	25145
838.131	25050
838.269	24989
838.406	24989
838.544	24848
838.681	24760
838.819	24677
838.956	24574
839.094	24654
839.231	24589
839.369	24730
839.506	25027
839.643	24730
839.781	24635
839.918	24582
840.055	24547
840.193	24635
840.33	24479
840.467	24555
840.604	24399
840.742	24700
840.879	24346
841.016	24422
841.153	24270
841.29	24593
841.427	24429
841.564	24566
841.701	24433
841.838	24365
841.975	24365
842.112	24281
842.249	24342
842.385	24224
842.522	24391
842.659	24319
842.796	24148
842.933	24384
843.069	24125
843.206	24110
843.343	24213
843.479	24254
843.616	24300
843.752	24045
843.889	24049
844.025	24038
844.162	24026
844.298	24174
844.435	24110
844.571	23889
844.708	23980
844.844	24167
844.98	24136
845.117	24079
845.253	24003
845.389	23958
845.525	23863
845.661	23927
845.798	23741
845.934	23821
846.07	23726
846.206	23691
846.342	23809
846.478	23554
846.614	23524
846.75	23433
846.886	23341
847.022	23596
847.158	23558
847.294	23524
847.429	23558
847.565	23421
847.701	23836
847.837	23216
847.972	23090
848.108	23307
848.244	23303
848.379	23083
848.515	22961
848.65	22904
848.786	23140
848.921	23098
849.057	23140
849.192	23010
849.328	23128
849.463	23048
849.598	22968
849.734	22904
849.869	23060
850.004	22733
850.14	22809
850.275	22858
850.41	22713
850.545	22858
850.68	22858
850.815	22847
850.95	22881
851.085	23094
851.22	22949
851.355	22915
851.49	22877
851.625	22881
851.76	22691
851.895	22649
852.03	22733
852.165	22877
852.299	22881
852.434	22953
852.569	22748
852.703	22831
852.838	22908
852.973	23037
853.107	22938
853.242	22710
853.376	22736
853.511	22504
853.645	22611
853.78	22668
853.914	22626
854.048	22626
854.183	22538
854.317	22660
854.451	22706
854.585	22691
854.72	22683
854.854	22812
854.988	22615
855.122	22569
855.256	22481
855.39	22561
855.524	22664
855.658	22752
855.792	22569
855.926	22729
856.06	22702
856.194	22672
856.327	22569
856.461	22622
856.595	22641
856.729	22679
856.862	22698
856.996	22618
857.13	22744
857.263	22729
857.397	22733
857.53	22687
857.664	22748
857.797	22645
857.931	22812
858.064	22668
858.197	22729
858.331	22691
858.464	22497
858.597	22402
858.731	22748
858.864	22584
858.997	22584
859.13	22729
859.263	22653
859.396	22904
859.529	22508
859.662	22641
859.795	22561
859.928	22611
860.061	22809
860.194	22896
860.327	22687
860.46	22641
860.592	22721
860.725	22805
860.858	22729
860.99	22637
861.123	22611
861.256	22580
861.388	22710
861.521	23261
861.653	22519
861.786	22527
861.918	22421
862.05	22527
862.183	22481
862.315	22584
862.447	22660
862.58	22603
862.712	22478
862.844	22238
862.976	22409
863.108	22428
863.24	22706
863.372	22329
863.504	22344
863.636	22386
863.768	22295
863.9	22402
864.032	22295
864.164	22314
864.296	22470
864.428	22478
864.559	22363
864.691	22394
864.823	22382
864.954	22329
865.086	22272
865.217	22272
865.349	22070
865.48	22322
865.612	22242
865.743	22402
865.875	22314
866.006	22325
866.137	22333
866.269	22188
866.4	22139
866.531	22162
866.662	22112
866.793	22284
866.924	22158
867.055	22234
867.186	22192
867.317	22150
867.448	22166
867.579	22109
867.71	22200
867.841	22044
867.972	22067
868.103	22067
868.233	22116
868.364	22093
868.495	22272
868.625	22344
868.756	22405
868.886	22329
869.017	22337
869.147	22341
869.278	22493
869.408	22512
869.539	22299
869.669	22504
869.799	22398
869.929	22634
870.06	22436
870.19	22858
870.32	22717
870.45	22771
870.58	22664
870.71	22820
870.84	22759
870.97	22782
871.1	22828
871.23	23033
871.36	22938
871.489	22942
871.619	22980
871.749	22930
871.879	23083
872.008	23079
872.138	23121
872.267	23109
872.397	22889
872.526	22793
872.656	22904
872.785	22862
872.915	23121
873.044	23140
873.173	23029
873.303	23132
873.432	23140
873.561	23181
873.69	23113
873.819	23018
873.948	23147
874.077	23086
874.206	22904
874.335	23014
874.464	23022
874.593	23368
874.722	23166
874.851	23364
874.979	23151
875.108	23303
875.237	23277
875.365	23178
875.494	23235
875.623	23261
875.751	23140
875.88	23326
876.008	23406
876.136	23258
876.265	23611
876.393	23600
876.521	23676
876.65	23646
876.778	23551
876.906	23539
877.034	23524
877.162	23535
877.29	23497
877.418	23592
877.546	23627
877.674	23596
877.802	23562
877.93	23474
878.058	23615
878.185	23486
878.313	23505
878.441	23573
878.568	23440
878.696	23509
878.824	23611
878.951	23604
879.079	23874
879.206	23813
879.333	23634
879.461	23551
879.588	23729
879.715	23794
879.842	23729
879.97	23707
880.097	23410
880.224	23254
880.351	23551
880.478	23436
880.605	23303
880.732	23292
880.859	23619
880.986	23391
881.112	23360
881.239	23239
881.366	23113
881.493	23121
881.619	22896
881.746	23018
881.872	22892
881.999	22968
882.125	22942
882.252	22885
882.378	22934
882.505	23090
882.631	22869
882.757	22763
882.883	22653
883.01	22599
883.136	22508
883.262	22413
883.388	22394
883.514	22653
883.64	22603
883.766	22489
883.892	22333
884.018	22394
884.143	22557
884.269	22630
884.395	22417
884.52	22188
884.646	22272
884.772	22063
884.897	22029
885.023	22314
885.148	22185
885.274	22447
885.399	22333
885.524	22390
885.65	22242
885.775	22188
885.9	22188
886.025	22390
886.15	22356
886.275	22188
886.4	22097
886.525	22158
886.65	22200
886.775	22082
886.9	22379
887.025	22432
887.149	22200
887.274	21975
887.399	22013
887.523	22002
887.648	21998
887.773	21846
887.897	22135
888.021	22063
888.146	22090
888.27	22082
888.395	22105
888.519	21979
888.643	22040
888.767	22036
888.891	21903
889.015	21823
889.139	21915
889.263	21705
889.387	21823
889.511	22101
889.635	21915
889.759	21675
889.883	21720
890.006	21720
890.13	21823
890.254	21618
890.377	21720
890.501	21428
890.624	21504
890.748	21469
890.871	21511
890.995	21291
891.118	21264
891.241	21378
891.364	21500
891.488	21370
891.611	21378
891.734	21294
891.857	21317
891.98	21397
892.103	21401
892.226	21241
892.349	21317
892.471	21169
892.594	21150
892.717	21237
892.839	21348
892.962	21230
893.085	21408
893.207	21192
893.33	21142
893.452	21264
893.575	21367
893.697	21249
893.819	21386
893.941	21443
894.064	21397
894.186	21161
894.308	21131
894.43	21192
894.552	21374
894.674	21302
894.796	21154
894.918	21192
895.04	21237
895.161	21195
895.283	21397
895.405	21157
895.526	21222
895.648	21161
895.769	21218
895.891	21199
896.012	21237
896.134	21317
896.255	21226
896.376	21146
896.498	21108
896.619	21233
896.74	21176
896.861	21256
896.982	21549
897.103	21656
897.224	21587
897.345	21393
897.466	21370
897.587	21408
897.708	21549
897.828	21469
897.949	21393
898.07	21192
898.19	21169
898.311	21469
898.431	21424
898.552	21374
898.672	21469
898.792	21553
898.913	21416
899.033	21237
899.153	21199
899.273	20994
899.393	21157
899.513	21195
899.633	21146
899.753	21192
899.873	21135
899.993	21081
900.113	21093
900.232	21131
900.352	21058
900.472	21036
900.591	20929
900.711	20979
900.83	20929
900.95	21055
901.069	20902
901.189	20651
901.308	20575
901.427	20370
901.546	20484
901.665	20480
901.784	20511
901.904	20370
902.023	20290
902.141	20016
902.26	20069
902.379	20126
902.498	19974
902.617	19909
902.735	19936
902.854	19883
902.973	19871
903.091	19613
903.21	19540
903.328	19628
903.446	19571
903.565	19468
903.683	19491
903.801	19407
903.919	19392
904.038	19438
904.156	19160
904.274	19259
904.392	19168
904.51	19194
904.627	19206
904.745	19198
904.863	19247
904.981	18909
905.098	18863
905.216	18932
905.334	18916
905.451	18821
905.569	18802
905.686	18856
905.803	18791
905.921	18593
906.038	18631
906.155	18616
906.272	18566
906.389	18551
906.506	18418
906.623	18407
906.74	18372
906.857	18289
906.974	18323
907.091	18437
907.208	18585
907.324	18391
907.441	18243
907.557	18083
907.674	18083
907.79	18064
907.907	18060
908.023	18091
908.139	18041
908.256	17996
908.372	17984
908.488	17901
908.604	17859
908.72	17661
908.836	17843
908.952	17741
909.068	17748
909.184	17855
909.3	17699
909.415	17775
909.531	17748
909.647	17589
909.762	17581
909.878	17383
909.993	17402
910.108	17383
910.224	17417
910.339	17452
910.454	17318
910.57	17284
910.685	17231
910.8	17459
910.915	17368
911.03	17223
911.145	17132
911.259	16984
911.374	17006
911.489	17006
911.604	16949
911.718	16759
911.833	16687
911.947	16599
912.062	16702
912.176	16797
912.291	16843
912.405	16713
912.519	16991
912.633	17052
912.748	16767
912.862	16713
912.976	16653
913.09	16428
913.204	16493
913.318	16596
913.431	16702
913.545	16679
913.659	16675
913.772	16516
913.886	16432
914	16363
914.113	16462
914.226	16504
914.34	16489
914.453	16291
914.566	16329
914.68	16249
914.793	16265
914.906	15998
915.019	15869
915.132	15911
915.245	15964
915.358	16032
915.47	15846
915.583	15998
915.696	15968
915.809	16124
915.921	16143
916.034	15888
916.146	15892
916.259	15926
916.371	15892
916.483	15945
916.595	15804
916.708	15736
916.82	15804
916.932	15675
917.044	15747
917.156	15739
917.268	15698
917.38	15606
917.491	15545
917.603	15614
917.715	15701
917.826	15679
917.938	15526
918.049	15431
918.161	15458
918.272	15667
918.384	15644
918.495	15408
918.606	15450
918.717	15313
918.828	15260
918.939	15374
919.05	15199
919.161	15275
919.272	15017
919.383	15169
919.494	15355
919.604	15420
919.715	15256
919.826	15306
919.936	15272
920.047	15325
920.157	15355
920.267	15481
920.378	15237
920.488	15245
920.598	15454
920.708	15526
920.818	15431
920.928	15378
921.038	15606
921.148	15538
921.258	15218
921.368	15146
921.477	14963
921.587	15020
921.697	14842
921.806	14899
921.916	14724
922.025	14705
922.134	14594
922.244	14674
922.353	14670
922.462	14560
922.571	14461
922.68	14332
922.789	14142
922.898	14229
923.007	14221
923.116	14282
923.224	14290
923.333	14244
923.442	14180
923.55	14084
923.659	14107
923.767	14206
923.876	14069
923.984	14107
924.092	13951
924.201	13909
924.309	13986
924.417	13936
924.525	13883
924.633	13940
924.741	14644
924.849	13704
924.956	13868
925.064	13658
925.172	13605
925.279	13552
925.387	13750
925.494	13708
925.602	13734
925.709	13620
925.816	13483
925.924	13563
926.031	13696
926.138	13636
926.245	13609
926.352	13441
926.459	13559
926.566	13609
926.673	13521
926.779	13354
926.886	13346
926.993	13278
927.099	13198
927.206	13141
927.312	13209
927.419	13183
927.525	13232
927.631	13255
927.737	13046
927.843	13065
927.95	12989
928.056	13031
928.162	13065
928.267	13027
928.373	13537
928.479	13110
928.585	12795
928.69	13008
928.796	12981
928.901	12810
929.007	12730
929.112	12852
929.218	12848
929.323	12726
929.428	12745
929.533	12856
929.638	12578
929.743	12696
929.848	12711
929.953	12646
930.058	12506
930.163	12407
930.267	12357
930.372	12589
930.477	12437
930.581	12563
930.685	12506
930.79	12258
930.894	12228
930.998	12243
931.103	12403
931.207	12057
931.311	12007
931.415	11817
931.519	11798
931.623	11615
