Data from test_V78500241_215.txt Node
Date: Fri Mar 25 15:43:17 CST 2022
User: usil
Spectrometer: V785-0024
Trigger mode: 0
Integration Time (sec): 4.000000E-1
Scans to average: 1
Nonlinearity correction enabled: false
Boxcar width: 0
Storing dark spectrum: false
XAxis mode: Wavelengths
Number of Pixels in Spectrum: 1024
>>>>>Begin Spectral Data<<<<<
801.071	29779
801.214	29634
801.356	29512
801.499	29307
801.641	29200
801.783	29208
801.926	29288
802.068	29307
802.211	29178
802.353	29239
802.496	28873
802.638	29064
802.78	28919
802.923	28790
803.065	28881
803.208	28976
803.35	28980
803.492	29067
803.635	29075
803.777	29052
803.919	29075
804.061	29402
804.204	29052
804.346	28957
804.488	28862
804.63	29170
804.773	28850
804.915	29006
805.057	29064
805.199	28999
805.341	29113
805.483	29124
805.626	29162
805.768	29010
805.91	29064
806.052	29235
806.194	29162
806.336	29379
806.478	29220
806.62	29170
806.762	29383
806.904	29452
807.046	29623
807.188	29520
807.33	29478
807.472	29657
807.614	29497
807.756	29444
807.898	29379
808.04	29341
808.182	29296
808.324	29364
808.465	29375
808.607	29638
808.749	29699
808.891	29665
809.033	29874
809.174	29859
809.316	29687
809.458	29764
809.6	29775
809.741	29817
809.883	29901
810.025	30022
810.166	29961
810.308	30011
810.45	29870
810.591	29904
810.733	29642
810.875	29668
811.016	29463
811.158	29585
811.299	30011
811.441	29939
811.582	29794
811.724	29752
811.865	29699
812.007	29589
812.148	29703
812.29	29600
812.431	29809
812.573	29977
812.714	30083
812.855	30159
812.997	30186
813.138	30334
813.279	30346
813.421	30254
813.562	30159
813.703	30015
813.845	29889
813.986	29463
814.127	29535
814.268	29341
814.41	29467
814.551	29280
814.692	29417
814.833	29303
814.974	29166
815.115	29315
815.256	29162
815.397	29204
815.539	29170
815.68	29003
815.821	29033
815.962	29166
816.103	29136
816.244	28987
816.385	28790
816.526	28786
816.666	28618
816.807	28565
816.948	28527
817.089	28599
817.23	28596
817.371	28569
817.512	28466
817.653	28451
817.793	28363
817.934	28535
818.075	28577
818.216	28557
818.356	28493
818.497	28303
818.638	28185
818.778	28295
818.919	28169
819.06	28246
819.2	28344
819.341	28557
819.481	28481
819.622	28653
819.762	28752
819.903	28679
820.043	28580
820.184	28577
820.324	28550
820.465	28516
820.605	28580
820.746	28508
820.886	28356
821.026	28519
821.167	28577
821.307	28573
821.447	28325
821.588	28409
821.728	28154
821.868	28147
822.008	27956
822.149	27873
822.289	27739
822.429	27553
822.569	27568
822.709	27545
822.849	27325
822.99	27431
823.13	27340
823.27	27218
823.41	27131
823.55	27100
823.69	27154
823.83	27146
823.97	26994
824.11	26899
824.25	27047
824.389	27017
824.529	27085
824.669	27028
824.809	27119
824.949	27096
825.089	27058
825.228	26861
825.368	26724
825.508	26845
825.648	26864
825.787	26861
825.927	26975
826.067	26689
826.206	26883
826.346	26815
826.485	26823
826.625	26659
826.765	26868
826.904	26823
827.044	26518
827.183	26663
827.323	26469
827.462	26488
827.601	26545
827.741	26476
827.88	26434
828.02	26400
828.159	26446
828.298	26374
828.437	26533
828.577	26461
828.716	26594
828.855	26385
828.994	26225
829.134	26229
829.273	26225
829.412	26138
829.551	26096
829.69	26202
829.829	26237
829.968	26259
830.107	26233
830.246	26069
830.385	26069
830.524	26122
830.663	25982
830.802	25761
830.941	25635
831.08	25700
831.219	25784
831.357	25708
831.496	25978
831.635	25685
831.774	25453
831.913	25605
832.051	25578
832.19	25556
832.329	25590
832.467	25343
832.606	25240
832.744	25259
832.883	25354
833.022	25354
833.16	25346
833.299	25460
833.437	25422
833.576	25282
833.714	25282
833.852	25343
833.991	25537
834.129	25502
834.267	25491
834.406	25282
834.544	25225
834.682	25411
834.821	25411
834.959	25479
835.097	25137
835.235	25354
835.373	25217
835.511	25331
835.65	25255
835.788	25114
835.926	25061
836.064	24924
836.202	24856
836.34	25259
836.478	25168
836.615	25122
836.753	25217
836.891	25365
837.029	25164
837.167	25103
837.305	25008
837.443	25015
837.58	25042
837.718	25072
837.856	24973
837.993	24947
838.131	25015
838.269	24856
838.406	24848
838.544	24635
838.681	24532
838.819	24623
838.956	24407
839.094	24479
839.231	24445
839.369	24570
839.506	24673
839.643	24566
839.781	24429
839.918	24391
840.055	24342
840.193	24270
840.33	24171
840.467	24365
840.604	24281
840.742	24555
840.879	24239
841.016	24178
841.153	24190
841.29	24372
841.427	24235
841.564	24315
841.701	24178
841.838	24155
841.975	24186
842.112	24140
842.249	24030
842.385	23961
842.522	24174
842.659	23980
842.796	23897
842.933	23851
843.069	23878
843.206	23984
843.343	23874
843.479	23904
843.616	24091
843.752	23764
843.889	23745
844.025	23798
844.162	23684
844.298	23813
844.435	23589
844.571	23592
844.708	23687
844.844	23748
844.98	23866
845.117	23634
845.253	23611
845.389	23577
845.525	23539
845.661	23493
845.798	23353
845.934	23490
846.07	23395
846.206	23330
846.342	23482
846.478	23261
846.614	23174
846.75	23121
846.886	23044
847.022	23102
847.158	23025
847.294	23143
847.429	23174
847.565	23037
847.701	23406
847.837	22904
847.972	22812
848.108	22847
848.244	22938
848.379	22660
848.515	22653
848.65	22618
848.786	22672
848.921	22691
849.057	22660
849.192	22809
849.328	22725
849.463	22717
849.598	22584
849.734	22565
849.869	22474
850.004	22421
850.14	22523
850.275	22443
850.41	22188
850.545	22337
850.68	22375
850.815	22451
850.95	22344
851.085	22569
851.22	22474
851.355	22299
851.49	22310
851.625	22306
851.76	22299
851.895	22337
852.03	22356
852.165	22344
852.299	22303
852.434	22470
852.569	22360
852.703	22421
852.838	22428
852.973	22512
853.107	22531
853.242	22204
853.376	22215
853.511	22093
853.645	22234
853.78	22398
853.914	22074
854.048	22135
854.183	22120
854.317	22204
854.451	22287
854.585	22192
854.72	22139
854.854	22299
854.988	22105
855.122	22265
855.256	21941
855.39	22059
855.524	22139
855.658	22246
855.792	22234
855.926	22215
856.06	22147
856.194	22196
856.327	22090
856.461	22185
856.595	22188
856.729	22173
856.862	22310
856.996	22219
857.13	22230
857.263	22242
857.397	22192
857.53	22147
857.664	22192
857.797	22177
857.931	22207
858.064	22143
858.197	22276
858.331	22109
858.464	21972
858.597	21983
858.731	22070
858.864	22093
858.997	22246
859.13	22086
859.263	22135
859.396	22249
859.529	22013
859.662	21956
859.795	22036
859.928	22025
860.061	22322
860.194	22314
860.327	22128
860.46	22131
860.592	22242
860.725	22322
860.858	22215
860.99	22070
861.123	22051
861.256	22090
861.388	22082
861.521	22767
861.653	22040
861.786	21876
861.918	22105
862.05	22029
862.183	22166
862.315	22162
862.447	22169
862.58	22154
862.712	21785
862.844	21857
862.976	21869
863.108	21884
863.24	22223
863.372	21827
863.504	21633
863.636	21774
863.768	21895
863.9	21759
864.032	21751
864.164	21800
864.296	21793
864.428	21903
864.559	21876
864.691	21838
864.823	21694
864.954	21717
865.086	21816
865.217	21690
865.349	21690
865.48	21644
865.612	21739
865.743	21816
865.875	21705
866.006	21713
866.137	21564
866.269	21698
866.4	21591
866.531	21591
866.662	21644
866.793	21625
866.924	21587
867.055	21591
867.186	21633
867.317	21564
867.448	21587
867.579	21568
867.71	21549
867.841	21473
867.972	21553
868.103	21599
868.233	21694
868.364	21572
868.495	21637
868.625	21808
868.756	21907
868.886	21739
869.017	21812
869.147	21918
869.278	21960
869.408	21800
869.539	21774
869.669	21842
869.799	21998
869.929	21930
870.06	21956
870.19	22238
870.32	22112
870.45	22169
870.58	22192
870.71	22348
870.84	22337
870.97	22143
871.1	22188
871.23	22398
871.36	22379
871.489	22291
871.619	22344
871.749	22455
871.879	22493
872.008	22569
872.138	22371
872.267	22432
872.397	22379
872.526	22287
872.656	22185
872.785	22352
872.915	22485
873.044	22580
873.173	22500
873.303	22443
873.432	22546
873.561	22611
873.69	22421
873.819	22527
873.948	22626
874.077	22344
874.206	22409
874.335	22489
874.464	22569
874.593	22660
874.722	22599
874.851	22782
874.979	22782
875.108	22691
875.237	22603
875.365	22512
875.494	22649
875.623	22824
875.751	22599
875.88	22679
876.008	22713
876.136	22771
876.265	23094
876.393	23273
876.521	23231
876.65	23060
876.778	23025
876.906	23056
877.034	23018
877.162	23010
877.29	23090
877.418	23025
877.546	23162
877.674	22885
877.802	23067
877.93	22957
878.058	22839
878.185	22892
878.313	22991
878.441	22991
878.568	22774
878.696	22987
878.824	23003
878.951	23064
879.079	23143
879.206	23220
879.333	23060
879.461	22987
879.588	23162
879.715	23140
879.842	23246
879.97	23048
880.097	22828
880.224	22946
880.351	22911
880.478	22828
880.605	22790
880.732	22805
880.859	22908
880.986	22869
881.112	22904
881.239	22736
881.366	22599
881.493	22554
881.619	22337
881.746	22382
881.872	22375
881.999	22310
882.125	22398
882.252	22504
882.378	22440
882.505	22485
882.631	22246
882.757	22185
882.883	22192
883.01	22166
883.136	22185
883.262	21994
883.388	21907
883.514	22124
883.64	22154
883.766	22032
883.892	21835
884.018	22032
884.143	22173
884.269	22109
884.395	21831
884.52	21701
884.646	21816
884.772	21736
884.897	21618
885.023	21808
885.148	21736
885.274	21873
885.399	21945
885.524	21728
885.65	21618
885.775	21675
885.9	21633
886.025	21819
886.15	21751
886.275	21671
886.4	21652
886.525	21732
886.65	21641
886.775	21580
886.9	21766
887.025	22006
887.149	21778
887.274	21488
887.399	21443
887.523	21526
887.648	21405
887.773	21416
887.897	21557
888.021	21622
888.146	21317
888.27	21515
888.395	21473
888.519	21606
888.643	21485
888.767	21466
888.891	21340
889.015	21302
889.139	21241
889.263	21138
889.387	21264
889.511	21348
889.635	21355
889.759	21188
889.883	21154
890.006	21161
890.13	21397
890.254	21157
890.377	21096
890.501	20925
890.624	20986
890.748	21013
890.871	20861
890.995	20708
891.118	20731
891.241	20887
891.364	20830
891.488	20857
891.611	20910
891.734	20758
891.857	20800
891.98	20811
892.103	20804
892.226	20765
892.349	20781
892.471	20503
892.594	20678
892.717	20830
892.839	20621
892.962	20712
893.085	20762
893.207	20724
893.33	20602
893.452	20659
893.575	20644
893.697	20663
893.819	20883
893.941	20895
894.064	20830
894.186	20617
894.308	20571
894.43	20640
894.552	20994
894.674	20678
894.796	20636
894.918	20602
895.04	20621
895.161	20674
895.283	20788
895.405	20594
895.526	20708
895.648	20708
895.769	20716
895.891	20705
896.012	20651
896.134	20804
896.255	20621
896.376	20625
896.498	20609
896.619	20583
896.74	20796
896.861	20857
896.982	21226
897.103	21089
897.224	21089
897.345	21093
897.466	20868
897.587	20921
897.708	20975
897.828	20952
897.949	20781
898.07	20773
898.19	20834
898.311	20979
898.431	20849
898.552	20823
898.672	20918
898.792	20758
898.913	20910
899.033	20815
899.153	20667
899.273	20427
899.393	20556
899.513	20606
899.633	20454
899.753	20568
899.873	20587
899.993	20556
900.113	20598
900.232	20590
900.352	20484
900.472	20358
900.591	20309
900.711	20442
900.83	20385
900.95	20469
901.069	20450
901.189	20332
901.308	20012
901.427	19932
901.546	20035
901.665	20027
901.784	19997
901.904	19753
902.023	19685
902.141	19499
902.26	19571
902.379	19571
902.498	19377
902.617	19377
902.735	19502
902.854	19419
902.973	19339
903.091	18993
903.21	18977
903.328	19179
903.446	18954
903.565	18840
903.683	18863
903.801	18772
903.919	18764
904.038	18871
904.156	18711
904.274	18696
904.392	18688
904.51	18601
904.627	18734
904.745	18772
904.863	18738
904.981	18365
905.098	18209
905.216	18262
905.334	18350
905.451	18365
905.569	18285
905.686	18163
905.803	18254
905.921	18068
906.038	18072
906.155	18152
906.272	17969
906.389	17958
906.506	17870
906.623	17745
906.74	17783
906.857	17722
906.974	17707
907.091	17893
907.208	17901
907.324	17859
907.441	17691
907.557	17520
907.674	17478
907.79	17543
907.907	17623
908.023	17547
908.139	17539
908.256	17406
908.372	17372
908.488	17353
908.604	17303
908.72	17200
908.836	17159
908.952	17296
909.068	17124
909.184	17227
909.3	17193
909.415	17223
909.531	17220
909.647	16923
909.762	16839
909.878	16797
909.993	16812
910.108	16881
910.224	16797
910.339	16854
910.454	16771
910.57	16683
910.685	16607
910.8	16869
910.915	16653
911.03	16778
911.145	16561
911.259	16523
911.374	16455
911.489	16379
911.604	16360
911.718	16196
911.833	16192
911.947	16120
912.062	16021
912.176	16246
912.291	16265
912.405	16223
912.519	16379
912.633	16379
912.748	16272
912.862	16109
912.976	15941
913.09	15895
913.204	15994
913.318	15979
913.431	16082
913.545	16055
913.659	16010
913.772	15926
913.886	15819
914	15831
914.113	15892
914.226	15926
914.34	15778
914.453	15690
914.566	15907
914.68	15724
914.793	15637
914.906	15545
915.019	15344
915.132	15397
915.245	15439
915.358	15424
915.47	15397
915.583	15348
915.696	15420
915.809	15477
915.921	15534
916.034	15325
916.146	15272
916.259	15218
916.371	15321
916.483	15302
916.595	15249
916.708	15226
916.82	15329
916.932	15222
917.044	15142
917.156	15127
917.268	15036
917.38	15066
917.491	15066
917.603	15020
917.715	15032
917.826	15154
917.938	14975
918.049	14861
918.161	15013
918.272	15119
918.384	15074
918.495	14956
918.606	14857
918.717	14739
918.828	14769
918.939	14830
919.05	14667
919.161	14724
919.272	14556
919.383	14769
919.494	14838
919.604	14963
919.715	14739
919.826	14648
919.936	14708
920.047	14731
920.157	14648
920.267	14857
920.378	14644
920.488	14659
920.598	14914
920.708	15036
920.818	14842
920.928	14781
921.038	14883
921.148	14906
921.258	14686
921.368	14545
921.477	14415
921.587	14309
921.697	14351
921.806	14347
921.916	14286
922.025	14134
922.134	14050
922.244	14073
922.353	14149
922.462	13959
922.571	13849
922.68	13693
922.789	13788
922.898	13811
923.007	13674
923.116	13715
923.224	13677
923.333	13628
923.442	13464
923.55	13453
923.659	13537
923.767	13594
923.876	13422
923.984	13548
924.092	13384
924.201	13476
924.309	13438
924.417	13472
924.525	13312
924.633	13331
924.741	14142
924.849	13160
924.956	13270
925.064	13107
925.172	13061
925.279	13061
925.387	13137
925.494	13050
925.602	13225
925.709	13160
925.816	12966
925.924	13103
926.031	13122
926.138	12970
926.245	13042
926.352	12993
926.459	13061
926.566	13076
926.673	12962
926.779	12856
926.886	12924
926.993	12677
927.099	12669
927.206	12532
927.312	12563
927.419	12696
927.525	12616
927.631	12604
927.737	12506
927.843	12464
927.95	12388
928.056	12403
928.162	12369
928.267	12456
928.373	13057
928.479	12486
928.585	12300
928.69	12391
928.796	12460
928.901	12292
929.007	12060
929.112	12369
929.218	12311
929.323	12232
929.428	12121
929.533	12292
929.638	12064
929.743	12136
929.848	12144
929.953	12152
930.058	12019
930.163	11843
930.267	11878
930.372	11992
930.477	11863
930.581	12003
930.685	11783
930.79	11798
930.894	11817
930.998	11688
931.103	11821
931.207	11482
931.311	11303
931.415	11193
931.519	11094
931.623	11003
