Data from test_V78500241_2029.txt Node
Date: Fri Mar 25 15:55:51 CST 2022
User: usil
Spectrometer: V785-0024
Trigger mode: 0
Integration Time (sec): 4.000000E-1
Scans to average: 1
Nonlinearity correction enabled: false
Boxcar width: 0
Storing dark spectrum: false
XAxis mode: Wavelengths
Number of Pixels in Spectrum: 1024
>>>>>Begin Spectral Data<<<<<
801.071	28866
801.214	28847
801.356	28523
801.499	28538
801.641	28409
801.783	28474
801.926	28485
802.068	28333
802.211	28443
802.353	28344
802.496	28238
802.638	28230
802.78	28044
802.923	28116
803.065	28143
803.208	28067
803.35	28162
803.492	28272
803.635	28440
803.777	28215
803.919	28246
804.061	28721
804.204	28474
804.346	28325
804.488	28287
804.63	28451
804.773	28375
804.915	28459
805.057	28466
805.199	28299
805.341	28436
805.483	28538
805.626	28489
805.768	28516
805.91	28398
806.052	28584
806.194	28322
806.336	28759
806.478	28516
806.62	28462
806.762	28771
806.904	28896
807.046	28957
807.188	29090
807.33	29018
807.472	29155
807.614	28980
807.756	29014
807.898	28733
808.04	28930
808.182	28991
808.324	28869
808.465	29006
808.607	29094
808.749	29128
808.891	29349
809.033	29558
809.174	29440
809.316	29315
809.458	29204
809.6	29166
809.741	29322
809.883	29311
810.025	29482
810.166	29528
810.308	29543
810.45	29482
810.591	29509
810.733	29277
810.875	29364
811.016	29041
811.158	29166
811.299	29353
811.441	29520
811.582	29383
811.724	29299
811.865	29246
812.007	29303
812.148	29246
812.29	29345
812.431	29421
812.573	29596
812.714	29634
812.855	29889
812.997	29939
813.138	30045
813.279	29870
813.421	29813
813.562	29771
813.703	29570
813.845	29417
813.986	29212
814.127	29067
814.268	29083
814.41	28919
814.551	29029
814.692	29079
814.833	28900
814.974	28953
815.115	29105
815.256	28896
815.397	28881
815.539	28934
815.68	28862
815.821	28649
815.962	28877
816.103	28668
816.244	28618
816.385	28630
816.526	28706
816.666	28421
816.807	28337
816.948	28352
817.089	28474
817.23	28287
817.371	28306
817.512	28268
817.653	28200
817.793	28215
817.934	28310
818.075	28360
818.216	28120
818.356	28265
818.497	28215
818.638	28044
818.778	28093
818.919	28055
819.06	28185
819.2	28207
819.341	28268
819.481	28230
819.622	28451
819.762	28561
819.903	28668
820.043	28618
820.184	28394
820.324	28371
820.465	28466
820.605	28459
820.746	28261
820.886	28363
821.026	28386
821.167	28413
821.307	28421
821.447	28200
821.588	28204
821.728	28154
821.868	28135
822.008	27899
822.149	27956
822.289	27797
822.429	27557
822.569	27401
822.709	27587
822.849	27382
822.99	27355
823.13	27264
823.27	27272
823.41	27131
823.55	27001
823.69	27192
823.83	27112
823.97	26979
824.11	27108
824.25	27017
824.389	26960
824.529	26963
824.669	26937
824.809	27047
824.949	26990
825.089	26990
825.228	27070
825.368	26765
825.508	26849
825.648	26906
825.787	27036
825.927	26887
826.067	26796
826.206	26826
826.346	26887
826.485	26918
826.625	26880
826.765	27043
826.904	26944
827.044	26583
827.183	26602
827.323	26545
827.462	26667
827.601	26663
827.741	26514
827.88	26636
828.02	26598
828.159	26556
828.298	26682
828.437	26625
828.577	26362
828.716	26568
828.855	26427
828.994	26237
829.134	26259
829.273	26294
829.412	26180
829.551	26191
829.69	26263
829.829	26130
829.968	26259
830.107	26259
830.246	26298
830.385	26286
830.524	26221
830.663	26096
830.802	25978
830.941	25917
831.08	25974
831.219	25906
831.357	25986
831.496	26069
831.635	25909
831.774	25788
831.913	25811
832.051	25685
832.19	25662
832.329	25677
832.467	25635
832.606	25434
832.744	25472
832.883	25457
833.022	25578
833.16	25525
833.299	25651
833.437	25510
833.576	25533
833.714	25681
833.852	25670
833.991	25552
834.129	25712
834.267	25742
834.406	25586
834.544	25655
834.682	25666
834.821	25658
834.959	25841
835.097	25468
835.235	25696
835.373	25514
835.511	25548
835.65	25499
835.788	25533
835.926	25266
836.064	25415
836.202	25331
836.34	25445
836.478	25582
836.615	25426
836.753	25445
836.891	25487
837.029	25613
837.167	25331
837.305	25304
837.443	25247
837.58	25255
837.718	25407
837.856	25278
837.993	25187
838.131	25270
838.269	25148
838.406	25027
838.544	25080
838.681	24996
838.819	24920
838.956	24719
839.094	24757
839.231	24654
839.369	24935
839.506	25145
839.643	25023
839.781	24627
839.918	24722
840.055	24726
840.193	24654
840.33	24719
840.467	24608
840.604	24620
840.742	24939
840.879	24544
841.016	24665
841.153	24730
841.29	24749
841.427	24601
841.564	24783
841.701	24692
841.838	24665
841.975	24536
842.112	24631
842.249	24547
842.385	24338
842.522	24582
842.659	24525
842.796	24315
842.933	24296
843.069	24350
843.206	24319
843.343	24315
843.479	24475
843.616	24369
843.752	24216
843.889	24235
844.025	24300
844.162	24091
844.298	24243
844.435	24155
844.571	24224
844.708	24194
844.844	24300
844.98	24266
845.117	24323
845.253	24205
845.389	24030
845.525	24015
845.661	23920
845.798	23874
845.934	23961
846.07	23904
846.206	23954
846.342	24011
846.478	24011
846.614	23661
846.75	23737
846.886	23661
847.022	23729
847.158	23577
847.294	23668
847.429	23581
847.565	23630
847.701	23828
847.837	23353
847.972	23322
848.108	23383
848.244	23433
848.379	23330
848.515	23280
848.65	23162
848.786	23189
848.921	23170
849.057	23242
849.192	23162
849.328	23315
849.463	23273
849.598	23067
849.734	23102
849.869	23010
850.004	22930
850.14	22953
850.275	22980
850.41	22885
850.545	22892
850.68	22923
850.815	22896
850.95	22980
851.085	23098
851.22	23079
851.355	22908
851.49	22885
851.625	23010
851.76	22984
851.895	22862
852.03	22923
852.165	23022
852.299	23003
852.434	23044
852.569	23025
852.703	22980
852.838	23102
852.973	23094
853.107	23006
853.242	23014
853.376	22767
853.511	22523
853.645	22706
853.78	22896
853.914	22839
854.048	22752
854.183	22831
854.317	22908
854.451	22968
854.585	22721
854.72	22793
854.854	22896
854.988	22622
855.122	22687
855.256	22698
855.39	22771
855.524	22793
855.658	22740
855.792	22847
855.926	22816
856.06	22816
856.194	22752
856.327	22660
856.461	22759
856.595	22717
856.729	22771
856.862	22801
856.996	22850
857.13	22725
857.263	22847
857.397	22866
857.53	22904
857.664	22793
857.797	22759
857.931	22900
858.064	22733
858.197	22843
858.331	22771
858.464	22596
858.597	22668
858.731	22824
858.864	22759
858.997	22748
859.13	22664
859.263	22752
859.396	22786
859.529	22763
859.662	22759
859.795	22698
859.928	22744
860.061	23010
860.194	22934
860.327	22892
860.46	22763
860.592	22869
860.725	22866
860.858	22862
860.99	22771
861.123	22774
861.256	22668
861.388	22809
861.521	23509
861.653	22497
861.786	22702
861.918	22653
862.05	22752
862.183	22736
862.315	22679
862.447	22797
862.58	22596
862.712	22470
862.844	22523
862.976	22535
863.108	22523
863.24	22831
863.372	22394
863.504	22592
863.636	22474
863.768	22546
863.9	22447
864.032	22557
864.164	22516
864.296	22516
864.428	22535
864.559	22470
864.691	22451
864.823	22402
864.954	22550
865.086	22440
865.217	22394
865.349	22272
865.48	22394
865.612	22329
865.743	22409
865.875	22489
866.006	22310
866.137	22409
866.269	22428
866.4	22436
866.531	22280
866.662	22234
866.793	22196
866.924	22215
867.055	22291
867.186	22284
867.317	22143
867.448	22215
867.579	22322
867.71	22135
867.841	22173
867.972	22230
868.103	22268
868.233	22219
868.364	22295
868.495	22333
868.625	22478
868.756	22573
868.886	22421
869.017	22592
869.147	22626
869.278	22668
869.408	22512
869.539	22512
869.669	22672
869.799	22542
869.929	22634
870.06	22554
870.19	22923
870.32	22942
870.45	22862
870.58	22873
870.71	22957
870.84	22889
870.97	22911
871.1	22984
871.23	23048
871.36	23231
871.489	22828
871.619	22999
871.749	23105
871.879	23136
872.008	23212
872.138	23193
872.267	23132
872.397	23044
872.526	22873
872.656	22987
872.785	23064
872.915	23105
873.044	23235
873.173	23162
873.303	23220
873.432	23193
873.561	23178
873.69	23189
873.819	23064
873.948	23391
874.077	23170
874.206	23052
874.335	23261
874.464	23216
874.593	23235
874.722	23265
874.851	23417
874.979	23212
875.108	23459
875.237	23368
875.365	23239
875.494	23395
875.623	23463
875.751	23292
875.88	23277
876.008	23421
876.136	23596
876.265	23794
876.393	23851
876.521	23748
876.65	23851
876.778	23676
876.906	23562
877.034	23699
877.162	23680
877.29	23638
877.418	23733
877.546	23630
877.674	23684
877.802	23741
877.93	23528
878.058	23558
878.185	23493
878.313	23672
878.441	23649
878.568	23501
878.696	23668
878.824	23672
878.951	23760
879.079	23889
879.206	23790
879.333	23710
879.461	23707
879.588	23714
879.715	23813
879.842	23901
879.97	23699
880.097	23501
880.224	23528
880.351	23577
880.478	23444
880.605	23387
880.732	23440
880.859	23764
880.986	23490
881.112	23543
881.239	23273
881.366	23254
881.493	23143
881.619	23033
881.746	23041
881.872	23197
881.999	22961
882.125	23071
882.252	23018
882.378	22908
882.505	23090
882.631	22862
882.757	22828
882.883	22801
883.01	22748
883.136	22721
883.262	22618
883.388	22531
883.514	22672
883.64	22839
883.766	22626
883.892	22451
884.018	22489
884.143	22599
884.269	22725
884.395	22557
884.52	22348
884.646	22375
884.772	22257
884.897	22223
885.023	22455
885.148	22382
885.274	22428
885.399	22367
885.524	22333
885.65	22367
885.775	22348
885.9	22219
886.025	22565
886.15	22504
886.275	22261
886.4	22272
886.525	22226
886.65	22261
886.775	22177
886.9	22489
887.025	22443
887.149	22314
887.274	22242
887.399	21994
887.523	22135
887.648	22048
887.773	22044
887.897	22207
888.021	22139
888.146	21983
888.27	22139
888.395	22284
888.519	22143
888.643	22090
888.767	22154
888.891	21964
889.015	21949
889.139	21956
889.263	21930
889.387	21915
889.511	22078
889.635	22017
889.759	21888
889.883	21835
890.006	21899
890.13	22090
890.254	21884
890.377	21899
890.501	21625
890.624	21625
890.748	21603
890.871	21481
890.995	21477
891.118	21264
891.241	21405
891.364	21412
891.488	21481
891.611	21412
891.734	21355
891.857	21519
891.98	21363
892.103	21447
892.226	21485
892.349	21454
892.471	21249
892.594	21344
892.717	21431
892.839	21298
892.962	21294
893.085	21526
893.207	21184
893.33	21272
893.452	21199
893.575	21389
893.697	21370
893.819	21515
893.941	21496
894.064	21473
894.186	21332
894.308	21329
894.43	21386
894.552	21363
894.674	21458
894.796	21332
894.918	21294
895.04	21302
895.161	21321
895.283	21313
895.405	21207
895.526	21351
895.648	21256
895.769	21363
895.891	21275
896.012	21272
896.134	21344
896.255	21260
896.376	21207
896.498	21252
896.619	21310
896.74	21268
896.861	21283
896.982	21583
897.103	21694
897.224	21507
897.345	21492
897.466	21408
897.587	21344
897.708	21557
897.828	21549
897.949	21420
898.07	21336
898.19	21393
898.311	21644
898.431	21416
898.552	21443
898.672	21496
898.792	21614
898.913	21420
899.033	21428
899.153	21169
899.273	21218
899.393	21207
899.513	21089
899.633	21104
899.753	21302
899.873	21154
899.993	21340
900.113	21009
900.232	21214
900.352	21169
900.472	20979
900.591	20883
900.711	21024
900.83	20883
900.95	20979
901.069	20982
901.189	20834
901.308	20560
901.427	20602
901.546	20503
901.665	20606
901.784	20526
901.904	20347
902.023	20294
902.141	20016
902.26	20149
902.379	20130
902.498	19989
902.617	20031
902.735	19986
902.854	20069
902.973	19951
903.091	19624
903.21	19746
903.328	19693
903.446	19575
903.565	19529
903.683	19468
903.801	19419
903.919	19388
904.038	19453
904.156	19331
904.274	19343
904.392	19171
904.51	19194
904.627	19236
904.745	19316
904.863	19221
904.981	18993
905.098	18863
905.216	18886
905.334	18901
905.451	18909
905.569	18852
905.686	18909
905.803	18859
905.921	18669
906.038	18719
906.155	18688
906.272	18635
906.389	18555
906.506	18441
906.623	18528
906.74	18414
906.857	18380
906.974	18350
907.091	18433
907.208	18574
907.324	18429
907.441	18327
907.557	18251
907.674	18232
907.79	18098
907.907	18102
908.023	18228
908.139	18190
908.256	18060
908.372	17973
908.488	18019
908.604	17935
908.72	17897
908.836	17878
908.952	17805
909.068	17821
909.184	18007
909.3	17783
909.415	17824
909.531	17722
909.647	17630
909.762	17547
909.878	17459
909.993	17566
910.108	17505
910.224	17372
910.339	17532
910.454	17383
910.57	17364
910.685	17330
910.8	17493
910.915	17482
911.03	17330
911.145	17124
911.259	17113
911.374	17048
911.489	17075
911.604	16965
911.718	16824
911.833	16908
911.947	16710
912.062	16805
912.176	16763
912.291	16805
912.405	16946
912.519	17006
912.633	17067
912.748	16915
912.862	16877
912.976	16755
913.09	16580
913.204	16626
913.318	16729
913.431	16824
913.545	16744
913.659	16668
913.772	16675
913.886	16550
914	16428
914.113	16527
914.226	16531
914.34	16466
914.453	16329
914.566	16440
914.68	16310
914.793	16284
914.906	16169
915.019	16036
915.132	15968
915.245	15991
915.358	16063
915.47	16036
915.583	15979
915.696	16040
915.809	16067
915.921	16139
916.034	15987
916.146	15945
916.259	15903
916.371	15987
916.483	16032
916.595	15884
916.708	15774
916.82	15846
916.932	15774
917.044	15732
917.156	15827
917.268	15629
917.38	15667
917.491	15637
917.603	15614
917.715	15690
917.826	15770
917.938	15633
918.049	15485
918.161	15671
918.272	15686
918.384	15648
918.495	15542
918.606	15458
918.717	15378
918.828	15405
918.939	15401
919.05	15310
919.161	15313
919.272	15104
919.383	15195
919.494	15504
919.604	15679
919.715	15306
919.826	15264
919.936	15325
920.047	15435
920.157	15348
920.267	15450
920.378	15340
920.488	15298
920.598	15591
920.708	15595
920.818	15526
920.928	15511
921.038	15561
921.148	15584
921.258	15245
921.368	15207
921.477	15100
921.587	15089
921.697	14914
921.806	15062
921.916	14929
922.025	14777
922.134	14697
922.244	14712
922.353	14788
922.462	14492
922.571	14514
922.68	14358
922.789	14313
922.898	14339
923.007	14385
923.116	14320
923.224	14332
923.333	14301
923.442	14187
923.55	14138
923.659	14142
923.767	14199
923.876	14145
923.984	14202
924.092	14062
924.201	14027
924.309	14012
924.417	14096
924.525	13883
924.633	13936
924.741	14758
924.849	13818
924.956	13887
925.064	13761
925.172	13719
925.279	13670
925.387	13746
925.494	13727
925.602	13795
925.709	13734
925.816	13506
925.924	13594
926.031	13700
926.138	13636
926.245	13624
926.352	13609
926.459	13620
926.566	13837
926.673	13495
926.779	13521
926.886	13358
926.993	13289
927.099	13247
927.206	13129
927.312	13282
927.419	13232
927.525	13255
927.631	13251
927.737	13137
927.843	13137
927.95	12962
928.056	13050
928.162	13038
928.267	13145
928.373	13712
928.479	13050
928.585	12856
928.69	13031
928.796	13099
928.901	13015
929.007	12821
929.112	12894
929.218	12875
929.323	12852
929.428	12677
929.533	12875
929.638	12757
929.743	12658
929.848	12760
929.953	12692
930.058	12532
930.163	12422
930.267	12376
930.372	12544
930.477	12448
930.581	12642
930.685	12467
930.79	12251
930.894	12369
930.998	12224
931.103	12414
931.207	12030
931.311	11882
931.415	11870
931.519	11699
931.623	11570
