Data from test_V78500241_3088.txt Node
Date: Fri Mar 25 16:03:11 CST 2022
User: usil
Spectrometer: V785-0024
Trigger mode: 0
Integration Time (sec): 4.000000E-1
Scans to average: 1
Nonlinearity correction enabled: false
Boxcar width: 0
Storing dark spectrum: false
XAxis mode: Wavelengths
Number of Pixels in Spectrum: 1024
>>>>>Begin Spectral Data<<<<<
801.071	28215
801.214	28010
801.356	27922
801.499	27778
801.641	27675
801.783	27690
801.926	27831
802.068	27804
802.211	27675
802.353	27660
802.496	27469
802.638	27458
802.78	27298
802.923	27382
803.065	27237
803.208	27279
803.35	27348
803.492	27492
803.635	27614
803.777	27481
803.919	27561
804.061	27899
804.204	27682
804.346	27660
804.488	27439
804.63	27641
804.773	27564
804.915	27675
805.057	27808
805.199	27732
805.341	27610
805.483	27743
805.626	27797
805.768	27595
805.91	27914
806.052	27812
806.194	27523
806.336	27899
806.478	27720
806.62	27816
806.762	27850
806.904	27922
807.046	28238
807.188	28120
807.33	28226
807.472	28333
807.614	28002
807.756	28006
807.898	28101
808.04	27857
808.182	28036
808.324	28017
808.465	28169
808.607	28234
808.749	28417
808.891	28470
809.033	28557
809.174	28523
809.316	28291
809.458	28512
809.6	28287
809.741	28443
809.883	28577
810.025	28603
810.166	28698
810.308	28679
810.45	28630
810.591	28599
810.733	28375
810.875	28249
811.016	28390
811.158	28379
811.299	28497
811.441	28569
811.582	28615
811.724	28474
811.865	28417
812.007	28394
812.148	28371
812.29	28322
812.431	28687
812.573	28763
812.714	28774
812.855	28911
812.997	29056
813.138	29086
813.279	28980
813.421	28968
813.562	28942
813.703	28729
813.845	28542
813.986	28379
814.127	28173
814.268	28147
814.41	28078
814.551	28017
814.692	28067
814.833	27991
814.974	28097
815.115	28158
815.256	27899
815.397	27930
815.539	28059
815.68	27949
815.821	27823
815.962	27895
816.103	27934
816.244	27876
816.385	27576
816.526	27641
816.666	27595
816.807	27431
816.948	27443
817.089	27458
817.23	27291
817.371	27313
817.512	27378
817.653	27363
817.793	27313
817.934	27382
818.075	27435
818.216	27291
818.356	27329
818.497	27085
818.638	27116
818.778	27119
818.919	27188
819.06	27245
819.2	27294
819.341	27249
819.481	27329
819.622	27466
819.762	27732
819.903	27564
820.043	27507
820.184	27545
820.324	27473
820.465	27625
820.605	27667
820.746	27538
820.886	27454
821.026	27405
821.167	27378
821.307	27374
821.447	27336
821.588	27260
821.728	27100
821.868	26982
822.008	26952
822.149	26845
822.289	26838
822.429	26606
822.569	26545
822.709	26526
822.849	26400
822.99	26328
823.13	26347
823.27	26374
823.41	26301
823.55	26081
823.69	26210
823.83	26103
823.97	26130
824.11	25993
824.25	26065
824.389	25959
824.529	26126
824.669	26020
824.809	26103
824.949	26062
825.089	26225
825.228	25944
825.368	25803
825.508	25940
825.648	25841
825.787	25868
825.927	26035
826.067	25970
826.206	25906
826.346	25951
826.485	25894
826.625	25856
826.765	26035
826.904	25989
827.044	25700
827.183	25620
827.323	25613
827.462	25624
827.601	25628
827.741	25544
827.88	25635
828.02	25525
828.159	25613
828.298	25575
828.437	25704
828.577	25632
828.716	25685
828.855	25506
828.994	25324
829.134	25217
829.273	25316
829.412	25187
829.551	25236
829.69	25308
829.829	25320
829.968	25400
830.107	25335
830.246	25221
830.385	25266
830.524	25133
830.663	25152
830.802	25088
830.941	24871
831.08	24878
831.219	24943
831.357	24897
831.496	25175
831.635	24897
831.774	24932
831.913	24749
832.051	24734
832.19	24783
832.329	24673
832.467	24635
832.606	24540
832.744	24559
832.883	24665
833.022	24498
833.16	24665
833.299	24620
833.437	24612
833.576	24711
833.714	24646
833.852	24688
833.991	24776
834.129	24669
834.267	24654
834.406	24623
834.544	24642
834.682	24563
834.821	24658
834.959	24810
835.097	24563
835.235	24798
835.373	24570
835.511	24604
835.65	24551
835.788	24566
835.926	24422
836.064	24114
836.202	24308
836.34	24437
836.478	24502
836.615	24357
836.753	24464
836.891	24658
837.029	24574
837.167	24388
837.305	24365
837.443	24365
837.58	24266
837.718	24445
837.856	24308
837.993	24174
838.131	24251
838.269	24026
838.406	24129
838.544	24163
838.681	23961
838.819	23897
838.956	23935
839.094	23642
839.231	23805
839.369	23946
839.506	24197
839.643	23920
839.781	23786
839.918	23665
840.055	23786
840.193	23756
840.33	23691
840.467	23760
840.604	23805
840.742	23939
840.879	23646
841.016	23657
841.153	23577
841.29	23779
841.427	23851
841.564	23615
841.701	23596
841.838	23668
841.975	23642
842.112	23634
842.249	23570
842.385	23566
842.522	23684
842.659	23516
842.796	23326
842.933	23509
843.069	23288
843.206	23326
843.343	23520
843.479	23292
843.616	23467
843.752	23212
843.889	23121
844.025	23379
844.162	23250
844.298	23216
844.435	23227
844.571	23113
844.708	23212
844.844	23265
844.98	23303
845.117	23235
845.253	23185
845.389	23121
845.525	23029
845.661	22995
845.798	22919
845.934	23022
846.07	22843
846.206	22976
846.342	23090
846.478	22873
846.614	22615
846.75	22736
846.886	22626
847.022	22698
847.158	22790
847.294	22694
847.429	22683
847.565	22577
847.701	22972
847.837	22417
847.972	22367
848.108	22481
848.244	22470
848.379	22382
848.515	22242
848.65	22177
848.786	22276
848.921	22287
849.057	22413
849.192	22348
849.328	22394
849.463	22276
849.598	22181
849.734	22188
849.869	22131
850.004	22029
850.14	22177
850.275	22090
850.41	21953
850.545	21964
850.68	22021
850.815	22086
850.95	22025
851.085	22181
851.22	22101
851.355	22181
851.49	22044
851.625	22036
851.76	22116
851.895	21857
852.03	22021
852.165	21972
852.299	22013
852.434	22078
852.569	21994
852.703	21960
852.838	22112
852.973	22207
853.107	22074
853.242	22055
853.376	21838
853.511	21785
853.645	21774
853.78	21915
853.914	21846
854.048	21907
854.183	21911
854.317	21854
854.451	21937
854.585	21778
854.72	21873
854.854	22002
854.988	21808
855.122	21766
855.256	21759
855.39	21800
855.524	21903
855.658	21819
855.792	21800
855.926	21869
856.06	21793
856.194	21991
856.327	21835
856.461	21918
856.595	21895
856.729	21781
856.862	21861
856.996	21895
857.13	21895
857.263	21968
857.397	22021
857.53	21892
857.664	21903
857.797	21934
857.931	21918
858.064	21895
858.197	21968
858.331	21770
858.464	21854
858.597	21705
858.731	21766
858.864	21789
858.997	21736
859.13	21922
859.263	21842
859.396	21979
859.529	21857
859.662	21800
859.795	21778
859.928	21793
860.061	21941
860.194	22116
860.327	21884
860.46	21926
860.592	21953
860.725	21972
860.858	21968
860.99	21895
861.123	21785
861.256	21915
861.388	21857
861.521	22641
861.653	21766
861.786	21641
861.918	21511
862.05	21717
862.183	21781
862.315	21785
862.447	21895
862.58	21637
862.712	21656
862.844	21561
862.976	21705
863.108	21641
863.24	21975
863.372	21481
863.504	21538
863.636	21652
863.768	21694
863.9	21557
864.032	21542
864.164	21622
864.296	21618
864.428	21633
864.559	21633
864.691	21564
864.823	21603
864.954	21580
865.086	21488
865.217	21447
865.349	21397
865.48	21492
865.612	21431
865.743	21599
865.875	21610
866.006	21450
866.137	21504
866.269	21439
866.4	21424
866.531	21439
866.662	21336
866.793	21412
866.924	21397
867.055	21473
867.186	21466
867.317	21264
867.448	21401
867.579	21275
867.71	21279
867.841	21256
867.972	21420
868.103	21329
868.233	21488
868.364	21435
868.495	21450
868.625	21648
868.756	21652
868.886	21557
869.017	21557
869.147	21656
869.278	21694
869.408	21755
869.539	21462
869.669	21629
869.799	21648
869.929	21770
870.06	21679
870.19	22010
870.32	21857
870.45	21945
870.58	21972
870.71	22086
870.84	22109
870.97	22101
871.1	21892
871.23	22230
871.36	22158
871.489	22135
871.619	22128
871.749	22341
871.879	22352
872.008	22333
872.138	22462
872.267	22207
872.397	22120
872.526	22017
872.656	22086
872.785	22086
872.915	22143
873.044	22242
873.173	22284
873.303	22284
873.432	22310
873.561	22360
873.69	22299
873.819	22242
873.948	22344
874.077	22166
874.206	22299
874.335	22196
874.464	22344
874.593	22398
874.722	22451
874.851	22554
874.979	22577
875.108	22497
875.237	22424
875.365	22394
875.494	22466
875.623	22512
875.751	22386
875.88	22550
876.008	22569
876.136	22596
876.265	22854
876.393	22976
876.521	22976
876.65	23064
876.778	22896
876.906	22824
877.034	22908
877.162	22793
877.29	22786
877.418	22752
877.546	22862
877.674	22866
877.802	22820
877.93	22934
878.058	22828
878.185	22679
878.313	22687
878.441	22847
878.568	22649
878.696	22786
878.824	22900
878.951	22858
879.079	22991
879.206	23193
879.333	23044
879.461	22881
879.588	22866
879.715	22873
879.842	23037
879.97	22831
880.097	22546
880.224	22694
880.351	22809
880.478	22630
880.605	22580
880.732	22565
880.859	22873
880.986	22729
881.112	22653
881.239	22375
881.366	22360
881.493	22398
881.619	22090
881.746	22207
881.872	22284
881.999	22265
882.125	22291
882.252	22177
882.378	22177
882.505	22276
882.631	22116
882.757	21892
882.883	22040
883.01	21998
883.136	21941
883.262	21785
883.388	21804
883.514	21937
883.64	21987
883.766	21709
883.892	21648
884.018	21667
884.143	21941
884.269	21998
884.395	21564
884.52	21431
884.646	21564
884.772	21420
884.897	21572
885.023	21473
885.148	21660
885.274	21606
885.399	21648
885.524	21595
885.65	21481
885.775	21595
885.9	21595
886.025	21587
886.15	21538
886.275	21447
886.4	21363
886.525	21511
886.65	21542
886.775	21405
886.9	21656
887.025	21739
887.149	21393
887.274	21332
887.399	21252
887.523	21165
887.648	21112
887.773	21211
887.897	21447
888.021	21283
888.146	21188
888.27	21374
888.395	21359
888.519	21252
888.643	21374
888.767	21249
888.891	21203
889.015	21146
889.139	21089
889.263	21070
889.387	21230
889.511	21245
889.635	21241
889.759	21142
889.883	20979
890.006	21169
890.13	21275
890.254	21005
890.377	20887
890.501	20895
890.624	20853
890.748	20800
890.871	20746
890.995	20648
891.118	20609
891.241	20655
891.364	20651
891.488	20731
891.611	20606
891.734	20537
891.857	20785
891.98	20788
892.103	20636
892.226	20754
892.349	20621
892.471	20358
892.594	20583
892.717	20526
892.839	20476
892.962	20560
893.085	20579
893.207	20530
893.33	20431
893.452	20412
893.575	20682
893.697	20454
893.819	20735
893.941	20788
894.064	20720
894.186	20381
894.308	20423
894.43	20667
894.552	20773
894.674	20625
894.796	20514
894.918	20522
895.04	20564
895.161	20720
895.283	20533
895.405	20454
895.526	20571
895.648	20552
895.769	20560
895.891	20674
896.012	20655
896.134	20712
896.255	20518
896.376	20495
896.498	20511
896.619	20488
896.74	20549
896.861	20579
896.982	20956
897.103	21024
897.224	20716
897.345	20811
897.466	20823
897.587	20826
897.708	20906
897.828	20739
897.949	20587
898.07	20492
898.19	20571
898.311	20899
898.431	20667
898.552	20727
898.672	20758
898.792	20838
898.913	20746
899.033	20773
899.153	20374
899.273	20415
899.393	20488
899.513	20537
899.633	20469
899.753	20488
899.873	20404
899.993	20450
900.113	20355
900.232	20434
900.352	20427
900.472	20339
900.591	20138
900.711	20347
900.83	20271
900.95	20290
901.069	20336
901.189	20229
901.308	19799
901.427	19750
901.546	19780
901.665	19849
901.784	19932
901.904	19670
902.023	19628
902.141	19502
902.26	19289
902.379	19403
902.498	19289
902.617	19278
902.735	19362
902.854	19438
902.973	19274
903.091	19091
903.21	19084
903.328	19012
903.446	18932
903.565	18924
903.683	18890
903.801	18661
903.919	18757
904.038	18749
904.156	18703
904.274	18631
904.392	18498
904.51	18483
904.627	18490
904.745	18654
904.863	18681
904.981	18410
905.098	18254
905.216	18152
905.334	18319
905.451	18262
905.569	18213
905.686	18266
905.803	18216
905.921	17984
906.038	18106
906.155	18076
906.272	17847
906.389	17855
906.506	17889
906.623	17722
906.74	17756
906.857	17726
906.974	17813
907.091	17904
907.208	17897
907.324	17855
907.441	17691
907.557	17535
907.674	17482
907.79	17383
907.907	17528
908.023	17459
908.139	17509
908.256	17421
908.372	17360
908.488	17334
908.604	17212
908.72	17170
908.836	17147
908.952	17208
909.068	17246
909.184	17330
909.3	17197
909.415	17299
909.531	17086
909.647	16968
909.762	16938
909.878	16904
909.993	16862
910.108	16927
910.224	16824
910.339	16847
910.454	16782
910.57	16721
910.685	16717
910.8	16930
910.915	16873
911.03	16702
911.145	16531
911.259	16493
911.374	16550
911.489	16398
911.604	16360
911.718	16200
911.833	16230
911.947	16166
912.062	16071
912.176	16257
912.291	16238
912.405	16215
912.519	16481
912.633	16443
912.748	16344
912.862	16253
912.976	16074
913.09	15911
913.204	16078
913.318	16086
913.431	16124
913.545	16139
913.659	16162
913.772	15915
913.886	15903
914	15808
914.113	15899
914.226	15960
914.34	15880
914.453	15705
914.566	15945
914.68	15698
914.793	15713
914.906	15485
915.019	15504
915.132	15332
915.245	15405
915.358	15519
915.47	15466
915.583	15492
915.696	15538
915.809	15511
915.921	15614
916.034	15340
916.146	15329
916.259	15275
916.371	15435
916.483	15351
916.595	15287
916.708	15241
916.82	15203
916.932	15195
917.044	15180
917.156	15207
917.268	15070
917.38	15142
917.491	14994
917.603	15077
917.715	15150
917.826	15230
917.938	15100
918.049	14914
918.161	15028
918.272	15131
918.384	15127
918.495	15039
918.606	14796
918.717	14849
918.828	14815
918.939	14800
919.05	14686
919.161	14792
919.272	14708
919.383	14606
919.494	14830
919.604	15055
919.715	14773
919.826	14746
919.936	14762
920.047	14876
920.157	14777
920.267	14998
920.378	14864
920.488	14815
920.598	14990
920.708	15062
920.818	14830
920.928	14895
921.038	15020
921.148	15070
921.258	14777
921.368	14701
921.477	14507
921.587	14594
921.697	14415
921.806	14446
921.916	14415
922.025	14210
922.134	14298
922.244	14126
922.353	14180
922.462	14153
922.571	13997
922.68	13814
922.789	13811
922.898	13734
923.007	13727
923.116	13807
923.224	13860
923.333	13700
923.442	13681
923.55	13590
923.659	13639
923.767	13715
923.876	13628
923.984	13655
924.092	13521
924.201	13506
924.309	13525
924.417	13605
924.525	13518
924.633	13438
924.741	14176
924.849	13236
924.956	13468
925.064	13259
925.172	13084
925.279	13160
925.387	13255
925.494	13194
925.602	13255
925.709	13221
925.816	13091
925.924	13187
926.031	13270
926.138	13274
926.245	13080
926.352	12973
926.459	13213
926.566	13308
926.673	13099
926.779	12947
926.886	12901
926.993	12932
927.099	12837
927.206	12757
927.312	12772
927.419	12840
927.525	12711
927.631	12741
927.737	12593
927.843	12589
927.95	12498
928.056	12627
928.162	12547
928.267	12620
928.373	13343
928.479	12673
928.585	12388
928.69	12563
928.796	12513
928.901	12498
929.007	12365
929.112	12403
929.218	12502
929.323	12388
929.428	12376
929.533	12490
929.638	12308
929.743	12247
929.848	12235
929.953	12315
930.058	12178
930.163	12079
930.267	12068
930.372	12155
930.477	12045
930.581	12186
930.685	12087
930.79	11984
930.894	11969
930.998	11843
931.103	12019
931.207	11649
931.311	11589
931.415	11570
931.519	11296
931.623	11231
