Data from test_V78500241_3353.txt Node
Date: Fri Mar 25 16:05:01 CST 2022
User: usil
Spectrometer: V785-0024
Trigger mode: 0
Integration Time (sec): 4.000000E-1
Scans to average: 1
Nonlinearity correction enabled: false
Boxcar width: 0
Storing dark spectrum: false
XAxis mode: Wavelengths
Number of Pixels in Spectrum: 1024
>>>>>Begin Spectral Data<<<<<
801.071	28858
801.214	28976
801.356	28596
801.499	28713
801.641	28622
801.783	28694
801.926	28592
802.068	28645
802.211	28542
802.353	28519
802.496	28367
802.638	28333
802.78	28356
802.923	28074
803.065	28158
803.208	28150
803.35	28276
803.492	28295
803.635	28417
803.777	28314
803.919	28596
804.061	28824
804.204	28523
804.346	28413
804.488	28394
804.63	28466
804.773	28375
804.915	28634
805.057	28694
805.199	28459
805.341	28717
805.483	28873
805.626	28668
805.768	28527
805.91	28573
806.052	28767
806.194	28645
806.336	28869
806.478	28713
806.62	28626
806.762	28904
806.904	29109
807.046	29318
807.188	29079
807.33	29140
807.472	29193
807.614	29102
807.756	29102
807.898	28938
808.04	28873
808.182	29056
808.324	29033
808.465	29033
808.607	29246
808.749	29410
808.891	29497
809.033	29630
809.174	29486
809.316	29246
809.458	29353
809.6	29330
809.741	29497
809.883	29505
810.025	29745
810.166	29703
810.308	29714
810.45	29611
810.591	29573
810.733	29570
810.875	29600
811.016	29387
811.158	29284
811.299	29467
811.441	29490
811.582	29592
811.724	29452
811.865	29512
812.007	29433
812.148	29406
812.29	29303
812.431	29551
812.573	29687
812.714	29862
812.855	29942
812.997	30022
813.138	30163
813.279	29958
813.421	29988
813.562	29847
813.703	29832
813.845	29703
813.986	29387
814.127	29296
814.268	29113
814.41	29212
814.551	29079
814.692	29288
814.833	28953
814.974	29094
815.115	29098
815.256	29048
815.397	29029
815.539	29094
815.68	28854
815.821	28976
815.962	29052
816.103	28847
816.244	28755
816.385	28710
816.526	28729
816.666	28500
816.807	28360
816.948	28516
817.089	28493
817.23	28531
817.371	28394
817.512	28413
817.653	28455
817.793	28367
817.934	28443
818.075	28500
818.216	28493
818.356	28401
818.497	28265
818.638	28238
818.778	28162
818.919	28299
819.06	28344
819.2	28417
819.341	28466
819.481	28470
819.622	28645
819.762	28866
819.903	28736
820.043	28634
820.184	28675
820.324	28584
820.465	28752
820.605	28801
820.746	28599
820.886	28508
821.026	28725
821.167	28596
821.307	28478
821.447	28626
821.588	28394
821.728	28226
821.868	28200
822.008	27873
822.149	28082
822.289	27964
822.429	27800
822.569	27682
822.709	27698
822.849	27675
822.99	27553
823.13	27481
823.27	27454
823.41	27272
823.55	27192
823.69	27507
823.83	27340
823.97	27283
824.11	27230
824.25	27032
824.389	27028
824.529	27157
824.669	27161
824.809	27252
824.949	27207
825.089	27165
825.228	27226
825.368	27024
825.508	27062
825.648	27070
825.787	27165
825.927	27028
826.067	26979
826.206	26994
826.346	27112
826.485	27043
826.625	26990
826.765	26986
826.904	27001
827.044	26819
827.183	26872
827.323	26758
827.462	26899
827.601	26804
827.741	26575
827.88	26804
828.02	26621
828.159	26499
828.298	26781
828.437	26746
828.577	26682
828.716	26845
828.855	26606
828.994	26453
829.134	26412
829.273	26374
829.412	26476
829.551	26336
829.69	26339
829.829	26499
829.968	26526
830.107	26526
830.246	26389
830.385	26374
830.524	26351
830.663	26244
830.802	26218
830.941	26100
831.08	26012
831.219	26142
831.357	26149
831.496	26218
831.635	25974
831.774	25871
831.913	25959
832.051	25841
832.19	25734
832.329	25852
832.467	25700
832.606	25578
832.744	25689
832.883	25616
833.022	25746
833.16	25685
833.299	25788
833.437	25715
833.576	25689
833.714	25833
833.852	25799
833.991	25788
834.129	25826
834.267	25970
834.406	25772
834.544	25833
834.682	25799
834.821	25712
834.959	25921
835.097	25742
835.235	25655
835.373	25753
835.511	25571
835.65	25544
835.788	25719
835.926	25479
836.064	25514
836.202	25354
836.34	25731
836.478	25658
836.615	25514
836.753	25609
836.891	25826
837.029	25772
837.167	25559
837.305	25487
837.443	25373
837.58	25350
837.718	25392
837.856	25388
837.993	25335
838.131	25358
838.269	25358
838.406	25289
838.544	25255
838.681	25114
838.819	24981
838.956	24886
839.094	24814
839.231	24954
839.369	25110
839.506	25354
839.643	25217
839.781	24859
839.918	24661
840.055	24783
840.193	24833
840.33	24620
840.467	24817
840.604	24856
840.742	24985
840.879	24635
841.016	24684
841.153	24711
841.29	24947
841.427	24734
841.564	24787
841.701	24692
841.838	24726
841.975	24692
842.112	24646
842.249	24745
842.385	24635
842.522	24639
842.659	24661
842.796	24532
842.933	24585
843.069	24460
843.206	24407
843.343	24642
843.479	24551
843.616	24464
843.752	24224
843.889	24289
844.025	24369
844.162	24152
844.298	24350
844.435	24376
844.571	24220
844.708	24342
844.844	24380
844.98	24407
845.117	24426
845.253	24311
845.389	24194
845.525	24197
845.661	24277
845.798	24011
845.934	24064
846.07	24072
846.206	24060
846.342	24125
846.478	23988
846.614	23817
846.75	23596
846.886	23699
847.022	23748
847.158	23737
847.294	23707
847.429	23832
847.565	23741
847.701	23999
847.837	23551
847.972	23524
848.108	23551
848.244	23535
848.379	23395
848.515	23311
848.65	23307
848.786	23330
848.921	23368
849.057	23337
849.192	23425
849.328	23318
849.463	23391
849.598	23246
849.734	23155
849.869	23193
850.004	23041
850.14	23151
850.275	23185
850.41	23132
850.545	23022
850.68	23136
850.815	23102
850.95	23048
851.085	23288
851.22	23326
851.355	23204
851.49	23102
851.625	23064
851.76	23060
851.895	23003
852.03	23159
852.165	23044
852.299	23132
852.434	23181
852.569	23250
852.703	23079
852.838	23189
852.973	23155
853.107	23117
853.242	23033
853.376	22984
853.511	22816
853.645	22892
853.78	23022
853.914	22953
854.048	22987
854.183	22976
854.317	23025
854.451	23159
854.585	22900
854.72	22934
854.854	23086
854.988	22839
855.122	22911
855.256	22786
855.39	22858
855.524	23113
855.658	22854
855.792	22942
855.926	22896
856.06	22919
856.194	22968
856.327	22866
856.461	22889
856.595	22904
856.729	22805
856.862	22991
856.996	22991
857.13	23075
857.263	23227
857.397	22991
857.53	22923
857.664	23022
857.797	23022
857.931	22923
858.064	22934
858.197	23022
858.331	22927
858.464	22892
858.597	22831
858.731	22904
858.864	22984
858.997	22866
859.13	22900
859.263	23018
859.396	22999
859.529	22911
859.662	22782
859.795	22919
859.928	23048
860.061	23098
860.194	23094
860.327	23010
860.46	22968
860.592	23018
860.725	22987
860.858	22987
860.99	22976
861.123	22801
861.256	22786
861.388	22839
861.521	23589
861.653	22869
861.786	22736
861.918	22740
862.05	22877
862.183	22862
862.315	22816
862.447	22999
862.58	22934
862.712	22615
862.844	22660
862.976	22752
863.108	22672
863.24	22976
863.372	22573
863.504	22763
863.636	22694
863.768	22717
863.9	22630
864.032	22523
864.164	22550
864.296	22565
864.428	22710
864.559	22675
864.691	22736
864.823	22550
864.954	22596
865.086	22554
865.217	22561
865.349	22504
865.48	22523
865.612	22409
865.743	22649
865.875	22478
866.006	22379
866.137	22390
866.269	22527
866.4	22523
866.531	22500
866.662	22360
866.793	22478
866.924	22417
867.055	22542
867.186	22421
867.317	22413
867.448	22306
867.579	22405
867.71	22371
867.841	22352
867.972	22363
868.103	22386
868.233	22405
868.364	22455
868.495	22554
868.625	22698
868.756	22744
868.886	22493
869.017	22664
869.147	22725
869.278	22805
869.408	22653
869.539	22596
869.669	22660
869.799	22774
869.929	22710
870.06	22679
870.19	22877
870.32	22850
870.45	23014
870.58	23083
870.71	23098
870.84	23166
870.97	23113
871.1	23166
871.23	23151
871.36	23277
871.489	23128
871.619	23296
871.749	23265
871.879	23303
872.008	23280
872.138	23296
872.267	23174
872.397	23227
872.526	23197
872.656	23083
872.785	23140
872.915	23444
873.044	23376
873.173	23414
873.303	23258
873.432	23353
873.561	23372
873.69	23398
873.819	23208
873.948	23391
874.077	23296
874.206	23204
874.335	23322
874.464	23239
874.593	23562
874.722	23490
874.851	23490
874.979	23547
875.108	23551
875.237	23452
875.365	23421
875.494	23452
875.623	23562
875.751	23486
875.88	23524
876.008	23745
876.136	23718
876.265	23843
876.393	24087
876.521	23843
876.65	24057
876.778	24015
876.906	23855
877.034	23824
877.162	24011
877.29	23764
877.418	23813
877.546	23809
877.674	23786
877.802	23855
877.93	23866
878.058	23718
878.185	23684
878.313	23813
878.441	23863
878.568	23752
878.696	23855
878.824	23840
878.951	23923
879.079	24068
879.206	24045
879.333	24007
879.461	23882
879.588	23874
879.715	23950
879.842	24091
879.97	23863
880.097	23729
880.224	23638
880.351	23642
880.478	23646
880.605	23573
880.732	23668
880.859	23847
880.986	23676
881.112	23668
881.239	23440
881.366	23246
881.493	23478
881.619	23185
881.746	23204
881.872	23254
881.999	23151
882.125	23140
882.252	23307
882.378	23170
882.505	23185
882.631	23041
882.757	22850
882.883	22984
883.01	22938
883.136	22748
883.262	22755
883.388	22725
883.514	22965
883.64	22869
883.766	22858
883.892	22675
884.018	22679
884.143	22767
884.269	22858
884.395	22481
884.52	22634
884.646	22451
884.772	22497
884.897	22409
885.023	22470
885.148	22653
885.274	22645
885.399	22599
885.524	22565
885.65	22432
885.775	22386
885.9	22481
886.025	22622
886.15	22508
886.275	22375
886.4	22371
886.525	22413
886.65	22344
886.775	22432
886.9	22573
887.025	22694
887.149	22550
887.274	22226
887.399	22379
887.523	22310
887.648	22135
887.773	22154
887.897	22204
888.021	22185
888.146	22173
888.27	22421
888.395	22386
888.519	22196
888.643	22261
888.767	22314
888.891	22158
889.015	22154
889.139	22090
889.263	21979
889.387	22044
889.511	22257
889.635	22162
889.759	22074
889.883	21994
890.006	22150
890.13	22188
890.254	21850
890.377	21873
890.501	21816
890.624	21720
890.748	21755
890.871	21759
890.995	21580
891.118	21583
891.241	21519
891.364	21606
891.488	21736
891.611	21568
891.734	21564
891.857	21622
891.98	21614
892.103	21557
892.226	21507
892.349	21618
892.471	21447
892.594	21466
892.717	21557
892.839	21488
892.962	21488
893.085	21557
893.207	21568
893.33	21340
893.452	21374
893.575	21526
893.697	21595
893.819	21515
893.941	21728
894.064	21488
894.186	21405
894.308	21340
894.43	21534
894.552	21534
894.674	21488
894.796	21287
894.918	21450
895.04	21420
895.161	21424
895.283	21466
895.405	21340
895.526	21420
895.648	21359
895.769	21488
895.891	21504
896.012	21519
896.134	21393
896.255	21447
896.376	21401
896.498	21443
896.619	21500
896.74	21435
896.861	21500
896.982	21713
897.103	21838
897.224	21785
897.345	21717
897.466	21500
897.587	21587
897.708	21850
897.828	21705
897.949	21526
898.07	21507
898.19	21519
898.311	21682
898.431	21667
898.552	21614
898.672	21732
898.792	21660
898.913	21580
899.033	21500
899.153	21439
899.273	21237
899.393	21408
899.513	21447
899.633	21431
899.753	21439
899.873	21264
899.993	21374
900.113	21344
900.232	21348
900.352	21291
900.472	21127
900.591	21188
900.711	21199
900.83	21104
900.95	21150
901.069	21203
901.189	21005
901.308	20712
901.427	20629
901.546	20617
901.665	20724
901.784	20651
901.904	20503
902.023	20476
902.141	20229
902.26	20164
902.379	20278
902.498	20157
902.617	20252
902.735	20122
902.854	20191
902.973	20020
903.091	19845
903.21	19731
903.328	19750
903.446	19712
903.565	19643
903.683	19628
903.801	19537
903.919	19487
904.038	19628
904.156	19400
904.274	19476
904.392	19400
904.51	19285
904.627	19384
904.745	19415
904.863	19411
904.981	19255
905.098	19072
905.216	19004
905.334	19107
905.451	19228
905.569	19050
905.686	18970
905.803	18973
905.921	18779
906.038	18886
906.155	18810
906.272	18707
906.389	18757
906.506	18620
906.623	18684
906.74	18673
906.857	18509
906.974	18422
907.091	18570
907.208	18734
907.324	18532
907.441	18433
907.557	18216
907.674	18281
907.79	18190
907.907	18224
908.023	18296
908.139	18277
908.256	18178
908.372	18171
908.488	18213
908.604	18098
908.72	18015
908.836	18011
908.952	17908
909.068	18091
909.184	18083
909.3	17969
909.415	18064
909.531	18019
909.647	17684
909.762	17710
909.878	17619
909.993	17668
910.108	17710
910.224	17627
910.339	17775
910.454	17581
910.57	17425
910.685	17395
910.8	17809
910.915	17512
911.03	17486
911.145	17368
911.259	17189
911.374	17200
911.489	17280
911.604	17094
911.718	16995
911.833	17010
911.947	16942
912.062	16847
912.176	17037
912.291	17014
912.405	16984
912.519	17109
912.633	17147
912.748	17056
912.862	16908
912.976	16839
913.09	16729
913.204	16725
913.318	16839
913.431	16843
913.545	16877
913.659	16862
913.772	16736
913.886	16580
914	16596
914.113	16630
914.226	16668
914.34	16637
914.453	16516
914.566	16656
914.68	16428
914.793	16436
914.906	16253
915.019	16173
915.132	16139
915.245	16181
915.358	16234
915.47	16044
915.583	16135
915.696	16185
915.809	16207
915.921	16310
916.034	16044
916.146	15994
916.259	16051
916.371	15987
916.483	16139
916.595	15895
916.708	15991
916.82	15956
916.932	15972
917.044	15793
917.156	15865
917.268	15781
917.38	15789
917.491	15827
917.603	15778
917.715	15861
917.826	15835
917.938	15652
918.049	15568
918.161	15728
918.272	15835
918.384	15899
918.495	15667
918.606	15542
918.717	15477
918.828	15511
918.939	15523
919.05	15462
919.161	15420
919.272	15241
919.383	15378
919.494	15549
919.604	15720
919.715	15443
919.826	15340
919.936	15386
920.047	15549
920.157	15462
920.267	15732
920.378	15420
920.488	15416
920.598	15557
920.708	15762
920.818	15564
920.928	15599
921.038	15705
921.148	15682
921.258	15363
921.368	15325
921.477	15233
921.587	15112
921.697	15142
921.806	15192
921.916	15047
922.025	14906
922.134	14819
922.244	14788
922.353	14781
922.462	14644
922.571	14670
922.68	14495
922.789	14495
922.898	14549
923.007	14385
923.116	14530
923.224	14442
923.333	14377
923.442	14320
923.55	14366
923.659	14294
923.767	14290
923.876	14164
923.984	14343
924.092	14050
924.201	14259
924.309	14149
924.417	14161
924.525	14149
924.633	14107
924.741	15043
924.849	13879
924.956	14016
925.064	13864
925.172	13784
925.279	13837
925.387	13822
925.494	13845
925.602	14054
925.709	13890
925.816	13715
925.924	13799
926.031	13811
926.138	13723
926.245	13906
926.352	13651
926.459	13727
926.566	13795
926.673	13643
926.779	13590
926.886	13582
926.993	13449
927.099	13400
927.206	13225
927.312	13270
927.419	13434
927.525	13339
927.631	13396
927.737	13266
927.843	13247
927.95	13137
928.056	13171
928.162	13236
928.267	13190
928.373	13712
928.479	13194
928.585	12977
928.69	13122
928.796	13141
928.901	13008
929.007	12932
929.112	13061
929.218	12951
929.323	12890
929.428	12913
929.533	12958
929.638	12749
929.743	12833
929.848	12848
929.953	12749
930.058	12669
930.163	12521
930.267	12608
930.372	12665
930.477	12509
930.581	12757
930.685	12551
930.79	12384
930.894	12407
930.998	12334
931.103	12521
931.207	12140
931.311	12083
931.415	12019
931.519	11874
931.623	11707
