Data from test_V78500241_333.txt Node
Date: Fri Mar 25 15:44:06 CST 2022
User: usil
Spectrometer: V785-0024
Trigger mode: 0
Integration Time (sec): 4.000000E-1
Scans to average: 1
Nonlinearity correction enabled: false
Boxcar width: 0
Storing dark spectrum: false
XAxis mode: Wavelengths
Number of Pixels in Spectrum: 1024
>>>>>Begin Spectral Data<<<<<
801.071	29939
801.214	29790
801.356	29737
801.499	29558
801.641	29463
801.783	29372
801.926	29535
802.068	29345
802.211	29421
802.353	29269
802.496	29193
802.638	29067
802.78	29083
802.923	29235
803.065	28980
803.208	29105
803.35	29277
803.492	29166
803.635	29299
803.777	29098
803.919	29353
804.061	29657
804.204	29414
804.346	29269
804.488	29197
804.63	29433
804.773	29258
804.915	29269
805.057	29493
805.199	29345
805.341	29334
805.483	29493
805.626	29490
805.768	29444
805.91	29288
806.052	29516
806.194	29353
806.336	29756
806.478	29509
806.62	29608
806.762	29562
806.904	29847
807.046	30102
807.188	30030
807.33	29999
807.472	30064
807.614	29817
807.756	29779
807.898	29657
808.04	29547
808.182	29668
808.324	29665
808.465	29729
808.607	29920
808.749	30167
808.891	30251
809.033	30353
809.174	30125
809.316	30057
809.458	30163
809.6	30178
809.741	30167
809.883	30273
810.025	30429
810.166	30296
810.308	30532
810.45	30296
810.591	30304
810.733	30163
810.875	30148
811.016	30155
811.158	29988
811.299	30155
811.441	30365
811.582	30349
811.724	30102
811.865	30117
812.007	30091
812.148	30159
812.29	30068
812.431	30285
812.573	30422
812.714	30517
812.855	30722
812.997	30730
813.138	30772
813.279	30814
813.421	30741
813.562	30467
813.703	30486
813.845	30334
813.986	30026
814.127	29973
814.268	29786
814.41	29843
814.551	29756
814.692	29885
814.833	29821
814.974	29634
815.115	29684
815.256	29585
815.397	29680
815.539	29710
815.68	29547
815.821	29570
815.962	29630
816.103	29642
816.244	29524
816.385	29398
816.526	29189
816.666	29143
816.807	29025
816.948	29022
817.089	29105
817.23	29071
817.371	28953
817.512	29216
817.653	29159
817.793	28927
817.934	28980
818.075	28915
818.216	28976
818.356	28904
818.497	28957
818.638	28637
818.778	28858
818.919	28911
819.06	28793
819.2	28919
819.341	29003
819.481	28923
819.622	29181
819.762	29326
819.903	29360
820.043	29204
820.184	29136
820.324	29121
820.465	29083
820.605	29204
820.746	29136
820.886	29003
821.026	29079
821.167	29064
821.307	29033
821.447	28987
821.588	28949
821.728	28557
821.868	28622
822.008	28478
822.149	28535
822.289	28523
822.429	28230
822.569	28177
822.709	28143
822.849	27926
822.99	27876
823.13	27846
823.27	27861
823.41	27625
823.55	27812
823.69	27766
823.83	27644
823.97	27720
824.11	27389
824.25	27431
824.389	27511
824.529	27679
824.669	27488
824.809	27660
824.949	27526
825.089	27568
825.228	27637
825.368	27462
825.508	27218
825.648	27340
825.787	27351
825.927	27447
826.067	27348
826.206	27256
826.346	27496
826.485	27450
826.625	27545
826.765	27500
826.904	27424
827.044	27173
827.183	27135
827.323	27085
827.462	27058
827.601	27135
827.741	27051
827.88	27039
828.02	26891
828.159	27062
828.298	27024
828.437	27123
828.577	27028
828.716	27093
828.855	26933
828.994	26743
829.134	26739
829.273	26914
829.412	26663
829.551	26636
829.69	26727
829.829	26792
829.968	26712
830.107	26796
830.246	26632
830.385	26629
830.524	26613
830.663	26556
830.802	26370
830.941	26275
831.08	26317
831.219	26370
831.357	26370
831.496	26389
831.635	26290
831.774	26077
831.913	26191
832.051	26100
832.19	26096
832.329	26111
832.467	26020
832.606	25837
832.744	25883
832.883	25845
833.022	25947
833.16	25894
833.299	26065
833.437	26065
833.576	26046
833.714	25955
833.852	26027
833.991	26035
834.129	25959
834.267	25997
834.406	25932
834.544	26054
834.682	25993
834.821	25909
834.959	26081
835.097	25875
835.235	26008
835.373	25784
835.511	25830
835.65	25791
835.788	25887
835.926	25639
836.064	25624
836.202	25518
836.34	25727
836.478	25814
836.615	25750
836.753	25708
836.891	25784
837.029	25780
837.167	25674
837.305	25662
837.443	25639
837.58	25613
837.718	25651
837.856	25674
837.993	25552
838.131	25635
838.269	25438
838.406	25533
838.544	25297
838.681	25259
838.819	25289
838.956	24989
839.094	24909
839.231	25027
839.369	25160
839.506	25301
839.643	25213
839.781	24878
839.918	25015
840.055	25008
840.193	24989
840.33	24951
840.467	24935
840.604	24992
840.742	25183
840.879	24867
841.016	24814
841.153	24707
841.29	25053
841.427	24840
841.564	24848
841.701	24814
841.838	24798
841.975	24738
842.112	24681
842.249	24669
842.385	24631
842.522	24852
842.659	24566
842.796	24570
842.933	24559
843.069	24673
843.206	24540
843.343	24700
843.479	24536
843.616	24513
843.752	24433
843.889	24338
844.025	24498
844.162	24254
844.298	24429
844.435	24357
844.571	24243
844.708	24262
844.844	24471
844.98	24525
845.117	24361
845.253	24323
845.389	24110
845.525	24087
845.661	24106
845.798	24110
845.934	24003
846.07	24083
846.206	24015
846.342	24064
846.478	24049
846.614	23741
846.75	23821
846.886	23668
847.022	23843
847.158	23821
847.294	23714
847.429	23859
847.565	23714
847.701	23977
847.837	23516
847.972	23417
848.108	23543
848.244	23585
848.379	23307
848.515	23326
848.65	23376
848.786	23452
848.921	23410
849.057	23512
849.192	23360
849.328	23326
849.463	23406
849.598	23307
849.734	23155
849.869	23155
850.004	23136
850.14	23136
850.275	23143
850.41	22961
850.545	23022
850.68	22980
850.815	23079
850.95	22980
851.085	23303
851.22	23105
851.355	22976
851.49	23102
851.625	23083
851.76	23029
851.895	23003
852.03	22999
852.165	22923
852.299	23113
852.434	23178
852.569	23098
852.703	23052
852.838	23022
852.973	23102
853.107	23090
853.242	23022
853.376	22889
853.511	22637
853.645	22824
853.78	23022
853.914	22938
854.048	22801
854.183	22752
854.317	22713
854.451	22984
854.585	22908
854.72	22786
854.854	23006
854.988	22809
855.122	22797
855.256	22721
855.39	22824
855.524	22892
855.658	22896
855.792	22953
855.926	22850
856.06	22995
856.194	22919
856.327	22854
856.461	22721
856.595	22744
856.729	22763
856.862	22908
856.996	22877
857.13	22965
857.263	22866
857.397	22953
857.53	22843
857.664	22854
857.797	22923
857.931	22972
858.064	22847
858.197	22961
858.331	22767
858.464	22790
858.597	22752
858.731	22801
858.864	22618
858.997	22782
859.13	22873
859.263	22740
859.396	22824
859.529	22805
859.662	22740
859.795	22854
859.928	22820
860.061	22896
860.194	22900
860.327	22927
860.46	22771
860.592	22889
860.725	22953
860.858	22873
860.99	22805
861.123	22599
861.256	22729
861.388	22869
861.521	23455
861.653	22672
861.786	22641
861.918	22607
862.05	22565
862.183	22774
862.315	22797
862.447	22862
862.58	22740
862.712	22451
862.844	22512
862.976	22546
863.108	22554
863.24	22889
863.372	22325
863.504	22493
863.636	22451
863.768	22588
863.9	22443
864.032	22527
864.164	22455
864.296	22470
864.428	22645
864.559	22569
864.691	22577
864.823	22550
864.954	22402
865.086	22356
865.217	22428
865.349	22242
865.48	22303
865.612	22382
865.743	22405
865.875	22413
866.006	22291
866.137	22436
866.269	22318
866.4	22322
866.531	22246
866.662	22211
866.793	22314
866.924	22276
867.055	22337
867.186	22253
867.317	22188
867.448	22154
867.579	22234
867.71	22128
867.841	22268
867.972	22188
868.103	22135
868.233	22219
868.364	22287
868.495	22432
868.625	22584
868.756	22580
868.886	22390
869.017	22436
869.147	22596
869.278	22691
869.408	22588
869.539	22592
869.669	22637
869.799	22512
869.929	22637
870.06	22535
870.19	22809
870.32	22797
870.45	22873
870.58	22740
870.71	23044
870.84	22991
870.97	22843
871.1	22904
871.23	23067
871.36	23147
871.489	23006
871.619	23083
871.749	22953
871.879	23098
872.008	23022
872.138	23094
872.267	23060
872.397	22957
872.526	22991
872.656	22968
872.785	22904
872.915	23140
873.044	23246
873.173	23105
873.303	23132
873.432	23132
873.561	23242
873.69	23067
873.819	23113
873.948	23105
874.077	23033
874.206	23041
874.335	23117
874.464	23170
874.593	23379
874.722	23414
874.851	23246
874.979	23296
875.108	23402
875.237	23368
875.365	23288
875.494	23303
875.623	23376
875.751	23330
875.88	23383
876.008	23516
876.136	23520
876.265	23653
876.393	23901
876.521	23722
876.65	23786
876.778	23722
876.906	23619
877.034	23642
877.162	23672
877.29	23604
877.418	23600
877.546	23646
877.674	23577
877.802	23714
877.93	23627
878.058	23589
878.185	23539
878.313	23566
878.441	23737
878.568	23554
878.696	23642
878.824	23657
878.951	23760
879.079	23855
879.206	23885
879.333	23847
879.461	23741
879.588	23954
879.715	23851
879.842	23866
879.97	23695
880.097	23383
880.224	23398
880.351	23539
880.478	23512
880.605	23376
880.732	23425
880.859	23695
880.986	23459
881.112	23554
881.239	23277
881.366	23132
881.493	23174
881.619	22987
881.746	23014
881.872	23041
881.999	22984
882.125	22892
882.252	23083
882.378	23060
882.505	23029
882.631	22805
882.757	22713
882.883	22839
883.01	22828
883.136	22748
883.262	22679
883.388	22523
883.514	22630
883.64	22634
883.766	22649
883.892	22523
884.018	22504
884.143	22637
884.269	22759
884.395	22405
884.52	22352
884.646	22344
884.772	22318
884.897	22223
885.023	22291
885.148	22375
885.274	22451
885.399	22356
885.524	22322
885.65	22360
885.775	22306
885.9	22344
886.025	22413
886.15	22421
886.275	22268
886.4	22344
886.525	22261
886.65	22223
886.775	22169
886.9	22443
887.025	22599
887.149	22325
887.274	22177
887.399	22078
887.523	22166
887.648	22112
887.773	21968
887.897	22093
888.021	22112
888.146	22010
888.27	22105
888.395	22105
888.519	22200
888.643	22150
888.767	22116
888.891	21998
889.015	21994
889.139	21953
889.263	21770
889.387	21949
889.511	22010
889.635	22021
889.759	21865
889.883	21804
890.006	21770
890.13	22070
890.254	21785
890.377	21789
890.501	21622
890.624	21458
890.748	21701
890.871	21401
890.995	21363
891.118	21321
891.241	21462
891.364	21310
891.488	21481
891.611	21378
891.734	21439
891.857	21504
891.98	21454
892.103	21469
892.226	21443
892.349	21275
892.471	21195
892.594	21344
892.717	21294
892.839	21291
892.962	21283
893.085	21370
893.207	21252
893.33	21192
893.452	21154
893.575	21466
893.697	21245
893.819	21469
893.941	21523
894.064	21370
894.186	21237
894.308	21127
894.43	21325
894.552	21485
894.674	21313
894.796	21135
894.918	21241
895.04	21135
895.161	21317
895.283	21306
895.405	21275
895.526	21313
895.648	21146
895.769	21302
895.891	21336
896.012	21344
896.134	21348
896.255	21298
896.376	21203
896.498	21268
896.619	21245
896.74	21302
896.861	21279
896.982	21576
897.103	21743
897.224	21431
897.345	21561
897.466	21397
897.587	21500
897.708	21603
897.828	21450
897.949	21428
898.07	21188
898.19	21351
898.311	21450
898.431	21378
898.552	21511
898.672	21523
898.792	21504
898.913	21450
899.033	21397
899.153	21252
899.273	20971
899.393	21222
899.513	21256
899.633	21131
899.753	21211
899.873	21154
899.993	21165
900.113	21112
900.232	21214
900.352	21188
900.472	20990
900.591	20868
900.711	21001
900.83	20937
900.95	20952
901.069	21036
901.189	20929
901.308	20541
901.427	20629
901.546	20492
901.665	20617
901.784	20602
901.904	20347
902.023	20206
902.141	20130
902.26	20054
902.379	20168
902.498	20043
902.617	19989
902.735	19921
902.854	19932
902.973	19940
903.091	19651
903.21	19712
903.328	19628
903.446	19582
903.565	19411
903.683	19422
903.801	19240
903.919	19388
904.038	19388
904.156	19354
904.274	19289
904.392	19171
904.51	19270
904.627	19198
904.745	19152
904.863	19183
904.981	18993
905.098	18802
905.216	18913
905.334	18905
905.451	18920
905.569	18764
905.686	18840
905.803	18817
905.921	18601
906.038	18798
906.155	18654
906.272	18521
906.389	18513
906.506	18330
906.623	18486
906.74	18407
906.857	18304
906.974	18266
907.091	18365
907.208	18479
907.324	18380
907.441	18308
907.557	18152
907.674	18011
907.79	18060
907.907	18114
908.023	18038
908.139	17954
908.256	17984
908.372	17912
908.488	17954
908.604	17786
908.72	17703
908.836	17805
908.952	17707
909.068	17767
909.184	17855
909.3	17657
909.415	17729
909.531	17729
909.647	17444
909.762	17486
909.878	17398
909.993	17501
910.108	17436
910.224	17356
910.339	17486
910.454	17315
910.57	17242
910.685	17113
910.8	17376
910.915	17383
911.03	17151
911.145	17022
911.259	16949
911.374	16934
911.489	16866
911.604	16850
911.718	16733
911.833	16809
911.947	16668
912.062	16538
912.176	16694
912.291	16767
912.405	16744
912.519	16900
912.633	16923
912.748	16664
912.862	16679
912.976	16447
913.09	16432
913.204	16489
913.318	16481
913.431	16649
913.545	16542
913.659	16679
913.772	16493
913.886	16371
914	16348
914.113	16337
914.226	16440
914.34	16310
914.453	16181
914.566	16249
914.68	16204
914.793	16185
914.906	16032
915.019	15865
915.132	15869
915.245	15873
915.358	16002
915.47	15869
915.583	15915
915.696	15941
915.809	16082
915.921	16059
916.034	15869
916.146	15690
916.259	15728
916.371	15865
916.483	15812
916.595	15732
916.708	15667
916.82	15675
916.932	15618
917.044	15629
917.156	15587
917.268	15523
917.38	15564
917.491	15481
917.603	15511
917.715	15622
917.826	15663
917.938	15363
918.049	15393
918.161	15481
918.272	15545
918.384	15564
918.495	15507
918.606	15344
918.717	15275
918.828	15226
918.939	15222
919.05	15272
919.161	15245
919.272	14990
919.383	15074
919.494	15317
919.604	15462
919.715	15256
919.826	15131
919.936	15135
920.047	15310
920.157	15241
920.267	15408
920.378	15256
920.488	15180
920.598	15397
920.708	15428
920.818	15336
920.928	15370
921.038	15458
921.148	15359
921.258	15135
921.368	14971
921.477	14921
921.587	14971
921.697	14777
921.806	14914
921.916	14754
922.025	14568
922.134	14583
922.244	14533
922.353	14473
922.462	14400
922.571	14324
922.68	14202
922.789	14149
922.898	14142
923.007	14069
923.116	14149
923.224	14210
923.333	14199
923.442	13978
923.55	13967
923.659	14008
923.767	14069
923.876	14005
923.984	14081
924.092	13852
924.201	13921
924.309	13811
924.417	13856
924.525	13753
924.633	13818
924.741	14549
924.849	13537
924.956	13776
925.064	13556
925.172	13499
925.279	13499
925.387	13597
925.494	13552
925.602	13700
925.709	13628
925.816	13468
925.924	13426
926.031	13586
926.138	13502
926.245	13537
926.352	13308
926.459	13537
926.566	13521
926.673	13430
926.779	13297
926.886	13209
926.993	13156
927.099	13137
927.206	13129
927.312	12966
927.419	13080
927.525	13099
927.631	12958
927.737	13034
927.843	12977
927.95	12779
928.056	12871
928.162	12897
928.267	12932
928.373	13529
928.479	12932
928.585	12802
928.69	12875
928.796	12924
928.901	12734
929.007	12589
929.112	12715
929.218	12631
929.323	12688
929.428	12601
929.533	12654
929.638	12479
929.743	12604
929.848	12585
929.953	12521
930.058	12365
930.163	12323
930.267	12285
930.372	12475
930.477	12251
930.581	12426
930.685	12357
930.79	12159
930.894	12121
930.998	12110
931.103	12220
931.207	11840
931.311	11821
931.415	11710
931.519	11562
931.623	11444
