Data from test_V78500241_1272.txt Node
Date: Fri Mar 25 15:50:36 CST 2022
User: usil
Spectrometer: V785-0024
Trigger mode: 0
Integration Time (sec): 4.000000E-1
Scans to average: 1
Nonlinearity correction enabled: false
Boxcar width: 0
Storing dark spectrum: false
XAxis mode: Wavelengths
Number of Pixels in Spectrum: 1024
>>>>>Begin Spectral Data<<<<<
801.071	28774
801.214	28866
801.356	28618
801.499	28478
801.641	28352
801.783	28462
801.926	28485
802.068	28459
802.211	28341
802.353	28344
802.496	28154
802.638	28017
802.78	28139
802.923	28048
803.065	27964
803.208	27953
803.35	28090
803.492	28280
803.635	28314
803.777	28032
803.919	28253
804.061	28607
804.204	28287
804.346	28185
804.488	28211
804.63	28272
804.773	28181
804.915	28390
805.057	28314
805.199	28360
805.341	28276
805.483	28611
805.626	28546
805.768	28348
805.91	28421
806.052	28470
806.194	28424
806.336	28801
806.478	28615
806.62	28596
806.762	28691
806.904	28801
807.046	29033
807.188	28797
807.33	28976
807.472	28995
807.614	28790
807.756	29029
807.898	28812
808.04	28812
808.182	28869
808.324	28938
808.465	28793
808.607	29121
808.749	29178
808.891	29288
809.033	29360
809.174	29334
809.316	29208
809.458	29197
809.6	29037
809.741	29166
809.883	29417
810.025	29570
810.166	29581
810.308	29581
810.45	29459
810.591	29528
810.733	29402
810.875	29174
811.016	29048
811.158	29052
811.299	29356
811.441	29178
811.582	29341
811.724	29162
811.865	29132
812.007	29235
812.148	29258
812.29	29364
812.431	29330
812.573	29501
812.714	29653
812.855	29779
812.997	29813
813.138	29904
813.279	29866
813.421	29745
813.562	29745
813.703	29581
813.845	29497
813.986	29098
814.127	29090
814.268	28972
814.41	28866
814.551	28831
814.692	28957
814.833	28915
814.974	28953
815.115	28949
815.256	28782
815.397	28771
815.539	28850
815.68	28721
815.821	28687
815.962	28839
816.103	28710
816.244	28596
816.385	28580
816.526	28550
816.666	28287
816.807	28097
816.948	28329
817.089	28421
817.23	28150
817.371	28322
817.512	28200
817.653	28310
817.793	28291
817.934	28341
818.075	28276
818.216	28143
818.356	28363
818.497	28036
818.638	27987
818.778	28116
818.919	28078
819.06	27979
819.2	28192
819.341	28348
819.481	28318
819.622	28440
819.762	28485
819.903	28645
820.043	28554
820.184	28440
820.324	28394
820.465	28436
820.605	28265
820.746	28280
820.886	28268
821.026	28401
821.167	28276
821.307	28325
821.447	28303
821.588	28253
821.728	28025
821.868	27899
822.008	27869
822.149	27793
822.289	27732
822.429	27427
822.569	27439
822.709	27374
822.849	27252
822.99	27355
823.13	27264
823.27	27188
823.41	26929
823.55	27043
823.69	27131
823.83	26963
823.97	27096
824.11	26967
824.25	26849
824.389	26948
824.529	26971
824.669	26918
824.809	27123
824.949	26899
825.089	27039
825.228	26940
825.368	26857
825.508	26845
825.648	26842
825.787	26895
825.927	26754
826.067	26746
826.206	26861
826.346	26826
826.485	26796
826.625	26682
826.765	26921
826.904	26895
827.044	26552
827.183	26541
827.323	26579
827.462	26575
827.601	26533
827.741	26385
827.88	26415
828.02	26381
828.159	26442
828.298	26621
828.437	26670
828.577	26450
828.716	26613
828.855	26355
828.994	26157
829.134	26248
829.273	26240
829.412	26081
829.551	26225
829.69	26180
829.829	26214
829.968	26298
830.107	26233
830.246	26248
830.385	26275
830.524	26313
830.663	25982
830.802	25955
830.941	25738
831.08	25708
831.219	25765
831.357	25894
831.496	25993
831.635	25898
831.774	25662
831.913	25502
832.051	25495
832.19	25594
832.329	25597
832.467	25563
832.606	25430
832.744	25483
832.883	25540
833.022	25327
833.16	25479
833.299	25556
833.437	25495
833.576	25567
833.714	25502
833.852	25540
833.991	25438
834.129	25514
834.267	25647
834.406	25502
834.544	25552
834.682	25506
834.821	25468
834.959	25548
835.097	25502
835.235	25495
835.373	25590
835.511	25445
835.65	25251
835.788	25339
835.926	25148
836.064	25297
836.202	25198
836.34	25354
836.478	25495
836.615	25400
836.753	25445
836.891	25445
837.029	25346
837.167	25293
837.305	25244
837.443	25270
837.58	25129
837.718	25255
837.856	25206
837.993	25164
838.131	25240
838.269	25031
838.406	25000
838.544	25080
838.681	24878
838.819	24833
838.956	24783
839.094	24661
839.231	24696
839.369	24837
839.506	25061
839.643	24791
839.781	24608
839.918	24555
840.055	24597
840.193	24574
840.33	24544
840.467	24540
840.604	24563
840.742	24757
840.879	24399
841.016	24498
841.153	24407
841.29	24650
841.427	24525
841.564	24483
841.701	24532
841.838	24574
841.975	24323
842.112	24384
842.249	24460
842.385	24258
842.522	24479
842.659	24505
842.796	24270
842.933	24285
843.069	24186
843.206	24117
843.343	24346
843.479	24296
843.616	24357
843.752	24232
843.889	24011
844.025	24247
844.162	24026
844.298	24057
844.435	23885
844.571	24102
844.708	24129
844.844	24232
844.98	24178
845.117	23942
845.253	24011
845.389	23882
845.525	24064
845.661	23897
845.798	23756
845.934	23786
846.07	23722
846.206	23771
846.342	23878
846.478	23718
846.614	23634
846.75	23478
846.886	23356
847.022	23592
847.158	23543
847.294	23440
847.429	23596
847.565	23459
847.701	23752
847.837	23277
847.972	23223
848.108	23334
848.244	23307
848.379	23090
848.515	23128
848.65	23159
848.786	23029
848.921	23113
849.057	23189
849.192	23136
849.328	23014
849.463	23048
849.598	23052
849.734	22957
849.869	22919
850.004	22774
850.14	23018
850.275	22896
850.41	22812
850.545	22854
850.68	22839
850.815	22862
850.95	22771
851.085	22934
851.22	22858
851.355	22847
851.49	22752
851.625	22809
851.76	22793
851.895	22748
852.03	22698
852.165	22816
852.299	22835
852.434	22953
852.569	22900
852.703	22809
852.838	22938
852.973	22942
853.107	22915
853.242	22740
853.376	22713
853.511	22462
853.645	22618
853.78	22843
853.914	22675
854.048	22645
854.183	22523
854.317	22615
854.451	22797
854.585	22668
854.72	22675
854.854	22645
854.988	22687
855.122	22668
855.256	22485
855.39	22634
855.524	22618
855.658	22618
855.792	22698
855.926	22615
856.06	22733
856.194	22767
856.327	22637
856.461	22622
856.595	22485
856.729	22694
856.862	22736
856.996	22736
857.13	22721
857.263	22710
857.397	22481
857.53	22611
857.664	22702
857.797	22626
857.931	22717
858.064	22630
858.197	22752
858.331	22603
858.464	22615
858.597	22500
858.731	22656
858.864	22516
858.997	22546
859.13	22569
859.263	22615
859.396	22698
859.529	22569
859.662	22573
859.795	22668
859.928	22706
860.061	22847
860.194	22923
860.327	22679
860.46	22660
860.592	22820
860.725	22927
860.858	22752
860.99	22649
861.123	22653
861.256	22546
861.388	22596
861.521	23128
861.653	22557
861.786	22497
861.918	22504
862.05	22538
862.183	22554
862.315	22691
862.447	22683
862.58	22660
862.712	22417
862.844	22344
862.976	22523
863.108	22394
863.24	22706
863.372	22230
863.504	22284
863.636	22303
863.768	22295
863.9	22428
864.032	22230
864.164	22325
864.296	22447
864.428	22462
864.559	22504
864.691	22459
864.823	22348
864.954	22291
865.086	22318
865.217	22287
865.349	22143
865.48	22215
865.612	22280
865.743	22337
865.875	22196
866.006	22181
866.137	22314
866.269	22253
866.4	22211
866.531	22192
866.662	22074
866.793	22188
866.924	22143
867.055	22238
867.186	22162
867.317	22082
867.448	22147
867.579	22048
867.71	22090
867.841	22093
867.972	22295
868.103	22101
868.233	22196
868.364	22090
868.495	22169
868.625	22253
868.756	22402
868.886	22447
869.017	22516
869.147	22474
869.278	22531
869.408	22489
869.539	22428
869.669	22512
869.799	22542
869.929	22451
870.06	22538
870.19	22759
870.32	22607
870.45	22801
870.58	22801
870.71	22831
870.84	22881
870.97	22885
871.1	22733
871.23	23048
871.36	22915
871.489	22923
871.619	23018
871.749	22965
871.879	22991
872.008	23044
872.138	22953
872.267	22957
872.397	22809
872.526	22820
872.656	22824
872.785	22717
872.915	23018
873.044	23037
873.173	23060
873.303	23121
873.432	23102
873.561	23067
873.69	23056
873.819	23048
873.948	23022
874.077	23128
874.206	22946
874.335	23029
874.464	23124
874.593	23307
874.722	23185
874.851	23204
874.979	23204
875.108	23246
875.237	23128
875.365	23044
875.494	23254
875.623	23322
875.751	23102
875.88	23147
876.008	23360
876.136	23395
876.265	23638
876.393	23775
876.521	23615
876.65	23608
876.778	23615
876.906	23467
877.034	23551
877.162	23634
877.29	23490
877.418	23604
877.546	23653
877.674	23630
877.802	23608
877.93	23467
878.058	23581
878.185	23360
878.313	23471
878.441	23577
878.568	23334
878.696	23455
878.824	23604
878.951	23642
879.079	23737
879.206	23752
879.333	23710
879.461	23448
879.588	23680
879.715	23604
879.842	23805
879.97	23592
880.097	23353
880.224	23387
880.351	23372
880.478	23349
880.605	23307
880.732	23414
880.859	23668
880.986	23398
881.112	23379
881.239	23280
881.366	23208
881.493	23102
881.619	22938
881.746	22923
881.872	22858
881.999	22843
882.125	22854
882.252	22930
882.378	22877
882.505	23075
882.631	22866
882.757	22626
882.883	22679
883.01	22596
883.136	22459
883.262	22432
883.388	22554
883.514	22679
883.64	22569
883.766	22519
883.892	22344
884.018	22402
884.143	22580
884.269	22538
884.395	22276
884.52	22128
884.646	22344
884.772	22143
884.897	22207
885.023	22242
885.148	22268
885.274	22436
885.399	22291
885.524	22188
885.65	22280
885.775	22223
885.9	22097
886.025	22390
886.15	22246
886.275	22036
886.4	22131
886.525	22280
886.65	22154
886.775	22105
886.9	22276
887.025	22531
887.149	22169
887.274	21865
887.399	21956
887.523	22074
887.648	21960
887.773	21857
887.897	21934
888.021	22013
888.146	21903
888.27	21934
888.395	22013
888.519	21998
888.643	22112
888.767	22017
888.891	21922
889.015	21808
889.139	21854
889.263	21701
889.387	21915
889.511	21850
889.635	21911
889.759	21705
889.883	21781
890.006	21785
890.13	21964
890.254	21747
890.377	21614
890.501	21595
890.624	21397
890.748	21519
890.871	21511
890.995	21294
891.118	21291
891.241	21237
891.364	21310
891.488	21325
891.611	21241
891.734	21450
891.857	21405
891.98	21294
892.103	21549
892.226	21359
892.349	21325
892.471	21081
892.594	21173
892.717	21329
892.839	21275
892.962	21313
893.085	21378
893.207	21211
893.33	21165
893.452	21100
893.575	21279
893.697	21104
893.819	21374
893.941	21492
894.064	21241
894.186	21131
894.308	21173
894.43	21264
894.552	21389
894.674	21260
894.796	21070
894.918	21161
895.04	21173
895.161	21302
895.283	21218
895.405	21142
895.526	21211
895.648	21150
895.769	21150
895.891	21226
896.012	21199
896.134	21249
896.255	21070
896.376	21211
896.498	21138
896.619	21188
896.74	21192
896.861	21283
896.982	21443
897.103	21561
897.224	21492
897.345	21447
897.466	21264
897.587	21405
897.708	21466
897.828	21370
897.949	21389
898.07	21176
898.19	21401
898.311	21454
898.431	21386
898.552	21393
898.672	21447
898.792	21500
898.913	21382
899.033	21226
899.153	21043
899.273	21093
899.393	21112
899.513	21039
899.633	21214
899.753	21009
899.873	20986
899.993	21176
900.113	20979
900.232	21077
900.352	21009
900.472	20998
900.591	20849
900.711	20883
900.83	20876
900.95	20941
901.069	20872
901.189	20746
901.308	20579
901.427	20374
901.546	20427
901.665	20469
901.784	20431
901.904	20301
902.023	20221
902.141	19978
902.26	20039
902.379	19902
902.498	19913
902.617	19875
902.735	20065
902.854	19860
902.973	19837
903.091	19689
903.21	19666
903.328	19582
903.446	19537
903.565	19415
903.683	19521
903.801	19343
903.919	19422
904.038	19301
904.156	19293
904.274	19236
904.392	19126
904.51	19126
904.627	19171
904.745	19187
904.863	19221
904.981	19004
905.098	18886
905.216	18779
905.334	18798
905.451	18837
905.569	18871
905.686	18871
905.803	18821
905.921	18559
906.038	18684
906.155	18703
906.272	18574
906.389	18502
906.506	18304
906.623	18361
906.74	18433
906.857	18201
906.974	18266
907.091	18399
907.208	18452
907.324	18369
907.441	18308
907.557	18140
907.674	18068
907.79	18011
907.907	17923
908.023	18083
908.139	18098
908.256	18003
908.372	17935
908.488	17882
908.604	17737
908.72	17649
908.836	17710
908.952	17748
909.068	17805
909.184	17843
909.3	17802
909.415	17786
909.531	17783
909.647	17532
909.762	17410
909.878	17474
909.993	17459
910.108	17421
910.224	17433
910.339	17440
910.454	17383
910.57	17345
910.685	17231
910.8	17493
910.915	17368
911.03	17231
911.145	17083
911.259	17025
911.374	17071
911.489	17022
911.604	16896
911.718	16820
911.833	16774
911.947	16717
912.062	16656
912.176	16858
912.291	16767
912.405	16873
912.519	16908
912.633	17014
912.748	16889
912.862	16824
912.976	16573
913.09	16478
913.204	16523
913.318	16687
913.431	16687
913.545	16546
913.659	16656
913.772	16546
913.886	16367
914	16360
914.113	16424
914.226	16489
914.34	16443
914.453	16211
914.566	16428
914.68	16246
914.793	16295
914.906	16063
915.019	15941
915.132	16048
915.245	15930
915.358	15937
915.47	15937
915.583	15915
915.696	15956
915.809	16010
915.921	16143
916.034	15861
916.146	15846
916.259	15884
916.371	15876
916.483	15808
916.595	15732
916.708	15717
916.82	15732
916.932	15816
917.044	15701
917.156	15751
917.268	15568
917.38	15656
917.491	15511
917.603	15568
917.715	15686
917.826	15656
917.938	15431
918.049	15348
918.161	15515
918.272	15625
918.384	15637
918.495	15507
918.606	15260
918.717	15351
918.828	15359
918.939	15370
919.05	15138
919.161	15378
919.272	15100
919.383	15093
919.494	15332
919.604	15428
919.715	15249
919.826	15180
919.936	15268
920.047	15283
920.157	15241
920.267	15496
920.378	15256
920.488	15211
920.598	15435
920.708	15568
920.818	15431
920.928	15405
921.038	15530
921.148	15530
921.258	15199
921.368	15077
921.477	15028
921.587	15070
921.697	14876
921.806	14998
921.916	14857
922.025	14724
922.134	14678
922.244	14549
922.353	14724
922.462	14518
922.571	14450
922.68	14202
922.789	14221
922.898	14358
923.007	14103
923.116	14233
923.224	14233
923.333	14153
923.442	14084
923.55	13986
923.659	14107
923.767	14126
923.876	13982
923.984	14001
924.092	13982
924.201	14005
924.309	13925
924.417	14050
924.525	13913
924.633	13849
924.741	14849
924.849	13746
924.956	13753
925.064	13655
925.172	13601
925.279	13658
925.387	13632
925.494	13639
925.602	13784
925.709	13632
925.816	13476
925.924	13460
926.031	13662
926.138	13518
926.245	13594
926.352	13419
926.459	13548
926.566	13571
926.673	13411
926.779	13362
926.886	13396
926.993	13282
927.099	13209
927.206	13149
927.312	13145
927.419	13171
927.525	13091
927.631	13194
927.737	13057
927.843	12966
927.95	12920
928.056	12970
928.162	12993
928.267	12977
928.373	13632
928.479	12993
928.585	12814
928.69	12905
928.796	12947
928.901	12871
929.007	12654
929.112	12821
929.218	12787
929.323	12669
929.428	12646
929.533	12760
929.638	12669
929.743	12646
929.848	12559
929.953	12601
930.058	12532
930.163	12422
930.267	12353
930.372	12464
930.477	12277
930.581	12532
930.685	12418
930.79	12258
930.894	12315
930.998	12167
931.103	12357
931.207	12011
931.311	11935
931.415	11809
931.519	11646
931.623	11665
