Data from test_V78500241_681.txt Node
Date: Fri Mar 25 15:46:31 CST 2022
User: usil
Spectrometer: V785-0024
Trigger mode: 0
Integration Time (sec): 4.000000E-1
Scans to average: 1
Nonlinearity correction enabled: false
Boxcar width: 0
Storing dark spectrum: false
XAxis mode: Wavelengths
Number of Pixels in Spectrum: 1024
>>>>>Begin Spectral Data<<<<<
801.071	28276
801.214	27907
801.356	27819
801.499	27842
801.641	27755
801.783	27698
801.926	27671
802.068	27819
802.211	27530
802.353	27519
802.496	27348
802.638	27386
802.78	27397
802.923	27416
803.065	27348
803.208	27340
803.35	27427
803.492	27553
803.635	27538
803.777	27420
803.919	27599
804.061	27800
804.204	27682
804.346	27496
804.488	27279
804.63	27530
804.773	27481
804.915	27591
805.057	27652
805.199	27572
805.341	27656
805.483	27686
805.626	27587
805.768	27549
805.91	27641
806.052	27686
806.194	27591
806.336	27755
806.478	27819
806.62	27641
806.762	27854
806.904	27945
807.046	28249
807.188	28223
807.33	28067
807.472	28109
807.614	28124
807.756	28097
807.898	27991
808.04	27983
808.182	27846
808.324	27907
808.465	28048
808.607	28249
808.749	28280
808.891	28489
809.033	28577
809.174	28577
809.316	28428
809.458	28318
809.6	28398
809.741	28538
809.883	28462
810.025	28557
810.166	28622
810.308	28683
810.45	28664
810.591	28561
810.733	28394
810.875	28219
811.016	28196
811.158	28329
811.299	28656
811.441	28451
811.582	28569
811.724	28401
811.865	28356
812.007	28470
812.148	28386
812.29	28409
812.431	28599
812.573	28641
812.714	28816
812.855	28858
812.997	28927
813.138	29136
813.279	29060
813.421	28885
813.562	28946
813.703	28862
813.845	28660
813.986	28272
814.127	28154
814.268	28090
814.41	28090
814.551	28093
814.692	28067
814.833	27846
814.974	28116
815.115	28082
815.256	27774
815.397	27937
815.539	27895
815.68	27869
815.821	27766
815.962	27861
816.103	27880
816.244	27660
816.385	27663
816.526	27633
816.666	27568
816.807	27401
816.948	27591
817.089	27515
817.23	27378
817.371	27336
817.512	27329
817.653	27374
817.793	27268
817.934	27382
818.075	27469
818.216	27351
818.356	27298
818.497	27264
818.638	27047
818.778	27142
818.919	27199
819.06	27161
819.2	27260
819.341	27355
819.481	27378
819.622	27591
819.762	27808
819.903	27694
820.043	27542
820.184	27466
820.324	27431
820.465	27591
820.605	27488
820.746	27447
820.886	27313
821.026	27401
821.167	27435
821.307	27416
821.447	27348
821.588	27321
821.728	27093
821.868	27131
822.008	26887
822.149	26826
822.289	26880
822.429	26556
822.569	26556
822.709	26526
822.849	26351
822.99	26282
823.13	26446
823.27	26332
823.41	26214
823.55	26176
823.69	26168
823.83	26206
823.97	26218
824.11	25947
824.25	26043
824.389	25883
824.529	25989
824.669	26020
824.809	26111
824.949	26035
825.089	26195
825.228	26027
825.368	25959
825.508	25921
825.648	25860
825.787	25917
825.927	25947
826.067	25811
826.206	25959
826.346	25883
826.485	25788
826.625	25883
826.765	25974
826.904	25951
827.044	25704
827.183	25647
827.323	25567
827.462	25582
827.601	25635
827.741	25647
827.88	25586
828.02	25468
828.159	25575
828.298	25537
828.437	25700
828.577	25483
828.716	25677
828.855	25521
828.994	25308
829.134	25403
829.273	25320
829.412	25206
829.551	25381
829.69	25308
829.829	25346
829.968	25282
830.107	25339
830.246	25301
830.385	25228
830.524	25190
830.663	24989
830.802	25088
830.941	24776
831.08	24806
831.219	24867
831.357	24947
831.496	25050
831.635	24935
831.774	24848
831.913	24837
832.051	24757
832.19	24661
832.329	24661
832.467	24544
832.606	24517
832.744	24467
832.883	24505
833.022	24570
833.16	24502
833.299	24582
833.437	24570
833.576	24627
833.714	24582
833.852	24802
833.991	24658
834.129	24707
834.267	24916
834.406	24696
834.544	24673
834.682	24650
834.821	24578
834.959	24760
835.097	24521
835.235	24757
835.373	24559
835.511	24585
835.65	24471
835.788	24475
835.926	24254
836.064	24311
836.202	24388
836.34	24410
836.478	24369
836.615	24410
836.753	24490
836.891	24456
837.029	24414
837.167	24338
837.305	24270
837.443	24327
837.58	24224
837.718	24448
837.856	24308
837.993	24232
838.131	24254
838.269	24117
838.406	24213
838.544	24114
838.681	23939
838.819	23920
838.956	23771
839.094	23771
839.231	23958
839.369	23942
839.506	24110
839.643	23958
839.781	23855
839.918	23756
840.055	23668
840.193	23703
840.33	23551
840.467	23737
840.604	23729
840.742	23931
840.879	23512
841.016	23615
841.153	23589
841.29	23665
841.427	23539
841.564	23707
841.701	23817
841.838	23699
841.975	23410
842.112	23703
842.249	23486
842.385	23581
842.522	23668
842.659	23573
842.796	23364
842.933	23299
843.069	23318
843.206	23337
843.343	23615
843.479	23395
843.616	23345
843.752	23155
843.889	23242
844.025	23277
844.162	23083
844.298	23174
844.435	23269
844.571	23193
844.708	23254
844.844	23315
844.98	23379
845.117	23360
845.253	23090
845.389	23025
845.525	23102
845.661	22972
845.798	22991
845.934	23067
846.07	22847
846.206	22869
846.342	23052
846.478	22858
846.614	22801
846.75	22531
846.886	22637
847.022	22744
847.158	22668
847.294	22660
847.429	22653
847.565	22611
847.701	22934
847.837	22466
847.972	22291
848.108	22500
848.244	22504
848.379	22379
848.515	22223
848.65	22238
848.786	22200
848.921	22291
849.057	22303
849.192	22390
849.328	22382
849.463	22310
849.598	22303
849.734	22048
849.869	22147
850.004	22105
850.14	21960
850.275	21998
850.41	21884
850.545	21987
850.68	22013
850.815	22051
850.95	21979
851.085	22219
851.22	22154
851.355	21930
851.49	21998
851.625	21994
851.76	22059
851.895	21842
852.03	22032
852.165	22067
852.299	22025
852.434	22158
852.569	22048
852.703	22055
852.838	22048
852.973	22120
853.107	22139
853.242	21934
853.376	21774
853.511	21713
853.645	21903
853.78	21915
853.914	21937
854.048	21838
854.183	21808
854.317	21930
854.451	22048
854.585	21880
854.72	21797
854.854	22025
854.988	21732
855.122	21816
855.256	21732
855.39	21873
855.524	21949
855.658	21930
855.792	21926
855.926	21842
856.06	22025
856.194	21804
856.327	21800
856.461	21854
856.595	21854
856.729	21728
856.862	21926
856.996	21911
857.13	21892
857.263	21975
857.397	22021
857.53	21804
857.664	21819
857.797	21857
857.931	22032
858.064	21899
858.197	21922
858.331	21869
858.464	21762
858.597	21766
858.731	22029
858.864	21812
858.997	21778
859.13	21865
859.263	21915
859.396	22036
859.529	21842
859.662	21774
859.795	21903
859.928	21743
860.061	21949
860.194	22048
860.327	21903
860.46	21861
860.592	22074
860.725	22013
860.858	21979
860.99	21968
861.123	21770
861.256	21709
861.388	21789
861.521	22485
861.653	21679
861.786	21724
861.918	21747
862.05	21610
862.183	21732
862.315	21762
862.447	21850
862.58	21629
862.712	21641
862.844	21572
862.976	21732
863.108	21618
863.24	21934
863.372	21424
863.504	21507
863.636	21473
863.768	21644
863.9	21466
864.032	21488
864.164	21492
864.296	21568
864.428	21618
864.559	21667
864.691	21523
864.823	21507
864.954	21469
865.086	21610
865.217	21428
865.349	21351
865.48	21511
865.612	21603
865.743	21606
865.875	21439
866.006	21507
866.137	21458
866.269	21538
866.4	21530
866.531	21355
866.662	21344
866.793	21321
866.924	21428
867.055	21458
867.186	21397
867.317	21370
867.448	21313
867.579	21382
867.71	21279
867.841	21233
867.972	21321
868.103	21466
868.233	21329
868.364	21359
868.495	21492
868.625	21663
868.756	21698
868.886	21515
869.017	21568
869.147	21705
869.278	21812
869.408	21732
869.539	21648
869.669	21743
869.799	21709
869.929	21728
870.06	21766
870.19	21956
870.32	21854
870.45	21953
870.58	21945
870.71	22070
870.84	22048
870.97	22036
871.1	22173
871.23	22131
871.36	22207
871.489	22276
871.619	22207
871.749	22204
871.879	22234
872.008	22303
872.138	22246
872.267	22211
872.397	22135
872.526	22166
872.656	22139
872.785	21994
872.915	22253
873.044	22375
873.173	22329
873.303	22314
873.432	22329
873.561	22360
873.69	22329
873.819	22230
873.948	22363
874.077	22150
874.206	22234
874.335	22211
874.464	22295
874.593	22436
874.722	22375
874.851	22462
874.979	22573
875.108	22554
875.237	22333
875.365	22322
875.494	22459
875.623	22516
875.751	22382
875.88	22489
876.008	22512
876.136	22516
876.265	22892
876.393	23025
876.521	22938
876.65	22965
876.778	22949
876.906	22801
877.034	22896
877.162	22824
877.29	22748
877.418	22694
877.546	22767
877.674	22896
877.802	22782
877.93	22831
878.058	22812
878.185	22668
878.313	22710
878.441	22809
878.568	22500
878.696	22706
878.824	22892
878.951	22961
879.079	22858
879.206	23121
879.333	22934
879.461	22812
879.588	23006
879.715	22949
879.842	23105
879.97	22908
880.097	22656
880.224	22573
880.351	22649
880.478	22702
880.605	22569
880.732	22634
880.859	22843
880.986	22607
881.112	22653
881.239	22462
881.366	22424
881.493	22158
881.619	22272
881.746	22322
881.872	22200
881.999	22249
882.125	22059
882.252	22207
882.378	22284
882.505	22181
882.631	21922
882.757	22105
882.883	21964
883.01	21926
883.136	21861
883.262	21793
883.388	21698
883.514	21953
883.64	21934
883.766	21972
883.892	21705
884.018	21644
884.143	21785
884.269	21930
884.395	21549
884.52	21591
884.646	21545
884.772	21424
884.897	21428
885.023	21553
885.148	21675
885.274	21675
885.399	21698
885.524	21603
885.65	21481
885.775	21557
885.9	21439
886.025	21526
886.15	21580
886.275	21405
886.4	21492
886.525	21587
886.65	21424
886.775	21389
886.9	21660
887.025	21675
887.149	21458
887.274	21313
887.399	21306
887.523	21252
887.648	21268
887.773	21226
887.897	21523
888.021	21321
888.146	21252
888.27	21397
888.395	21355
888.519	21294
888.643	21435
888.767	21325
888.891	21207
889.015	21058
889.139	21260
889.263	21268
889.387	21260
889.511	21351
889.635	21233
889.759	21173
889.883	20948
890.006	21165
890.13	21184
890.254	20967
890.377	20941
890.501	20815
890.624	20861
890.748	20845
890.871	20686
890.995	20670
891.118	20606
891.241	20720
891.364	20785
891.488	20838
891.611	20682
891.734	20682
891.857	20735
891.98	20651
892.103	20724
892.226	20739
892.349	20568
892.471	20473
892.594	20552
892.717	20629
892.839	20522
892.962	20594
893.085	20549
893.207	20564
893.33	20339
893.452	20450
893.575	20507
893.697	20598
893.819	20689
893.941	20674
894.064	20594
894.186	20419
894.308	20434
894.43	20590
894.552	20682
894.674	20670
894.796	20396
894.918	20503
895.04	20552
895.161	20499
895.283	20613
895.405	20579
895.526	20518
895.648	20537
895.769	20495
895.891	20613
896.012	20621
896.134	20590
896.255	20404
896.376	20575
896.498	20446
896.619	20594
896.74	20415
896.861	20473
896.982	20849
897.103	20986
897.224	20788
897.345	20678
897.466	20655
897.587	20746
897.708	20937
897.828	20788
897.949	20777
898.07	20552
898.19	20568
898.311	20792
898.431	20682
898.552	20693
898.672	20807
898.792	20720
898.913	20686
899.033	20682
899.153	20537
899.273	20389
899.393	20427
899.513	20511
899.633	20480
899.753	20499
899.873	20473
899.993	20446
900.113	20393
900.232	20461
900.352	20358
900.472	20362
900.591	20305
900.711	20309
900.83	20263
900.95	20446
901.069	20301
901.189	20199
901.308	19864
901.427	19715
901.546	19738
901.665	19879
901.784	19830
901.904	19731
902.023	19635
902.141	19403
902.26	19327
902.379	19365
902.498	19388
902.617	19148
902.735	19396
902.854	19251
902.973	19232
903.091	19004
903.21	18966
903.328	19019
903.446	18924
903.565	18916
903.683	18768
903.801	18654
903.919	18795
904.038	18646
904.156	18540
904.274	18688
904.392	18532
904.51	18623
904.627	18544
904.745	18544
904.863	18623
904.981	18483
905.098	18239
905.216	18270
905.334	18353
905.451	18330
905.569	18197
905.686	18277
905.803	18213
905.921	18041
906.038	18114
906.155	18049
906.272	17992
906.389	17923
906.506	17775
906.623	17745
906.74	17729
906.857	17726
906.974	17653
907.091	17745
907.208	17916
907.324	17859
907.441	17695
907.557	17501
907.674	17509
907.79	17478
907.907	17391
908.023	17452
908.139	17551
908.256	17322
908.372	17414
908.488	17261
908.604	17185
908.72	17197
908.836	17212
908.952	17124
909.068	17299
909.184	17307
909.3	17170
909.415	17174
909.531	17132
909.647	16938
909.762	16976
909.878	16862
909.993	16866
910.108	16881
910.224	16774
910.339	16843
910.454	16801
910.57	16721
910.685	16599
910.8	16809
910.915	16866
911.03	16736
911.145	16538
911.259	16474
911.374	16569
911.489	16443
911.604	16432
911.718	16196
911.833	16158
911.947	16204
912.062	15953
912.176	16303
912.291	16219
912.405	16223
912.519	16455
912.633	16306
912.748	16226
912.862	16253
912.976	16150
913.09	15861
913.204	16067
913.318	16071
913.431	16078
913.545	16135
913.659	16067
913.772	15968
913.886	15876
914	15819
914.113	15797
914.226	15972
914.34	15850
914.453	15648
914.566	15865
914.68	15728
914.793	15732
914.906	15622
915.019	15447
915.132	15401
915.245	15306
915.358	15428
915.47	15348
915.583	15389
915.696	15462
915.809	15526
915.921	15591
916.034	15279
916.146	15367
916.259	15416
916.371	15332
916.483	15397
916.595	15245
916.708	15313
916.82	15382
916.932	15230
917.044	15230
917.156	15127
917.268	15173
917.38	15116
917.491	15020
917.603	15081
917.715	15085
917.826	15135
917.938	14979
918.049	15001
918.161	14979
918.272	15108
918.384	15154
918.495	15028
918.606	14872
918.717	14807
918.828	14845
918.939	14895
919.05	14765
919.161	14727
919.272	14693
919.383	14697
919.494	14937
919.604	14948
919.715	14895
919.826	14682
919.936	14697
920.047	14838
920.157	14819
920.267	14963
920.378	14800
920.488	14693
920.598	15017
920.708	15165
920.818	14941
920.928	14994
921.038	15127
921.148	15062
921.258	14724
921.368	14663
921.477	14590
921.587	14549
921.697	14400
921.806	14533
921.916	14370
922.025	14305
922.134	14240
922.244	14206
922.353	14229
922.462	14065
922.571	13963
922.68	13852
922.789	13887
922.898	13811
923.007	13845
923.116	13841
923.224	13780
923.333	13761
923.442	13643
923.55	13620
923.659	13772
923.767	13670
923.876	13594
923.984	13704
924.092	13586
924.201	13597
924.309	13582
924.417	13525
924.525	13559
924.633	13491
924.741	14442
924.849	13247
924.956	13438
925.064	13324
925.172	13217
925.279	13194
925.387	13327
925.494	13118
925.602	13407
925.709	13244
925.816	13171
925.924	13156
926.031	13293
926.138	13133
926.245	13190
926.352	13103
926.459	13232
926.566	13236
926.673	13118
926.779	13012
926.886	12962
926.993	12840
927.099	12806
927.206	12791
927.312	12798
927.419	12821
927.525	12867
927.631	12738
927.737	12787
927.843	12692
927.95	12448
928.056	12566
928.162	12719
928.267	12582
928.373	13289
928.479	12684
928.585	12452
928.69	12460
928.796	12593
928.901	12486
929.007	12342
929.112	12433
929.218	12441
929.323	12353
929.428	12338
929.533	12456
929.638	12232
929.743	12262
929.848	12308
929.953	12266
930.058	12148
930.163	12011
930.267	12053
930.372	12178
930.477	11923
930.581	12186
930.685	12011
930.79	11904
930.894	11927
930.998	11832
931.103	12038
931.207	11680
931.311	11604
931.415	11478
931.519	11288
931.623	11212
