Data from test_V78500241_149.txt Node
Date: Fri Mar 25 15:42:50 CST 2022
User: usil
Spectrometer: V785-0024
Trigger mode: 0
Integration Time (sec): 4.000000E-1
Scans to average: 1
Nonlinearity correction enabled: false
Boxcar width: 0
Storing dark spectrum: false
XAxis mode: Wavelengths
Number of Pixels in Spectrum: 1024
>>>>>Begin Spectral Data<<<<<
801.071	29596
801.214	29303
801.356	29151
801.499	29025
801.641	28976
801.783	29014
801.926	28961
802.068	28961
802.211	28759
802.353	28820
802.496	28698
802.638	28577
802.78	28611
802.923	28717
803.065	28447
803.208	28512
803.35	28577
803.492	28687
803.635	28713
803.777	28580
803.919	28694
804.061	29105
804.204	28611
804.346	28668
804.488	28489
804.63	28573
804.773	28550
804.915	28634
805.057	28622
805.199	28622
805.341	28752
805.483	28706
805.626	28820
805.768	28626
805.91	28828
806.052	28869
806.194	28645
806.336	28953
806.478	28793
806.62	28710
806.762	28930
806.904	28999
807.046	29250
807.188	29174
807.33	29155
807.472	29136
807.614	29140
807.756	29277
807.898	28888
808.04	28866
808.182	28927
808.324	28957
808.465	28965
808.607	29181
808.749	29261
808.891	29425
809.033	29440
809.174	29208
809.316	29345
809.458	29250
809.6	29242
809.741	29349
809.883	29269
810.025	29414
810.166	29353
810.308	29558
810.45	29406
810.591	29402
810.733	29174
810.875	29060
811.016	29235
811.158	29174
811.299	29402
811.441	29463
811.582	29539
811.724	29193
811.865	29261
812.007	29356
812.148	29212
812.29	29379
812.431	29326
812.573	29531
812.714	29615
812.855	29726
812.997	29783
813.138	29969
813.279	29862
813.421	29745
813.562	29794
813.703	29433
813.845	29425
813.986	29159
814.127	29037
814.268	28828
814.41	28862
814.551	28809
814.692	29113
814.833	28869
814.974	28778
815.115	28885
815.256	28839
815.397	28649
815.539	28744
815.68	28721
815.821	28451
815.962	28550
816.103	28634
816.244	28432
816.385	28451
816.526	28344
816.666	28105
816.807	27964
816.948	27884
817.089	28124
817.23	28082
817.371	27991
817.512	28002
817.653	27880
817.793	27972
817.934	28048
818.075	27956
818.216	27941
818.356	27755
818.497	27637
818.638	27576
818.778	27732
818.919	27682
819.06	27823
819.2	27759
819.341	27949
819.481	27930
819.622	28002
819.762	28322
819.903	28223
820.043	27987
820.184	27994
820.324	28002
820.465	28067
820.605	28002
820.746	28002
820.886	27865
821.026	28029
821.167	27907
821.307	28010
821.447	28002
821.588	27793
821.728	27603
821.868	27549
822.008	27397
822.149	27306
822.289	27195
822.429	27116
822.569	27032
822.709	26758
822.849	26815
822.99	26762
823.13	26758
823.27	26864
823.41	26530
823.55	26484
823.69	26556
823.83	26473
823.97	26427
824.11	26457
824.25	26434
824.389	26476
824.529	26438
824.669	26259
824.809	26484
824.949	26400
825.089	26320
825.228	26339
825.368	26202
825.508	26130
825.648	26145
825.787	26172
825.927	26122
826.067	26043
826.206	26103
826.346	26240
826.485	26218
826.625	26142
826.765	26317
826.904	26252
827.044	25974
827.183	25932
827.323	25765
827.462	25917
827.601	25818
827.741	25738
827.88	25734
828.02	25624
828.159	25826
828.298	25906
828.437	25868
828.577	25616
828.716	25887
828.855	25776
828.994	25578
829.134	25487
829.273	25575
829.412	25316
829.551	25495
829.69	25289
829.829	25411
829.968	25597
830.107	25460
830.246	25518
830.385	25293
830.524	25297
830.663	25240
830.802	25084
830.941	25114
831.08	25046
831.219	25042
831.357	25061
831.496	25297
831.635	25034
831.774	24882
831.913	24852
832.051	24814
832.19	24692
832.329	24871
832.467	24757
832.606	24696
832.744	24700
832.883	24620
833.022	24505
833.16	24631
833.299	24608
833.437	24528
833.576	24669
833.714	24623
833.852	24593
833.991	24681
834.129	24726
834.267	24688
834.406	24669
834.544	24661
834.682	24608
834.821	24585
834.959	24730
835.097	24589
835.235	24566
835.373	24658
835.511	24601
835.65	24270
835.788	24490
835.926	24277
836.064	24235
836.202	24201
836.34	24464
836.478	24456
836.615	24521
836.753	24433
836.891	24467
837.029	24308
837.167	24429
837.305	24353
837.443	24285
837.58	24262
837.718	24232
837.856	24220
837.993	24174
838.131	24319
838.269	24095
838.406	24117
838.544	24178
838.681	23927
838.819	23809
838.956	23843
839.094	23703
839.231	23726
839.369	23863
839.506	24007
839.643	23969
839.781	23604
839.918	23543
840.055	23589
840.193	23531
840.33	23581
840.467	23608
840.604	23577
840.742	23882
840.879	23490
841.016	23440
841.153	23410
841.29	23611
841.427	23490
841.564	23478
841.701	23516
841.838	23391
841.975	23318
842.112	23474
842.249	23292
842.385	23273
842.522	23341
842.659	23280
842.796	23315
842.933	23288
843.069	23216
843.206	23121
843.343	23155
843.479	23204
843.616	23193
843.752	23003
843.889	23006
844.025	23200
844.162	22881
844.298	23052
844.435	22812
844.571	22915
844.708	23003
844.844	23006
844.98	23117
845.117	23113
845.253	22797
845.389	22957
845.525	22721
845.661	22778
845.798	22672
845.934	22702
846.07	22615
846.206	22706
846.342	22733
846.478	22607
846.614	22474
846.75	22424
846.886	22409
847.022	22489
847.158	22443
847.294	22523
847.429	22348
847.565	22375
847.701	22577
847.837	22154
847.972	21975
848.108	22188
848.244	22135
848.379	21991
848.515	21994
848.65	21968
848.786	21922
848.921	21987
849.057	22078
849.192	22105
849.328	21937
849.463	21972
849.598	21854
849.734	21797
849.869	21701
850.004	21599
850.14	21629
850.275	21785
850.41	21545
850.545	21538
850.68	21713
850.815	21724
850.95	21618
851.085	21713
851.22	21656
851.355	21648
851.49	21515
851.625	21610
851.76	21641
851.895	21610
852.03	21519
852.165	21622
852.299	21667
852.434	21747
852.569	21652
852.703	21614
852.838	21690
852.973	21732
853.107	21804
853.242	21682
853.376	21386
853.511	21363
853.645	21408
853.78	21549
853.914	21481
854.048	21428
854.183	21450
854.317	21485
854.451	21507
854.585	21523
854.72	21500
854.854	21587
854.988	21458
855.122	21329
855.256	21313
855.39	21397
855.524	21515
855.658	21507
855.792	21408
855.926	21526
856.06	21504
856.194	21644
856.327	21485
856.461	21481
856.595	21260
856.729	21386
856.862	21504
856.996	21466
857.13	21416
857.263	21496
857.397	21462
857.53	21397
857.664	21534
857.797	21439
857.931	21511
858.064	21408
858.197	21515
858.331	21412
858.464	21355
858.597	21226
858.731	21313
858.864	21412
858.997	21386
859.13	21256
859.263	21310
859.396	21462
859.529	21386
859.662	21195
859.795	21287
859.928	21348
860.061	21504
860.194	21496
860.327	21401
860.46	21386
860.592	21557
860.725	21447
860.858	21504
860.99	21340
861.123	21336
861.256	21332
861.388	21306
861.521	21884
861.653	21268
861.786	21264
861.918	21325
862.05	21481
862.183	21393
862.315	21386
862.447	21538
862.58	21370
862.712	21230
862.844	21135
862.976	21195
863.108	21173
863.24	21610
863.372	21074
863.504	21043
863.636	21058
863.768	21131
863.9	21062
864.032	20956
864.164	21024
864.296	20952
864.428	21157
864.559	21180
864.691	21108
864.823	21184
864.954	21013
865.086	20979
865.217	20941
865.349	20845
865.48	20853
865.612	21009
865.743	21100
865.875	21047
866.006	20982
866.137	20914
866.269	21047
866.4	20910
866.531	20891
866.662	20941
866.793	20925
866.924	20853
867.055	21005
867.186	20956
867.317	20842
867.448	20849
867.579	20769
867.71	20819
867.841	20891
867.972	20830
868.103	20845
868.233	20967
868.364	20883
868.495	21047
868.625	21051
868.756	21249
868.886	21043
869.017	21077
869.147	21188
869.278	21252
869.408	21214
869.539	21112
869.669	21165
869.799	21249
869.929	21252
870.06	21233
870.19	21355
870.32	21298
870.45	21462
870.58	21450
870.71	21610
870.84	21583
870.97	21473
871.1	21473
871.23	21739
871.36	21823
871.489	21545
871.619	21705
871.749	21793
871.879	21819
872.008	21819
872.138	21690
872.267	21808
872.397	21549
872.526	21477
872.656	21660
872.785	21488
872.915	21774
873.044	21838
873.173	21713
873.303	21800
873.432	21819
873.561	21770
873.69	21941
873.819	21739
873.948	21804
874.077	21842
874.206	21701
874.335	21694
874.464	21736
874.593	21983
874.722	21956
874.851	22128
874.979	22120
875.108	22105
875.237	21968
875.365	21937
875.494	21949
875.623	22070
875.751	21983
875.88	22044
876.008	22070
876.136	22185
876.265	22485
876.393	22481
876.521	22390
876.65	22432
876.778	22371
876.906	22287
877.034	22295
877.162	22375
877.29	22329
877.418	22333
877.546	22436
877.674	22379
877.802	22424
877.93	22474
878.058	22230
878.185	22249
878.313	22249
878.441	22371
878.568	22215
878.696	22272
878.824	22352
878.951	22424
879.079	22565
879.206	22626
879.333	22527
879.461	22371
879.588	22554
879.715	22557
879.842	22599
879.97	22371
880.097	22090
880.224	22135
880.351	22276
880.478	22150
880.605	22025
880.732	22135
880.859	22341
880.986	22093
881.112	22109
881.239	22021
881.366	21926
881.493	21846
881.619	21682
881.746	21709
881.872	21743
881.999	21759
882.125	21660
882.252	21770
882.378	21732
882.505	21876
882.631	21622
882.757	21538
882.883	21595
883.01	21542
883.136	21424
883.262	21367
883.388	21378
883.514	21492
883.64	21485
883.766	21389
883.892	21165
884.018	21203
884.143	21481
884.269	21511
884.395	21169
884.52	21142
884.646	21066
884.772	21047
884.897	21077
885.023	21077
885.148	21283
885.274	21192
885.399	21252
885.524	21245
885.65	20986
885.775	21043
885.9	21093
886.025	21252
886.15	21104
886.275	21188
886.4	20910
886.525	21039
886.65	20941
886.775	21070
886.9	21077
887.025	21310
887.149	21085
887.274	20800
887.399	20868
887.523	20807
887.648	20872
887.773	20868
887.897	20887
888.021	20960
888.146	20689
888.27	20883
888.395	20929
888.519	20948
888.643	20842
888.767	20746
888.891	20788
889.015	20648
889.139	20606
889.263	20598
889.387	20750
889.511	20819
889.635	20693
889.759	20598
889.883	20549
890.006	20579
890.13	20640
890.254	20549
890.377	20503
890.501	20381
890.624	20347
890.748	20473
890.871	20320
890.995	20176
891.118	20134
891.241	20134
891.364	20199
891.488	20278
891.611	20164
891.734	20103
891.857	20324
891.98	20199
892.103	20122
892.226	20210
892.349	20168
892.471	19970
892.594	20088
892.717	20172
892.839	20134
892.962	20130
893.085	20039
893.207	20096
893.33	20005
893.452	20031
893.575	20195
893.697	20012
893.819	20191
893.941	20282
894.064	20237
894.186	20084
894.308	20035
894.43	20092
894.552	20161
894.674	20210
894.796	20001
894.918	20111
895.04	20065
895.161	20202
895.283	19993
895.405	20039
895.526	20008
895.648	20142
895.769	20043
895.891	20001
896.012	20130
896.134	20096
896.255	19970
896.376	19947
896.498	20214
896.619	20145
896.74	20176
896.861	20240
896.982	20511
897.103	20575
897.224	20450
897.345	20400
897.466	20366
897.587	20282
897.708	20343
897.828	20454
897.949	20275
898.07	20115
898.19	20263
898.311	20377
898.431	20233
898.552	20332
898.672	20446
898.792	20374
898.913	20282
899.033	20138
899.153	20130
899.273	20027
899.393	19963
899.513	20005
899.633	19879
899.753	20050
899.873	20027
899.993	19928
900.113	19928
900.232	19940
900.352	19909
900.472	19830
900.591	19712
900.711	19826
900.83	19685
900.95	19864
901.069	19830
901.189	19662
901.308	19510
901.427	19464
901.546	19350
901.665	19468
901.784	19343
901.904	19221
902.023	19099
902.141	18943
902.26	18966
902.379	18905
902.498	18859
902.617	18871
902.735	18939
902.854	18856
902.973	18863
903.091	18677
903.21	18509
903.328	18623
903.446	18578
903.565	18369
903.683	18357
903.801	18186
903.919	18334
904.038	18262
904.156	18209
904.274	18262
904.392	18098
904.51	18068
904.627	18121
904.745	18224
904.863	18110
904.981	17958
905.098	17851
905.216	17707
905.334	17752
905.451	17878
905.569	17608
905.686	17790
905.803	17790
905.921	17600
906.038	17630
906.155	17600
906.272	17471
906.389	17429
906.506	17318
906.623	17337
906.74	17292
906.857	17060
906.974	17273
907.091	17299
907.208	17395
907.324	17368
907.441	17174
907.557	16980
907.674	17014
907.79	16999
907.907	16858
908.023	16972
908.139	16885
908.256	16930
908.372	16729
908.488	16839
908.604	16653
908.72	16702
908.836	16653
908.952	16668
909.068	16634
909.184	16698
909.3	16599
909.415	16611
909.531	16569
909.647	16424
909.762	16314
909.878	16398
909.993	16432
910.108	16405
910.224	16325
910.339	16348
910.454	16169
910.57	16185
910.685	16109
910.8	16348
910.915	16314
911.03	16284
911.145	15949
911.259	15934
911.374	15915
911.489	15865
911.604	15728
911.718	15705
911.833	15679
911.947	15610
912.062	15587
912.176	15690
912.291	15694
912.405	15755
912.519	15869
912.633	15930
912.748	15690
912.862	15526
912.976	15473
913.09	15363
913.204	15329
913.318	15454
913.431	15656
913.545	15568
913.659	15523
913.772	15458
913.886	15294
914	15367
914.113	15412
914.226	15340
914.34	15291
914.453	15131
914.566	15313
914.68	15169
914.793	15131
914.906	14982
915.019	14960
915.132	14891
915.245	14838
915.358	14895
915.47	14883
915.583	14887
915.696	14998
915.809	14994
915.921	14982
916.034	14777
916.146	14823
916.259	14861
916.371	14864
916.483	14807
916.595	14682
916.708	14765
916.82	14750
916.932	14693
917.044	14663
917.156	14659
917.268	14552
917.38	14556
917.491	14530
917.603	14484
917.715	14568
917.826	14659
917.938	14530
918.049	14351
918.161	14461
918.272	14655
918.384	14674
918.495	14480
918.606	14324
918.717	14244
918.828	14374
918.939	14301
919.05	14233
919.161	14259
919.272	14050
919.383	14164
919.494	14298
919.604	14537
919.715	14278
919.826	14195
919.936	14206
920.047	14305
920.157	14248
920.267	14351
920.378	14233
920.488	14183
920.598	14511
920.708	14469
920.818	14351
920.928	14328
921.038	14511
921.148	14385
921.258	14237
921.368	14039
921.477	14092
921.587	13970
921.697	13879
921.806	14008
921.916	13868
922.025	13696
922.134	13765
922.244	13594
922.353	13658
922.462	13476
922.571	13525
922.68	13190
922.789	13213
922.898	13236
923.007	13228
923.116	13266
923.224	13236
923.333	13202
923.442	13110
923.55	13038
923.659	13179
923.767	13114
923.876	12951
923.984	13114
924.092	12989
924.201	13038
924.309	12989
924.417	12993
924.525	12878
924.633	12901
924.741	13677
924.849	12642
924.956	12882
925.064	12696
925.172	12639
925.279	12688
925.387	12703
925.494	12669
925.602	12795
925.709	12681
925.816	12646
925.924	12635
926.031	12677
926.138	12593
926.245	12703
926.352	12479
926.459	12711
926.566	12669
926.673	12536
926.779	12471
926.886	12525
926.993	12323
927.099	12319
927.206	12205
927.312	12136
927.419	12216
927.525	12197
927.631	12220
927.737	12110
927.843	12110
927.95	12034
928.056	12038
928.162	12140
928.267	12064
928.373	12738
928.479	12182
928.585	11855
928.69	11996
928.796	12030
928.901	11931
929.007	11798
929.112	11874
929.218	11843
929.323	11798
929.428	11783
929.533	11885
929.638	11684
929.743	11756
929.848	11760
929.953	11779
930.058	11703
930.163	11478
930.267	11486
930.372	11630
930.477	11376
930.581	11707
930.685	11535
930.79	11349
930.894	11330
930.998	11353
931.103	11459
931.207	11033
931.311	10995
931.415	10965
931.519	10755
931.623	10797
