Data from test_V78500241_108.txt Node
Date: Fri Mar 25 15:42:33 CST 2022
User: usil
Spectrometer: V785-0024
Trigger mode: 0
Integration Time (sec): 4.000000E-1
Scans to average: 1
Nonlinearity correction enabled: false
Boxcar width: 0
Storing dark spectrum: false
XAxis mode: Wavelengths
Number of Pixels in Spectrum: 1024
>>>>>Begin Spectral Data<<<<<
801.071	29558
801.214	29440
801.356	29147
801.499	29018
801.641	28904
801.783	28797
801.926	29003
802.068	28767
802.211	28835
802.353	28725
802.496	28599
802.638	28542
802.78	28557
802.923	28436
803.065	28603
803.208	28519
803.35	28527
803.492	28637
803.635	28706
803.777	28557
803.919	28698
804.061	29014
804.204	28729
804.346	28500
804.488	28577
804.63	28660
804.773	28466
804.915	28508
805.057	28611
805.199	28599
805.341	28691
805.483	28752
805.626	28778
805.768	28641
805.91	28828
806.052	28771
806.194	28717
806.336	28934
806.478	28736
806.62	28691
806.762	28763
806.904	28991
807.046	29136
807.188	29094
807.33	28999
807.472	29174
807.614	28957
807.756	29041
807.898	28888
808.04	29033
808.182	28896
808.324	28858
808.465	28797
808.607	29208
808.749	29090
808.891	29277
809.033	29311
809.174	29223
809.316	29303
809.458	29254
809.6	29124
809.741	29193
809.883	29239
810.025	29516
810.166	29482
810.308	29379
810.45	29452
810.591	29474
810.733	29292
810.875	29121
811.016	29208
811.158	29132
811.299	29280
811.441	29379
811.582	29277
811.724	29231
811.865	29197
812.007	29231
812.148	29109
812.29	29147
812.431	29395
812.573	29608
812.714	29691
812.855	29687
812.997	29611
813.138	29882
813.279	29851
813.421	29756
813.562	29596
813.703	29490
813.845	29258
813.986	28904
814.127	28892
814.268	28888
814.41	28824
814.551	28626
814.692	28999
814.833	28767
814.974	28801
815.115	28816
815.256	28535
815.397	28645
815.539	28577
815.68	28577
815.821	28497
815.962	28493
816.103	28455
816.244	28287
816.385	28314
816.526	28207
816.666	28101
816.807	27922
816.948	27987
817.089	27903
817.23	27884
817.371	27781
817.512	27945
817.653	27884
817.793	27838
817.934	27903
818.075	27831
818.216	27854
818.356	27804
818.497	27690
818.638	27530
818.778	27583
818.919	27705
819.06	27686
819.2	27660
819.341	27831
819.481	27793
819.622	27926
819.762	28082
819.903	27979
820.043	27972
820.184	27892
820.324	27835
820.465	27956
820.605	27964
820.746	27816
820.886	27618
821.026	27892
821.167	27743
821.307	27781
821.447	27736
821.588	27679
821.728	27378
821.868	27302
822.008	27306
822.149	27336
822.289	27195
822.429	26925
822.569	26849
822.709	26872
822.849	26727
822.99	26571
823.13	26667
823.27	26636
823.41	26453
823.55	26396
823.69	26621
823.83	26537
823.97	26453
824.11	26221
824.25	26221
824.389	26225
824.529	26446
824.669	26183
824.809	26164
824.949	26271
825.089	26275
825.228	26248
825.368	26020
825.508	26024
825.648	26046
825.787	26001
825.927	26126
826.067	26024
826.206	26069
826.346	26130
826.485	26119
826.625	25997
826.765	26024
826.904	25959
827.044	25845
827.183	25791
827.323	25811
827.462	25647
827.601	25639
827.741	25620
827.88	25704
828.02	25628
828.159	25700
828.298	25719
828.437	25708
828.577	25677
828.716	25879
828.855	25571
828.994	25365
829.134	25381
829.273	25400
829.412	25358
829.551	25213
829.69	25381
829.829	25407
829.968	25468
830.107	25350
830.246	25316
830.385	25270
830.524	25308
830.663	24985
830.802	24939
830.941	24863
831.08	24875
831.219	24943
831.357	24924
831.496	25103
831.635	24837
831.774	24639
831.913	24726
832.051	24616
832.19	24730
832.329	24559
832.467	24627
832.606	24429
832.744	24388
832.883	24490
833.022	24483
833.16	24471
833.299	24467
833.437	24566
833.576	24601
833.714	24395
833.852	24582
833.991	24475
834.129	24582
834.267	24601
834.406	24540
834.544	24566
834.682	24380
834.821	24563
834.959	24559
835.097	24266
835.235	24464
835.373	24509
835.511	24376
835.65	24304
835.788	24395
835.926	24186
836.064	23999
836.202	24087
836.34	24319
836.478	24327
836.615	24201
836.753	24289
836.891	24429
837.029	24194
837.167	24277
837.305	24224
837.443	24110
837.58	24171
837.718	24220
837.856	24277
837.993	24045
838.131	24110
838.269	24030
838.406	24049
838.544	23923
838.681	23843
838.819	23813
838.956	23543
839.094	23459
839.231	23509
839.369	23653
839.506	23870
839.643	23794
839.781	23379
839.918	23440
840.055	23414
840.193	23440
840.33	23391
840.467	23474
840.604	23448
840.742	23722
840.879	23239
841.016	23440
841.153	23311
841.29	23433
841.427	23482
841.564	23376
841.701	23318
841.838	23330
841.975	23227
842.112	23079
842.249	23246
842.385	23052
842.522	23448
842.659	23204
842.796	23048
842.933	23166
843.069	23025
843.206	23022
843.343	23044
843.479	23136
843.616	23151
843.752	22850
843.889	22793
844.025	22942
844.162	22698
844.298	22812
844.435	22843
844.571	22683
844.708	22816
844.844	22976
844.98	22873
845.117	22908
845.253	22687
845.389	22645
845.525	22672
845.661	22622
845.798	22478
845.934	22561
846.07	22352
846.206	22561
846.342	22630
846.478	22512
846.614	22306
846.75	22318
846.886	22169
847.022	22386
847.158	22280
847.294	22070
847.429	22234
847.565	22105
847.701	22451
847.837	21945
847.972	21873
848.108	22059
848.244	22040
848.379	21850
848.515	21728
848.65	21819
848.786	21644
848.921	21732
849.057	21846
849.192	21842
849.328	21698
849.463	21705
849.598	21747
849.734	21705
849.869	21622
850.004	21488
850.14	21568
850.275	21534
850.41	21370
850.545	21408
850.68	21477
850.815	21534
850.95	21435
851.085	21747
851.22	21504
851.355	21473
851.49	21477
851.625	21408
851.76	21511
851.895	21367
852.03	21511
852.165	21481
852.299	21485
852.434	21549
852.569	21561
852.703	21466
852.838	21549
852.973	21530
853.107	21610
853.242	21382
853.376	21275
853.511	21207
853.645	21146
853.78	21386
853.914	21420
854.048	21408
854.183	21222
854.317	21199
854.451	21485
854.585	21222
854.72	21241
854.854	21473
854.988	21192
855.122	21268
855.256	21176
855.39	21192
855.524	21302
855.658	21291
855.792	21135
855.926	21218
856.06	21405
856.194	21355
856.327	21298
856.461	21154
856.595	21256
856.729	21222
856.862	21325
856.996	21233
857.13	21146
857.263	21374
857.397	21264
857.53	21188
857.664	21260
857.797	21348
857.931	21428
858.064	21302
858.197	21302
858.331	21123
858.464	21032
858.597	21096
858.731	21085
858.864	21150
858.997	21180
859.13	21104
859.263	21245
859.396	21222
859.529	21173
859.662	21279
859.795	21161
859.928	21211
860.061	21397
860.194	21351
860.327	21233
860.46	21116
860.592	21245
860.725	21344
860.858	21264
860.99	21218
861.123	21100
861.256	20982
861.388	21051
861.521	21720
861.653	20971
861.786	21039
861.918	21058
862.05	21123
862.183	21161
862.315	21241
862.447	21272
862.58	21291
862.712	20929
862.844	20918
862.976	21055
863.108	20994
863.24	21268
863.372	20826
863.504	20914
863.636	20960
863.768	20914
863.9	20891
864.032	20727
864.164	20800
864.296	20941
864.428	20902
864.559	20910
864.691	20861
864.823	20925
864.954	20845
865.086	20792
865.217	20804
865.349	20785
865.48	20731
865.612	20800
865.743	20887
865.875	20834
866.006	20670
866.137	20792
866.269	20876
866.4	20800
866.531	20625
866.662	20648
866.793	20648
866.924	20689
867.055	20758
867.186	20716
867.317	20739
867.448	20518
867.579	20712
867.71	20594
867.841	20625
867.972	20598
868.103	20705
868.233	20735
868.364	20754
868.495	20804
868.625	20834
868.756	20918
868.886	20796
869.017	20887
869.147	20963
869.278	20994
869.408	20941
869.539	20948
869.669	21024
869.799	21032
869.929	21085
870.06	21138
870.19	21222
870.32	21230
870.45	21226
870.58	21298
870.71	21447
870.84	21382
870.97	21428
871.1	21237
871.23	21564
871.36	21466
871.489	21279
871.619	21462
871.749	21500
871.879	21549
872.008	21538
872.138	21564
872.267	21500
872.397	21443
872.526	21298
872.656	21283
872.785	21218
872.915	21485
873.044	21618
873.173	21717
873.303	21583
873.432	21587
873.561	21663
873.69	21686
873.819	21492
873.948	21614
874.077	21492
874.206	21405
874.335	21462
874.464	21663
874.593	21846
874.722	21720
874.851	21903
874.979	21797
875.108	21880
875.237	21762
875.365	21686
875.494	21876
875.623	21926
875.751	21720
875.88	21755
876.008	21892
876.136	22059
876.265	22112
876.393	22249
876.521	22310
876.65	22242
876.778	22177
876.906	22086
877.034	22139
877.162	22109
877.29	22128
877.418	22200
877.546	22124
877.674	22226
877.802	22093
877.93	22048
878.058	22059
878.185	21972
878.313	22166
878.441	22162
878.568	21949
878.696	22173
878.824	22147
878.951	22215
879.079	22284
879.206	22466
879.333	22306
879.461	22166
879.588	22219
879.715	22337
879.842	22337
879.97	22230
880.097	21987
880.224	22021
880.351	21956
880.478	21960
880.605	21876
880.732	21880
880.859	22219
880.986	21987
881.112	21968
881.239	21857
881.366	21641
881.493	21614
881.619	21591
881.746	21583
881.872	21500
881.999	21431
882.125	21500
882.252	21648
882.378	21606
882.505	21561
882.631	21439
882.757	21378
882.883	21291
883.01	21218
883.136	21184
883.262	21176
883.388	21176
883.514	21241
883.64	21294
883.766	21241
883.892	21112
884.018	21188
884.143	21279
884.269	21340
884.395	21028
884.52	20918
884.646	20967
884.772	20868
884.897	20807
885.023	20975
885.148	21028
885.274	21039
885.399	21051
885.524	20982
885.65	20899
885.775	20876
885.9	20826
886.025	20948
886.15	20941
886.275	20861
886.4	20807
886.525	20830
886.65	20845
886.775	20754
886.9	21047
887.025	21100
887.149	20800
887.274	20648
887.399	20655
887.523	20609
887.648	20644
887.773	20541
887.897	20743
888.021	20788
888.146	20606
888.27	20773
888.395	20746
888.519	20670
888.643	20701
888.767	20739
888.891	20499
889.015	20480
889.139	20480
889.263	20404
889.387	20640
889.511	20560
889.635	20533
889.759	20313
889.883	20446
890.006	20374
890.13	20549
890.254	20298
890.377	20442
890.501	20157
890.624	20119
890.748	20214
890.871	19974
890.995	19959
891.118	19959
891.241	20001
891.364	19970
891.488	20161
891.611	19868
891.734	20092
891.857	19982
891.98	20031
892.103	20134
892.226	20008
892.349	20020
892.471	19799
892.594	19898
892.717	19871
892.839	19849
892.962	19963
893.085	20020
893.207	19932
893.33	19746
893.452	19883
893.575	19936
893.697	19936
893.819	20065
893.941	20050
894.064	19978
894.186	19753
894.308	19807
894.43	19890
894.552	20031
894.674	20005
894.796	19681
894.918	19898
895.04	19845
895.161	19978
895.283	19982
895.405	19925
895.526	19890
895.648	19909
895.769	20016
895.891	19894
896.012	20027
896.134	19951
896.255	20046
896.376	19852
896.498	19951
896.619	19898
896.74	19951
896.861	20012
896.982	20225
897.103	20400
897.224	20336
897.345	20290
897.466	20202
897.587	20233
897.708	20381
897.828	20206
897.949	20050
898.07	19997
898.19	20176
898.311	20206
898.431	20027
898.552	20199
898.672	20237
898.792	20161
898.913	20027
899.033	20008
899.153	19894
899.273	19753
899.393	19822
899.513	19696
899.633	19875
899.753	19830
899.873	19723
899.993	19826
900.113	19704
900.232	19822
900.352	19750
900.472	19742
900.591	19594
900.711	19635
900.83	19415
900.95	19616
901.069	19681
901.189	19658
901.308	19335
901.427	19202
901.546	19171
901.665	19236
901.784	19270
901.904	19023
902.023	19061
902.141	18665
902.26	18817
902.379	18776
902.498	18665
902.617	18623
902.735	18802
902.854	18673
902.973	18753
903.091	18422
903.21	18384
903.328	18391
903.446	18281
903.565	18125
903.683	18155
903.801	18106
903.919	18201
904.038	18125
904.156	17912
904.274	18060
904.392	17908
904.51	17866
904.627	17882
904.745	17946
904.863	18007
904.981	17680
905.098	17532
905.216	17554
905.334	17649
905.451	17558
905.569	17619
905.686	17600
905.803	17642
905.921	17341
906.038	17497
906.155	17459
906.272	17307
906.389	17307
906.506	17178
906.623	17067
906.74	17121
906.857	17075
906.974	17079
907.091	17212
907.208	17208
907.324	17159
907.441	16972
907.557	16889
907.674	16774
907.79	16831
907.907	16790
908.023	16771
908.139	16771
908.256	16774
908.372	16649
908.488	16622
908.604	16611
908.72	16512
908.836	16531
908.952	16535
909.068	16546
909.184	16546
909.3	16462
909.415	16409
909.531	16440
909.647	16181
909.762	16109
909.878	16139
909.993	16246
910.108	16158
910.224	16086
910.339	16143
910.454	16207
910.57	15937
910.685	15979
910.8	16181
910.915	16131
911.03	15941
911.145	15766
911.259	15816
911.374	15747
911.489	15739
911.604	15701
911.718	15652
911.833	15606
911.947	15393
912.062	15401
912.176	15496
912.291	15545
912.405	15549
912.519	15728
912.633	15663
912.748	15530
912.862	15469
912.976	15325
913.09	15310
913.204	15195
913.318	15348
913.431	15431
913.545	15370
913.659	15397
913.772	15294
913.886	15127
914	15154
914.113	15272
914.226	15222
914.34	15199
914.453	15062
914.566	15180
914.68	15020
914.793	15062
914.906	14830
915.019	14800
915.132	14754
915.245	14773
915.358	14773
915.47	14735
915.583	14720
915.696	14826
915.809	14868
915.921	14819
916.034	14739
916.146	14606
916.259	14625
916.371	14697
916.483	14689
916.595	14610
916.708	14575
916.82	14568
916.932	14552
917.044	14511
917.156	14488
917.268	14423
917.38	14385
917.491	14503
917.603	14454
917.715	14434
917.826	14526
917.938	14336
918.049	14317
918.161	14358
918.272	14408
918.384	14484
918.495	14366
918.606	14180
918.717	14134
918.828	14202
918.939	14225
919.05	14100
919.161	14092
919.272	13883
919.383	13963
919.494	14286
919.604	14320
919.715	14134
919.826	14035
919.936	14054
920.047	14153
920.157	14092
920.267	14275
920.378	14103
920.488	14024
920.598	14240
920.708	14465
920.818	14199
920.928	14092
921.038	14343
921.148	14267
921.258	14039
921.368	14001
921.477	13871
921.587	13761
921.697	13738
921.806	13818
921.916	13658
922.025	13552
922.134	13518
922.244	13464
922.353	13540
922.462	13403
922.571	13228
922.68	13107
922.789	13099
922.898	13126
923.007	13069
923.116	13110
923.224	13084
923.333	12981
923.442	12958
923.55	12958
923.659	12977
923.767	12989
923.876	12890
923.984	12871
924.092	12829
924.201	12852
924.309	12852
924.417	12886
924.525	12814
924.633	12772
924.741	13548
924.849	12597
924.956	12757
925.064	12642
925.172	12521
925.279	12589
925.387	12525
925.494	12574
925.602	12760
925.709	12589
925.816	12452
925.924	12479
926.031	12593
926.138	12391
926.245	12506
926.352	12388
926.459	12563
926.566	12646
926.673	12429
926.779	12292
926.886	12239
926.993	12232
927.099	12182
927.206	12045
927.312	12155
927.419	12102
927.525	12087
927.631	12163
927.737	11999
927.843	11992
927.95	11794
928.056	11961
928.162	11885
928.267	11996
928.373	12616
928.479	11996
928.585	11824
928.69	11885
928.796	11863
928.901	11828
929.007	11615
929.112	11866
929.218	11798
929.323	11661
929.428	11710
929.533	11840
929.638	11516
929.743	11592
929.848	11688
929.953	11558
930.058	11482
930.163	11368
930.267	11398
930.372	11493
930.477	11330
930.581	11524
930.685	11322
930.79	11292
930.894	11303
930.998	11254
931.103	11326
931.207	10949
931.311	10930
931.415	10816
931.519	10615
931.623	10558
