Data from test_V78500241_2761.txt Node
Date: Fri Mar 25 16:00:55 CST 2022
User: usil
Spectrometer: V785-0024
Trigger mode: 0
Integration Time (sec): 4.000000E-1
Scans to average: 1
Nonlinearity correction enabled: false
Boxcar width: 0
Storing dark spectrum: false
XAxis mode: Wavelengths
Number of Pixels in Spectrum: 1024
>>>>>Begin Spectral Data<<<<<
801.071	28839
801.214	28839
801.356	28778
801.499	28596
801.641	28485
801.783	28276
801.926	28500
802.068	28265
802.211	28405
802.353	28276
802.496	28120
802.638	28059
802.78	28055
802.923	28070
803.065	27983
803.208	28131
803.35	28230
803.492	28257
803.635	28352
803.777	28185
803.919	28371
804.061	28755
804.204	28398
804.346	28356
804.488	28348
804.63	28363
804.773	28207
804.915	28417
805.057	28542
805.199	28303
805.341	28405
805.483	28421
805.626	28573
805.768	28413
805.91	28493
806.052	28577
806.194	28436
806.336	28786
806.478	28577
806.62	28580
806.762	28713
806.904	28877
807.046	28961
807.188	29056
807.33	29048
807.472	29018
807.614	28904
807.756	28957
807.898	28778
808.04	28687
808.182	28896
808.324	28748
808.465	28812
808.607	29208
808.749	29124
808.891	29368
809.033	29512
809.174	29315
809.316	29185
809.458	29231
809.6	29250
809.741	29429
809.883	29322
810.025	29467
810.166	29292
810.308	29630
810.45	29649
810.591	29410
810.733	29296
810.875	29258
811.016	29185
811.158	29102
811.299	29433
811.441	29372
811.582	29463
811.724	29124
811.865	29166
812.007	29094
812.148	29383
812.29	29155
812.431	29356
812.573	29661
812.714	29745
812.855	29779
812.997	29859
813.138	29901
813.279	29961
813.421	29699
813.562	29767
813.703	29608
813.845	29512
813.986	29216
814.127	29086
814.268	28972
814.41	28972
814.551	28877
814.692	29014
814.833	28927
814.974	28866
815.115	28885
815.256	28888
815.397	28957
815.539	28820
815.68	28843
815.821	28748
815.962	28740
816.103	28809
816.244	28634
816.385	28405
816.526	28577
816.666	28348
816.807	28329
816.948	28253
817.089	28337
817.23	28386
817.371	28185
817.512	28322
817.653	28181
817.793	28200
817.934	28299
818.075	28215
818.216	28299
818.356	28280
818.497	28097
818.638	27987
818.778	27949
818.919	28082
819.06	28101
819.2	28101
819.341	28223
819.481	28284
819.622	28462
819.762	28668
819.903	28527
820.043	28405
820.184	28443
820.324	28371
820.465	28451
820.605	28470
820.746	28398
820.886	28261
821.026	28405
821.167	28379
821.307	28318
821.447	28249
821.588	28280
821.728	28185
821.868	27895
822.008	27732
822.149	27850
822.289	27743
822.429	27618
822.569	27519
822.709	27481
822.849	27165
822.99	27321
823.13	27325
823.27	27287
823.41	27096
823.55	27138
823.69	27032
823.83	27237
823.97	26914
824.11	26933
824.25	26975
824.389	26952
824.529	27039
824.669	26910
824.809	27096
824.949	27093
825.089	27089
825.228	26914
825.368	26659
825.508	26701
825.648	26853
825.787	26864
825.927	27028
826.067	26868
826.206	26739
826.346	26925
826.485	26952
826.625	26929
826.765	26838
826.904	26743
827.044	26632
827.183	26579
827.323	26469
827.462	26705
827.601	26457
827.741	26507
827.88	26648
828.02	26541
828.159	26484
828.298	26568
828.437	26701
828.577	26366
828.716	26476
828.855	26476
828.994	26115
829.134	26271
829.273	26374
829.412	26180
829.551	26115
829.69	26199
829.829	26237
829.968	26370
830.107	26195
830.246	26191
830.385	26221
830.524	26122
830.663	26084
830.802	25974
830.941	25803
831.08	25704
831.219	25822
831.357	25951
831.496	26046
831.635	25734
831.774	25883
831.913	25734
832.051	25582
832.19	25674
832.329	25658
832.467	25567
832.606	25430
832.744	25479
832.883	25434
833.022	25457
833.16	25422
833.299	25514
833.437	25525
833.576	25582
833.714	25563
833.852	25662
833.991	25647
834.129	25666
834.267	25609
834.406	25476
834.544	25525
834.682	25502
834.821	25479
834.959	25723
835.097	25472
835.235	25567
835.373	25632
835.511	25521
835.65	25358
835.788	25365
835.926	25373
836.064	25122
836.202	25209
836.34	25411
836.478	25499
836.615	25381
836.753	25297
836.891	25396
837.029	25358
837.167	25209
837.305	25190
837.443	25194
837.58	25285
837.718	25339
837.856	25236
837.993	25129
838.131	25255
838.269	24985
838.406	25129
838.544	24859
838.681	24825
838.819	24863
838.956	24642
839.094	24669
839.231	24665
839.369	24844
839.506	25053
839.643	24954
839.781	24692
839.918	24585
840.055	24654
840.193	24639
840.33	24532
840.467	24616
840.604	24559
840.742	24878
840.879	24365
841.016	24460
841.153	24566
841.29	24753
841.427	24525
841.564	24642
841.701	24502
841.838	24566
841.975	24330
842.112	24422
842.249	24388
842.385	24330
842.522	24464
842.659	24384
842.796	24380
842.933	24346
843.069	24281
843.206	24247
843.343	24346
843.479	24395
843.616	24289
843.752	24167
843.889	24155
844.025	24148
844.162	23999
844.298	24311
844.435	24121
844.571	24182
844.708	24098
844.844	24308
844.98	24258
845.117	24216
845.253	24022
845.389	23901
845.525	23935
845.661	23984
845.798	23783
845.934	23836
846.07	23836
846.206	23843
846.342	23958
846.478	23779
846.614	23707
846.75	23436
846.886	23509
847.022	23726
847.158	23634
847.294	23619
847.429	23585
847.565	23486
847.701	23821
847.837	23429
847.972	23220
848.108	23265
848.244	23452
848.379	23113
848.515	23124
848.65	23136
848.786	23181
848.921	23200
849.057	23376
849.192	23189
849.328	23204
849.463	23094
849.598	23181
849.734	22968
849.869	23014
850.004	22911
850.14	22923
850.275	22812
850.41	22828
850.545	22786
850.68	22824
850.815	23064
850.95	22965
851.085	23113
851.22	22923
851.355	22995
851.49	22957
851.625	22820
851.76	22854
851.895	22904
852.03	22790
852.165	22995
852.299	23033
852.434	23033
852.569	22885
852.703	22896
852.838	22961
852.973	23048
853.107	22972
853.242	22744
853.376	22736
853.511	22653
853.645	22767
853.78	22877
853.914	22713
854.048	22816
854.183	22698
854.317	22812
854.451	23018
854.585	22729
854.72	22752
854.854	22896
854.988	22790
855.122	22668
855.256	22729
855.39	22710
855.524	22877
855.658	22752
855.792	22767
855.926	22736
856.06	22713
856.194	22736
856.327	22687
856.461	22607
856.595	22618
856.729	22679
856.862	22660
856.996	22710
857.13	22755
857.263	22866
857.397	22771
857.53	22755
857.664	22873
857.797	22691
857.931	22866
858.064	22687
858.197	22828
858.331	22862
858.464	22607
858.597	22550
858.731	22668
858.864	22569
858.997	22759
859.13	22698
859.263	22630
859.396	22801
859.529	22733
859.662	22675
859.795	22668
859.928	22771
860.061	22850
860.194	22889
860.327	22767
860.46	22736
860.592	22847
860.725	22908
860.858	22740
860.99	22805
861.123	22691
861.256	22599
861.388	22759
861.521	23406
861.653	22603
861.786	22493
861.918	22615
862.05	22580
862.183	22592
862.315	22519
862.447	22691
862.58	22577
862.712	22348
862.844	22478
862.976	22497
863.108	22398
863.24	22877
863.372	22375
863.504	22443
863.636	22428
863.768	22440
863.9	22382
864.032	22379
864.164	22451
864.296	22394
864.428	22573
864.559	22542
864.691	22478
864.823	22352
864.954	22360
865.086	22371
865.217	22394
865.349	22181
865.48	22390
865.612	22268
865.743	22474
865.875	22325
866.006	22325
866.137	22242
866.269	22291
866.4	22200
866.531	22207
866.662	22223
866.793	22276
866.924	22253
867.055	22268
867.186	22219
867.317	22169
867.448	22131
867.579	22211
867.71	22177
867.841	22086
867.972	22173
868.103	22196
868.233	22261
868.364	22234
868.495	22402
868.625	22485
868.756	22611
868.886	22508
869.017	22379
869.147	22607
869.278	22561
869.408	22485
869.539	22363
869.669	22497
869.799	22432
869.929	22599
870.06	22535
870.19	22649
870.32	22721
870.45	22790
870.58	22919
870.71	22919
870.84	22968
870.97	22850
871.1	22740
871.23	23052
871.36	22999
871.489	22984
871.619	23075
871.749	23029
871.879	22999
872.008	23220
872.138	23086
872.267	22915
872.397	22949
872.526	22847
872.656	22911
872.785	22847
872.915	23060
873.044	23098
873.173	23189
873.303	23041
873.432	23143
873.561	23155
873.69	23124
873.819	23010
873.948	23193
874.077	23098
874.206	23003
874.335	23006
874.464	23124
874.593	23239
874.722	23387
874.851	23383
874.979	23334
875.108	23383
875.237	23277
875.365	23147
875.494	23303
875.623	23360
875.751	23326
875.88	23277
876.008	23410
876.136	23345
876.265	23668
876.393	23847
876.521	23733
876.65	23737
876.778	23668
876.906	23695
877.034	23596
877.162	23478
877.29	23516
877.418	23562
877.546	23676
877.674	23558
877.802	23634
877.93	23657
878.058	23623
878.185	23657
878.313	23577
878.441	23516
878.568	23509
878.696	23516
878.824	23684
878.951	23684
879.079	23775
879.206	23847
879.333	23828
879.461	23718
879.588	23718
879.715	23882
879.842	23973
879.97	23646
880.097	23516
880.224	23311
880.351	23501
880.478	23478
880.605	23402
880.732	23433
880.859	23737
880.986	23497
881.112	23520
881.239	23284
881.366	23166
881.493	23143
881.619	22938
881.746	22991
881.872	23041
881.999	23083
882.125	22915
882.252	23044
882.378	22968
882.505	22972
882.631	22835
882.757	22771
882.883	22679
883.01	22710
883.136	22516
883.262	22634
883.388	22474
883.514	22683
883.64	22744
883.766	22523
883.892	22493
884.018	22386
884.143	22611
884.269	22790
884.395	22417
884.52	22306
884.646	22398
884.772	22188
884.897	22166
885.023	22276
885.148	22306
885.274	22421
885.399	22451
885.524	22200
885.65	22272
885.775	22257
885.9	22265
886.025	22341
886.15	22474
886.275	22371
886.4	22204
886.525	22337
886.65	22223
886.775	22295
886.9	22466
887.025	22485
887.149	22265
887.274	22128
887.399	22044
887.523	22105
887.648	22002
887.773	21915
887.897	22234
888.021	22070
888.146	21994
888.27	22238
888.395	22131
888.519	22109
888.643	22048
888.767	22109
888.891	21907
889.015	21831
889.139	21930
889.263	21755
889.387	21918
889.511	22006
889.635	21941
889.759	21899
889.883	21755
890.006	21895
890.13	21804
890.254	21766
890.377	21800
890.501	21701
890.624	21599
890.748	21679
890.871	21351
890.995	21340
891.118	21329
891.241	21355
891.364	21389
891.488	21557
891.611	21469
891.734	21291
891.857	21443
891.98	21382
892.103	21325
892.226	21291
892.349	21332
892.471	21085
892.594	21207
892.717	21310
892.839	21359
892.962	21287
893.085	21397
893.207	21340
893.33	21157
893.452	21154
893.575	21230
893.697	21184
893.819	21367
893.941	21454
894.064	21431
894.186	21188
894.308	21169
894.43	21408
894.552	21405
894.674	21279
894.796	21116
894.918	21222
895.04	21233
895.161	21256
895.283	21340
895.405	21066
895.526	21298
895.648	21176
895.769	21199
895.891	21294
896.012	21222
896.134	21260
896.255	21298
896.376	21104
896.498	21260
896.619	21363
896.74	21298
896.861	21397
896.982	21538
897.103	21675
897.224	21469
897.345	21393
897.466	21382
897.587	21443
897.708	21591
897.828	21447
897.949	21416
898.07	21294
898.19	21291
898.311	21435
898.431	21431
898.552	21447
898.672	21447
898.792	21595
898.913	21412
899.033	21359
899.153	21241
899.273	21173
899.393	21211
899.513	21157
899.633	21116
899.753	21199
899.873	21096
899.993	21188
900.113	21089
900.232	20998
900.352	21081
900.472	20937
900.591	20891
900.711	21020
900.83	20941
900.95	20948
901.069	21062
901.189	20933
901.308	20590
901.427	20434
901.546	20503
901.665	20632
901.784	20507
901.904	20366
902.023	20339
902.141	20161
902.26	20077
902.379	20138
902.498	20024
902.617	19875
902.735	20001
902.854	19974
902.973	19928
903.091	19632
903.21	19544
903.328	19620
903.446	19597
903.565	19556
903.683	19537
903.801	19278
903.919	19362
904.038	19396
904.156	19202
904.274	19259
904.392	19301
904.51	19122
904.627	19221
904.745	19221
904.863	19232
904.981	19141
905.098	18928
905.216	18916
905.334	18973
905.451	18951
905.569	18856
905.686	18951
905.803	18863
905.921	18776
906.038	18764
906.155	18658
906.272	18578
906.389	18627
906.506	18445
906.623	18414
906.74	18380
906.857	18384
906.974	18350
907.091	18452
907.208	18589
907.324	18410
907.441	18296
907.557	18190
907.674	18129
907.79	18076
907.907	18030
908.023	18148
908.139	18140
908.256	18003
908.372	17942
908.488	17988
908.604	17908
908.72	17783
908.836	17901
908.952	17745
909.068	17771
909.184	17885
909.3	17809
909.415	17893
909.531	17809
909.647	17589
909.762	17558
909.878	17509
909.993	17463
910.108	17543
910.224	17520
910.339	17429
910.454	17398
910.57	17254
910.685	17208
910.8	17528
910.915	17402
911.03	17318
911.145	17048
911.259	17033
911.374	17212
911.489	17105
911.604	16930
911.718	16896
911.833	16854
911.947	16782
912.062	16698
912.176	16786
912.291	16816
912.405	16831
912.519	16995
912.633	17121
912.748	16759
912.862	16828
912.976	16634
913.09	16519
913.204	16634
913.318	16615
913.431	16755
913.545	16725
913.659	16786
913.772	16531
913.886	16546
914	16394
914.113	16402
914.226	16508
914.34	16637
914.453	16261
914.566	16405
914.68	16386
914.793	16249
914.906	16063
915.019	16036
915.132	15991
915.245	15937
915.358	16082
915.47	16071
915.583	15968
915.696	16067
915.809	16013
915.921	16040
916.034	15953
916.146	15895
916.259	15934
916.371	16063
916.483	15918
916.595	15964
916.708	15846
916.82	15831
916.932	15838
917.044	15774
917.156	15724
917.268	15591
917.38	15713
917.491	15534
917.603	15614
917.715	15591
917.826	15690
917.938	15614
918.049	15545
918.161	15606
918.272	15663
918.384	15739
918.495	15488
918.606	15359
918.717	15287
918.828	15291
918.939	15389
919.05	15249
919.161	15287
919.272	15195
919.383	15214
919.494	15447
919.604	15534
919.715	15359
919.826	15230
919.936	15397
920.047	15355
920.157	15298
920.267	15534
920.378	15279
920.488	15260
920.598	15435
920.708	15637
920.818	15412
920.928	15374
921.038	15549
921.148	15572
921.258	15275
921.368	15173
921.477	15013
921.587	15009
921.697	14914
921.806	15108
921.916	14937
922.025	14701
922.134	14636
922.244	14686
922.353	14705
922.462	14629
922.571	14465
922.68	14309
922.789	14320
922.898	14332
923.007	14237
923.116	14290
923.224	14252
923.333	14221
923.442	14172
923.55	14164
923.659	14176
923.767	14176
923.876	14088
923.984	14187
924.092	14062
924.201	14062
924.309	13986
924.417	14046
924.525	13868
924.633	13928
924.741	14979
924.849	13738
924.956	13909
925.064	13700
925.172	13666
925.279	13609
925.387	13742
925.494	13670
925.602	13795
925.709	13765
925.816	13544
925.924	13552
926.031	13655
926.138	13624
926.245	13647
926.352	13480
926.459	13666
926.566	13636
926.673	13468
926.779	13457
926.886	13419
926.993	13255
927.099	13240
927.206	13221
927.312	13221
927.419	13278
927.525	13225
927.631	13270
927.737	13129
927.843	13072
927.95	13008
928.056	12993
928.162	13031
928.267	13072
928.373	13601
928.479	13103
928.585	12802
928.69	12996
928.796	12890
928.901	12852
929.007	12700
929.112	12817
929.218	12852
929.323	12734
929.428	12734
929.533	12859
929.638	12578
929.743	12692
929.848	12726
929.953	12612
930.058	12559
930.163	12422
930.267	12410
930.372	12490
930.477	12407
930.581	12589
930.685	12448
930.79	12273
930.894	12342
930.998	12289
931.103	12357
931.207	11980
931.311	11901
931.415	11908
931.519	11638
931.623	11623
