Data from test_V78500241_2838.txt Node
Date: Fri Mar 25 16:01:27 CST 2022
User: usil
Spectrometer: V785-0024
Trigger mode: 0
Integration Time (sec): 4.000000E-1
Scans to average: 1
Nonlinearity correction enabled: false
Boxcar width: 0
Storing dark spectrum: false
XAxis mode: Wavelengths
Number of Pixels in Spectrum: 1024
>>>>>Begin Spectral Data<<<<<
801.071	29204
801.214	29083
801.356	28953
801.499	28885
801.641	28877
801.783	28698
801.926	28717
802.068	28672
802.211	28755
802.353	28725
802.496	28459
802.638	28322
802.78	28375
802.923	28325
803.065	28390
803.208	28352
803.35	28516
803.492	28656
803.635	28634
803.777	28527
803.919	28793
804.061	29075
804.204	28831
804.346	28672
804.488	28713
804.63	28702
804.773	28721
804.915	28694
805.057	28805
805.199	28596
805.341	28733
805.483	28828
805.626	28847
805.768	28725
805.91	28892
806.052	28957
806.194	28831
806.336	28968
806.478	28854
806.62	28843
806.762	29075
806.904	29170
807.046	29341
807.188	29334
807.33	29433
807.472	29406
807.614	29250
807.756	29284
807.898	29151
808.04	29067
808.182	29246
808.324	29208
808.465	29280
808.607	29573
808.749	29661
808.891	29646
809.033	29840
809.174	29619
809.316	29554
809.458	29611
809.6	29551
809.741	29638
809.883	29638
810.025	29988
810.166	29798
810.308	29870
810.45	29703
810.591	29764
810.733	29589
810.875	29611
811.016	29672
811.158	29436
811.299	29703
811.441	29794
811.582	29847
811.724	29703
811.865	29646
812.007	29630
812.148	29695
812.29	29672
812.431	29813
812.573	29999
812.714	30095
812.855	30152
812.997	30315
813.138	30353
813.279	30327
813.421	30243
813.562	30220
813.703	29901
813.845	29832
813.986	29570
814.127	29421
814.268	29425
814.41	29292
814.551	29326
814.692	29554
814.833	29292
814.974	29258
815.115	29288
815.256	29128
815.397	29212
815.539	29166
815.68	29345
815.821	29048
815.962	29197
816.103	29075
816.244	29098
816.385	29086
816.526	29029
816.666	28847
816.807	28569
816.948	28763
817.089	28831
817.23	28683
817.371	28698
817.512	28611
817.653	28672
817.793	28675
817.934	28569
818.075	28721
818.216	28527
818.356	28538
818.497	28649
818.638	28451
818.778	28474
818.919	28451
819.06	28542
819.2	28733
819.341	28793
819.481	28630
819.622	28862
819.762	29022
819.903	29041
820.043	28862
820.184	28858
820.324	28843
820.465	28934
820.605	28797
820.746	28702
820.886	28740
821.026	28881
821.167	28752
821.307	28847
821.447	28774
821.588	28596
821.728	28451
821.868	28204
822.008	28116
822.149	28280
822.289	28124
822.429	27964
822.569	27854
822.709	27827
822.849	27835
822.99	27743
823.13	27576
823.27	27679
823.41	27401
823.55	27507
823.69	27572
823.83	27507
823.97	27450
824.11	27374
824.25	27355
824.389	27237
824.529	27488
824.669	27302
824.809	27462
824.949	27306
825.089	27439
825.228	27310
825.368	27135
825.508	27298
825.648	27272
825.787	27317
825.927	27321
826.067	27100
826.206	27230
826.346	27363
826.485	27150
826.625	27188
826.765	27329
826.904	27222
827.044	26921
827.183	26891
827.323	27047
827.462	27077
827.601	27001
827.741	27001
827.88	27032
828.02	26998
828.159	27112
828.298	27062
828.437	27028
828.577	26967
828.716	26979
828.855	26842
828.994	26636
829.134	26617
829.273	26613
829.412	26594
829.551	26423
829.69	26583
829.829	26777
829.968	26705
830.107	26731
830.246	26617
830.385	26587
830.524	26484
830.663	26522
830.802	26393
830.941	26313
831.08	26400
831.219	26218
831.357	26377
831.496	26355
831.635	26191
831.774	26168
831.913	26199
832.051	26043
832.19	26062
832.329	26016
832.467	26024
832.606	25932
832.744	25951
832.883	25887
833.022	25856
833.16	25864
833.299	25947
833.437	25833
833.576	26065
833.714	25997
833.852	25913
833.991	26107
834.129	26016
834.267	26134
834.406	26024
834.544	25970
834.682	25932
834.821	26046
834.959	26180
835.097	25936
835.235	26008
835.373	25940
835.511	26005
835.65	25887
835.788	25925
835.926	25795
836.064	25613
836.202	25658
836.34	25658
836.478	25887
836.615	25731
836.753	25841
836.891	25875
837.029	25761
837.167	25738
837.305	25803
837.443	25616
837.58	25647
837.718	25635
837.856	25704
837.993	25518
838.131	25609
838.269	25377
838.406	25597
838.544	25438
838.681	25171
838.819	25221
838.956	25038
839.094	24989
839.231	25213
839.369	25156
839.506	25552
839.643	25377
839.781	25088
839.918	25023
840.055	25088
840.193	25080
840.33	25107
840.467	25019
840.604	25042
840.742	25270
840.879	24787
841.016	24981
841.153	24939
841.29	25012
841.427	24970
841.564	24973
841.701	24894
841.838	24890
841.975	24897
842.112	24875
842.249	24859
842.385	24715
842.522	25012
842.659	24749
842.796	24791
842.933	24665
843.069	24825
843.206	24696
843.343	24791
843.479	24730
843.616	24673
843.752	24582
843.889	24566
844.025	24696
844.162	24486
844.298	24471
844.435	24544
844.571	24490
844.708	24456
844.844	24627
844.98	24582
845.117	24654
845.253	24509
845.389	24391
845.525	24376
845.661	24350
845.798	24155
845.934	24475
846.07	24110
846.206	24304
846.342	24296
846.478	24190
846.614	24072
846.75	23980
846.886	23961
847.022	24091
847.158	24030
847.294	24022
847.429	24110
847.565	23980
847.701	24232
847.837	23589
847.972	23596
848.108	23756
848.244	23752
848.379	23577
848.515	23459
848.65	23471
848.786	23642
848.921	23482
849.057	23634
849.192	23619
849.328	23665
849.463	23493
849.598	23436
849.734	23505
849.869	23353
850.004	23277
850.14	23307
850.275	23315
850.41	23242
850.545	23223
850.68	23330
850.815	23280
850.95	23326
851.085	23524
851.22	23341
851.355	23353
851.49	23288
851.625	23383
851.76	23296
851.895	23143
852.03	23204
852.165	23311
852.299	23387
852.434	23326
852.569	23322
852.703	23223
852.838	23337
852.973	23391
853.107	23414
853.242	23212
853.376	22999
853.511	22942
853.645	23140
853.78	23174
853.914	22999
854.048	23079
854.183	23181
854.317	23128
854.451	23368
854.585	23246
854.72	23033
854.854	23102
854.988	23098
855.122	23223
855.256	22946
855.39	23098
855.524	23170
855.658	23178
855.792	23162
855.926	23029
856.06	23166
856.194	23181
856.327	23010
856.461	23052
856.595	23022
856.729	23102
856.862	23018
856.996	23094
857.13	23162
857.263	23277
857.397	23166
857.53	23197
857.664	23193
857.797	23178
857.931	23250
858.064	23208
858.197	23155
858.331	23121
858.464	23185
858.597	23025
858.731	23189
858.864	23010
858.997	23124
859.13	23094
859.263	23044
859.396	23200
859.529	22980
859.662	23105
859.795	23037
859.928	23155
860.061	23258
860.194	23391
860.327	23216
860.46	23052
860.592	23258
860.725	23269
860.858	23208
860.99	23124
861.123	22987
861.256	23014
861.388	23227
861.521	23805
861.653	23014
861.786	23006
861.918	22919
862.05	22930
862.183	23044
862.315	23052
862.447	23121
862.58	23010
862.712	22847
862.844	22828
862.976	22824
863.108	22820
863.24	23185
863.372	22759
863.504	22885
863.636	22877
863.768	22862
863.9	22824
864.032	22767
864.164	22763
864.296	22797
864.428	22869
864.559	22858
864.691	22885
864.823	22816
864.954	22911
865.086	22778
865.217	22687
865.349	22580
865.48	22679
865.612	22618
865.743	22835
865.875	22660
866.006	22653
866.137	22599
866.269	22634
866.4	22748
866.531	22721
866.662	22557
866.793	22649
866.924	22527
867.055	22721
867.186	22645
867.317	22531
867.448	22577
867.579	22546
867.71	22485
867.841	22424
867.972	22725
868.103	22626
868.233	22546
868.364	22713
868.495	22672
868.625	22771
868.756	22972
868.886	22812
869.017	22911
869.147	22869
869.278	22984
869.408	22873
869.539	22786
869.669	22824
869.799	22946
869.929	23025
870.06	22927
870.19	23067
870.32	23098
870.45	23064
870.58	23193
870.71	23265
870.84	23337
870.97	23212
871.1	23246
871.23	23497
871.36	23463
871.489	23322
871.619	23269
871.749	23410
871.879	23387
872.008	23497
872.138	23554
872.267	23345
872.397	23387
872.526	23242
872.656	23421
872.785	23216
872.915	23528
873.044	23608
873.173	23459
873.303	23471
873.432	23562
873.561	23493
873.69	23467
873.819	23322
873.948	23398
874.077	23653
874.206	23433
874.335	23467
874.464	23535
874.593	23547
874.722	23638
874.851	23722
874.979	23691
875.108	23543
875.237	23642
875.365	23543
875.494	23668
875.623	23821
875.751	23680
875.88	23634
876.008	23790
876.136	23912
876.265	24053
876.393	24186
876.521	24155
876.65	24239
876.778	23988
876.906	24148
877.034	23935
877.162	23969
877.29	23882
877.418	24045
877.546	23988
877.674	24022
877.802	24034
877.93	23942
878.058	23946
878.185	23889
878.313	23996
878.441	23927
878.568	23760
878.696	23893
878.824	24152
878.951	24095
879.079	24262
879.206	24251
879.333	24209
879.461	24091
879.588	24057
879.715	24251
879.842	24407
879.97	24098
880.097	23813
880.224	23775
880.351	23870
880.478	23908
880.605	23847
880.732	23923
880.859	23992
880.986	23794
881.112	23805
881.239	23786
881.366	23490
881.493	23471
881.619	23452
881.746	23372
881.872	23220
881.999	23410
882.125	23296
882.252	23383
882.378	23322
882.505	23486
882.631	23060
882.757	23029
882.883	23178
883.01	23166
883.136	22919
883.262	22972
883.388	22885
883.514	22995
883.64	22961
883.766	22904
883.892	22774
884.018	22908
884.143	22850
884.269	23064
884.395	22691
884.52	22634
884.646	22847
884.772	22611
884.897	22569
885.023	22664
885.148	22782
885.274	22729
885.399	22774
885.524	22702
885.65	22790
885.775	22634
885.9	22588
886.025	22615
886.15	22767
886.275	22713
886.4	22565
886.525	22691
886.65	22500
886.775	22485
886.9	22702
887.025	22656
887.149	22706
887.274	22421
887.399	22375
887.523	22466
887.648	22386
887.773	22341
887.897	22474
888.021	22481
888.146	22344
888.27	22478
888.395	22443
888.519	22341
888.643	22424
888.767	22409
888.891	22402
889.015	22177
889.139	22272
889.263	22257
889.387	22265
889.511	22489
889.635	22356
889.759	22112
889.883	22169
890.006	22215
890.13	22325
890.254	22147
890.377	22246
890.501	22032
890.624	21854
890.748	21949
890.871	21835
890.995	21606
891.118	21701
891.241	21785
891.364	21736
891.488	21850
891.611	21903
891.734	21656
891.857	21774
891.98	21720
892.103	21686
892.226	21774
892.349	21728
892.471	21511
892.594	21648
892.717	21637
892.839	21682
892.962	21663
893.085	21641
893.207	21622
893.33	21511
893.452	21583
893.575	21587
893.697	21587
893.819	21781
893.941	21747
894.064	21690
894.186	21557
894.308	21591
894.43	21701
894.552	21762
894.674	21698
894.796	21504
894.918	21564
895.04	21553
895.161	21599
895.283	21557
895.405	21595
895.526	21580
895.648	21572
895.769	21576
895.891	21641
896.012	21660
896.134	21576
896.255	21504
896.376	21526
896.498	21622
896.619	21603
896.74	21622
896.861	21660
896.982	21934
897.103	21964
897.224	21774
897.345	21819
897.466	21701
897.587	21892
897.708	21956
897.828	21831
897.949	21717
898.07	21523
898.19	21778
898.311	21857
898.431	21720
898.552	21755
898.672	21861
898.792	21812
898.913	21713
899.033	21583
899.153	21610
899.273	21466
899.393	21564
899.513	21435
899.633	21507
899.753	21583
899.873	21450
899.993	21610
900.113	21500
900.232	21466
900.352	21447
900.472	21313
900.591	21161
900.711	21344
900.83	21169
900.95	21340
901.069	21237
901.189	21119
901.308	20857
901.427	20716
901.546	20773
901.665	20921
901.784	20925
901.904	20712
902.023	20495
902.141	20343
902.26	20309
902.379	20396
902.498	20305
902.617	20183
902.735	20366
902.854	20248
902.973	20229
903.091	20024
903.21	19944
903.328	19936
903.446	19868
903.565	19765
903.683	19784
903.801	19601
903.919	19647
904.038	19616
904.156	19540
904.274	19571
904.392	19510
904.51	19449
904.627	19441
904.745	19575
904.863	19540
904.981	19266
905.098	19194
905.216	19095
905.334	19270
905.451	19126
905.569	19175
905.686	19259
905.803	19034
905.921	18924
906.038	19129
906.155	19012
906.272	18840
906.389	18962
906.506	18791
906.623	18700
906.74	18650
906.857	18589
906.974	18650
907.091	18734
907.208	18711
907.324	18726
907.441	18620
907.557	18395
907.674	18403
907.79	18490
907.907	18315
908.023	18407
908.139	18445
908.256	18315
908.372	18197
908.488	18186
908.604	18140
908.72	18034
908.836	18087
908.952	18068
909.068	18136
909.184	18243
909.3	18083
909.415	18129
909.531	17969
909.647	17798
909.762	17687
909.878	17809
909.993	17764
910.108	17802
910.224	17710
910.339	17836
910.454	17741
910.57	17570
910.685	17562
910.8	17878
910.915	17691
911.03	17543
911.145	17471
911.259	17425
911.374	17406
911.489	17330
911.604	17223
911.718	17090
911.833	17105
911.947	16999
912.062	17010
912.176	17197
912.291	17204
912.405	17029
912.519	17254
912.633	17307
912.748	17098
912.862	17025
912.976	16927
913.09	16782
913.204	16889
913.318	16938
913.431	17048
913.545	16957
913.659	17060
913.772	17014
913.886	16698
914	16755
914.113	16793
914.226	16900
914.34	16755
914.453	16611
914.566	16793
914.68	16577
914.793	16504
914.906	16272
915.019	16322
915.132	16143
915.245	16268
915.358	16280
915.47	16242
915.583	16246
915.696	16226
915.809	16508
915.921	16459
916.034	16196
916.146	16116
916.259	16147
916.371	16196
916.483	16147
916.595	16017
916.708	15975
916.82	16067
916.932	16010
917.044	15972
917.156	16017
917.268	15937
917.38	15937
917.491	15739
917.603	15907
917.715	15956
917.826	15911
917.938	15728
918.049	15739
918.161	15827
918.272	15922
918.384	15934
918.495	15797
918.606	15705
918.717	15568
918.828	15644
918.939	15686
919.05	15519
919.161	15591
919.272	15317
919.383	15397
919.494	15561
919.604	15679
919.715	15599
919.826	15458
919.936	15473
920.047	15641
920.157	15496
920.267	15778
920.378	15485
920.488	15469
920.598	15633
920.708	15755
920.818	15618
920.928	15755
921.038	15880
921.148	15793
921.258	15492
921.368	15492
921.477	15214
921.587	15272
921.697	15024
921.806	15237
921.916	15039
922.025	14979
922.134	14842
922.244	14826
922.353	14948
922.462	14823
922.571	14636
922.68	14541
922.789	14552
922.898	14640
923.007	14484
923.116	14617
923.224	14571
923.333	14457
923.442	14385
923.55	14423
923.659	14336
923.767	14492
923.876	14305
923.984	14362
924.092	14278
924.201	14286
924.309	14244
924.417	14301
924.525	14214
924.633	14107
924.741	15161
924.849	13951
924.956	14039
925.064	13970
925.172	13887
925.279	13799
925.387	13986
925.494	13883
925.602	13970
925.709	13902
925.816	13753
925.924	13814
926.031	13925
926.138	13868
926.245	13890
926.352	13696
926.459	13871
926.566	13841
926.673	13742
926.779	13655
926.886	13601
926.993	13426
927.099	13381
927.206	13320
927.312	13419
927.419	13460
927.525	13312
927.631	13457
927.737	13308
927.843	13274
927.95	13187
928.056	13164
928.162	13221
928.267	13282
928.373	13753
928.479	13358
928.585	13031
928.69	13171
928.796	13251
928.901	13088
929.007	12806
929.112	13084
929.218	13061
929.323	13034
929.428	12947
929.533	13046
929.638	12806
929.743	12920
929.848	12856
929.953	12882
930.058	12722
930.163	12540
930.267	12669
930.372	12722
930.477	12585
930.581	12760
930.685	12646
930.79	12441
930.894	12471
930.998	12460
931.103	12604
931.207	12136
931.311	12114
931.415	12022
931.519	11764
931.623	11794
