Data from test_V78500241_3460.txt Node
Date: Fri Mar 25 16:05:46 CST 2022
User: usil
Spectrometer: V785-0024
Trigger mode: 0
Integration Time (sec): 4.000000E-1
Scans to average: 1
Nonlinearity correction enabled: false
Boxcar width: 0
Storing dark spectrum: false
XAxis mode: Wavelengths
Number of Pixels in Spectrum: 1024
>>>>>Begin Spectral Data<<<<<
801.071	28930
801.214	28805
801.356	28603
801.499	28592
801.641	28443
801.783	28371
801.926	28531
802.068	28542
802.211	28360
802.353	28428
802.496	28234
802.638	28040
802.78	28200
802.923	28109
803.065	27949
803.208	28147
803.35	28181
803.492	28207
803.635	28333
803.777	28303
803.919	28325
804.061	28790
804.204	28451
804.346	28424
804.488	28405
804.63	28272
804.773	28124
804.915	28360
805.057	28519
805.199	28314
805.341	28550
805.483	28573
805.626	28538
805.768	28394
805.91	28645
806.052	28470
806.194	28531
806.336	28599
806.478	28519
806.62	28596
806.762	28637
806.904	28862
807.046	29010
807.188	28961
807.33	28866
807.472	29079
807.614	28923
807.756	29018
807.898	28885
808.04	28869
808.182	28812
808.324	28843
808.465	28850
808.607	29098
808.749	29239
808.891	29322
809.033	29356
809.174	29242
809.316	29143
809.458	29318
809.6	29299
809.741	29429
809.883	29497
810.025	29444
810.166	29699
810.308	29509
810.45	29512
810.591	29375
810.733	29280
810.875	29311
811.016	29200
811.158	29166
811.299	29395
811.441	29391
811.582	29668
811.724	29277
811.865	29280
812.007	29250
812.148	29360
812.29	29250
812.431	29551
812.573	29684
812.714	29745
812.855	29767
812.997	29988
813.138	30049
813.279	29889
813.421	29840
813.562	29718
813.703	29775
813.845	29349
813.986	29242
814.127	29056
814.268	29098
814.41	29117
814.551	28904
814.692	29079
814.833	28927
814.974	28927
815.115	28953
815.256	28850
815.397	28915
815.539	28866
815.68	28793
815.821	28805
815.962	28828
816.103	28824
816.244	28702
816.385	28523
816.526	28485
816.666	28242
816.807	28234
816.948	28440
817.089	28329
817.23	28234
817.371	28306
817.512	28348
817.653	28268
817.793	28242
817.934	28348
818.075	28344
818.216	28177
818.356	28421
818.497	28169
818.638	27998
818.778	28086
818.919	28112
819.06	28086
819.2	28150
819.341	28401
819.481	28299
819.622	28584
819.762	28641
819.903	28538
820.043	28428
820.184	28398
820.324	28356
820.465	28523
820.605	28500
820.746	28333
820.886	28306
821.026	28348
821.167	28352
821.307	28478
821.447	28424
821.588	28150
821.728	27987
821.868	28029
822.008	27895
822.149	27804
822.289	27728
822.429	27424
822.569	27462
822.709	27496
822.849	27233
822.99	27374
823.13	27321
823.27	27272
823.41	27100
823.55	27093
823.69	27039
823.83	27017
823.97	27039
824.11	27001
824.25	26975
824.389	27020
824.529	27074
824.669	27020
824.809	27058
824.949	26948
825.089	26994
825.228	26990
825.368	26781
825.508	26746
825.648	26746
825.787	26895
825.927	26887
826.067	26845
826.206	26967
826.346	26887
826.485	26975
826.625	26743
826.765	26750
826.904	26906
827.044	26613
827.183	26686
827.323	26545
827.462	26590
827.601	26575
827.741	26636
827.88	26511
828.02	26450
828.159	26469
828.298	26484
828.437	26541
828.577	26476
828.716	26663
828.855	26537
828.994	26290
829.134	26237
829.273	26157
829.412	26119
829.551	26183
829.69	26229
829.829	26202
829.968	26248
830.107	26396
830.246	26119
830.385	26153
830.524	26107
830.663	26024
830.802	25993
830.941	25849
831.08	25845
831.219	25856
831.357	26001
831.496	26050
831.635	25757
831.774	25670
831.913	25685
832.051	25689
832.19	25609
832.329	25685
832.467	25445
832.606	25388
832.744	25601
832.883	25457
833.022	25445
833.16	25502
833.299	25594
833.437	25518
833.576	25529
833.714	25624
833.852	25582
833.991	25594
834.129	25761
834.267	25620
834.406	25479
834.544	25655
834.682	25670
834.821	25590
834.959	25776
835.097	25510
835.235	25666
835.373	25499
835.511	25609
835.65	25468
835.788	25472
835.926	25251
836.064	25263
836.202	25278
836.34	25483
836.478	25434
836.615	25263
836.753	25312
836.891	25369
837.029	25495
837.167	25476
837.305	25236
837.443	25194
837.58	25190
837.718	25354
837.856	25168
837.993	25187
838.131	25198
838.269	25031
838.406	25171
838.544	25015
838.681	24913
838.819	24875
838.956	24646
839.094	24623
839.231	24798
839.369	24817
839.506	25122
839.643	24958
839.781	24734
839.918	24525
840.055	24498
840.193	24601
840.33	24597
840.467	24585
840.604	24661
840.742	24958
840.879	24475
841.016	24551
841.153	24593
841.29	24536
841.427	24467
841.564	24639
841.701	24684
841.838	24616
841.975	24407
842.112	24429
842.249	24376
842.385	24319
842.522	24479
842.659	24395
842.796	24205
842.933	24308
843.069	24323
843.206	24190
843.343	24441
843.479	24300
843.616	24315
843.752	24144
843.889	24174
844.025	24296
844.162	24140
844.298	24247
844.435	24163
844.571	24091
844.708	24205
844.844	24216
844.98	24258
845.117	24213
845.253	23942
845.389	23920
845.525	24110
845.661	24087
845.798	23870
845.934	24003
846.07	23878
846.206	23882
846.342	23912
846.478	23821
846.614	23623
846.75	23520
846.886	23630
847.022	23562
847.158	23592
847.294	23600
847.429	23630
847.565	23543
847.701	23817
847.837	23227
847.972	23223
848.108	23490
848.244	23372
848.379	23235
848.515	23181
848.65	23140
848.786	23223
848.921	23098
849.057	23299
849.192	23212
849.328	23166
849.463	23098
849.598	23174
849.734	22980
849.869	22953
850.004	22972
850.14	22930
850.275	22942
850.41	22892
850.545	22801
850.68	22965
850.815	22934
850.95	22790
851.085	23166
851.22	22957
851.355	22995
851.49	22995
851.625	22934
851.76	22866
851.895	23022
852.03	22858
852.165	22991
852.299	22984
852.434	22949
852.569	22957
852.703	23022
852.838	22984
852.973	23033
853.107	22881
853.242	22755
853.376	22801
853.511	22596
853.645	22710
853.78	22869
853.914	22877
854.048	22710
854.183	22809
854.317	22919
854.451	22908
854.585	22694
854.72	22778
854.854	22862
854.988	22725
855.122	22786
855.256	22630
855.39	22771
855.524	22923
855.658	22831
855.792	22904
855.926	22866
856.06	22854
856.194	22961
856.327	22710
856.461	22710
856.595	22645
856.729	22820
856.862	22824
856.996	22755
857.13	22847
857.263	22820
857.397	22759
857.53	22744
857.664	22740
857.797	22778
857.931	22927
858.064	22862
858.197	22748
858.331	22767
858.464	22679
858.597	22809
858.731	22771
858.864	22672
858.997	22805
859.13	22809
859.263	22752
859.396	22809
859.529	22801
859.662	22858
859.795	22702
859.928	22774
860.061	22927
860.194	22896
860.327	22809
860.46	22793
860.592	23090
860.725	22976
860.858	22858
860.99	22820
861.123	22702
861.256	22656
861.388	22793
861.521	23467
861.653	22672
861.786	22535
861.918	22599
862.05	22672
862.183	22675
862.315	22675
862.447	22752
862.58	22710
862.712	22554
862.844	22451
862.976	22508
863.108	22561
863.24	22812
863.372	22451
863.504	22417
863.636	22390
863.768	22352
863.9	22596
864.032	22432
864.164	22466
864.296	22424
864.428	22565
864.559	22504
864.691	22459
864.823	22527
864.954	22413
865.086	22413
865.217	22394
865.349	22257
865.48	22360
865.612	22386
865.743	22440
865.875	22390
866.006	22375
866.137	22234
866.269	22367
866.4	22207
866.531	22287
866.662	22226
866.793	22219
866.924	22310
867.055	22314
867.186	22196
867.317	22185
867.448	22086
867.579	22204
867.71	22124
867.841	22280
867.972	22363
868.103	22242
868.233	22341
868.364	22276
868.495	22379
868.625	22455
868.756	22599
868.886	22409
869.017	22485
869.147	22561
869.278	22603
869.408	22455
869.539	22481
869.669	22653
869.799	22523
869.929	22603
870.06	22615
870.19	22797
870.32	22774
870.45	22801
870.58	22911
870.71	22980
870.84	22980
870.97	22980
871.1	22839
871.23	23189
871.36	23162
871.489	23010
871.619	23037
871.749	23079
871.879	23105
872.008	23178
872.138	23075
872.267	22972
872.397	23064
872.526	22957
872.656	23037
872.785	22923
872.915	23193
873.044	23189
873.173	23018
873.303	23200
873.432	23143
873.561	23220
873.69	23231
873.819	23193
873.948	23174
874.077	23067
874.206	23094
874.335	23079
874.464	23254
874.593	23395
874.722	23189
874.851	23307
874.979	23376
875.108	23372
875.237	23356
875.365	23250
875.494	23261
875.623	23535
875.751	23303
875.88	23261
876.008	23379
876.136	23577
876.265	23748
876.393	23965
876.521	23779
876.65	23916
876.778	23703
876.906	23748
877.034	23710
877.162	23668
877.29	23615
877.418	23707
877.546	23634
877.674	23707
877.802	23710
877.93	23646
878.058	23726
878.185	23501
878.313	23642
878.441	23554
878.568	23512
878.696	23589
878.824	23745
878.951	23748
879.079	23855
879.206	23870
879.333	23843
879.461	23737
879.588	23737
879.715	23786
879.842	23889
879.97	23752
880.097	23547
880.224	23566
880.351	23566
880.478	23589
880.605	23543
880.732	23497
880.859	23703
880.986	23551
881.112	23414
881.239	23417
881.366	23235
881.493	23143
881.619	23094
881.746	23136
881.872	23155
881.999	23064
882.125	22961
882.252	23079
882.378	22961
882.505	23151
882.631	22953
882.757	22740
882.883	22828
883.01	22904
883.136	22653
883.262	22573
883.388	22721
883.514	22759
883.64	22771
883.766	22618
883.892	22417
884.018	22470
884.143	22607
884.269	22831
884.395	22466
884.52	22341
884.646	22382
884.772	22169
884.897	22196
885.023	22436
885.148	22474
885.274	22512
885.399	22478
885.524	22337
885.65	22341
885.775	22348
885.9	22272
886.025	22516
886.15	22508
886.275	22348
886.4	22147
886.525	22200
886.65	22158
886.775	22219
886.9	22493
887.025	22508
887.149	22432
887.274	22101
887.399	22055
887.523	22021
887.648	22158
887.773	22002
887.897	22219
888.021	22230
888.146	21983
888.27	22029
888.395	22135
888.519	22207
888.643	22082
888.767	22154
888.891	21953
889.015	21979
889.139	21861
889.263	21880
889.387	21823
889.511	22226
889.635	22097
889.759	21930
889.883	21911
890.006	21911
890.13	21956
890.254	21915
890.377	21804
890.501	21553
890.624	21496
890.748	21705
890.871	21462
890.995	21325
891.118	21485
891.241	21443
891.364	21500
891.488	21572
891.611	21504
891.734	21443
891.857	21488
891.98	21397
892.103	21557
892.226	21435
892.349	21389
892.471	21287
892.594	21401
892.717	21469
892.839	21241
892.962	21329
893.085	21523
893.207	21310
893.33	21203
893.452	21233
893.575	21355
893.697	21272
893.819	21485
893.941	21469
894.064	21374
894.186	21249
894.308	21207
894.43	21481
894.552	21428
894.674	21386
894.796	21272
894.918	21291
895.04	21351
895.161	21340
895.283	21428
895.405	21135
895.526	21291
895.648	21313
895.769	21245
895.891	21416
896.012	21405
896.134	21393
896.255	21351
896.376	21302
896.498	21298
896.619	21374
896.74	21283
896.861	21473
896.982	21686
897.103	21671
897.224	21587
897.345	21466
897.466	21370
897.587	21580
897.708	21656
897.828	21519
897.949	21485
898.07	21313
898.19	21378
898.311	21610
898.431	21477
898.552	21511
898.672	21485
898.792	21458
898.913	21542
899.033	21378
899.153	21268
899.273	21233
899.393	21214
899.513	21237
899.633	21260
899.753	21230
899.873	21233
899.993	21249
900.113	21104
900.232	21241
900.352	21123
900.472	21123
900.591	20944
900.711	20910
900.83	21020
900.95	21077
901.069	21108
901.189	20811
901.308	20670
901.427	20480
901.546	20530
901.665	20651
901.784	20461
901.904	20351
902.023	20412
902.141	20149
902.26	20157
902.379	20206
902.498	20035
902.617	19940
902.735	19978
902.854	19940
902.973	19993
903.091	19696
903.21	19651
903.328	19750
903.446	19487
903.565	19472
903.683	19575
903.801	19426
903.919	19327
904.038	19529
904.156	19350
904.274	19419
904.392	19255
904.51	19251
904.627	19240
904.745	19324
904.863	19343
904.981	19107
905.098	18920
905.216	18962
905.334	19114
905.451	18993
905.569	18924
905.686	18871
905.803	18878
905.921	18730
906.038	18802
906.155	18627
906.272	18593
906.389	18597
906.506	18467
906.623	18452
906.74	18441
906.857	18213
906.974	18357
907.091	18414
907.208	18471
907.324	18486
907.441	18327
907.557	18232
907.674	18133
907.79	18091
907.907	18167
908.023	18163
908.139	18167
908.256	18155
908.372	18007
908.488	17992
908.604	17939
908.72	17870
908.836	17794
908.952	17923
909.068	17855
909.184	17908
909.3	17882
909.415	17809
909.531	17904
909.647	17543
909.762	17509
909.878	17653
909.993	17474
910.108	17551
910.224	17440
910.339	17608
910.454	17524
910.57	17315
910.685	17292
910.8	17532
910.915	17566
911.03	17299
911.145	17235
911.259	17086
911.374	17193
911.489	16991
911.604	16949
911.718	16889
911.833	16923
911.947	16793
912.062	16740
912.176	16820
912.291	16835
912.405	16797
912.519	17052
912.633	16946
912.748	16923
912.862	16797
912.976	16687
913.09	16527
913.204	16592
913.318	16736
913.431	16790
913.545	16702
913.659	16733
913.772	16672
913.886	16592
914	16504
914.113	16531
914.226	16554
914.34	16500
914.453	16371
914.566	16481
914.68	16219
914.793	16268
914.906	16223
915.019	16105
915.132	15998
915.245	16109
915.358	16074
915.47	16071
915.583	16067
915.696	16044
915.809	16131
915.921	16143
916.034	15937
916.146	15956
916.259	15918
916.371	15892
916.483	16013
916.595	15865
916.708	15823
916.82	15937
916.932	15831
917.044	15732
917.156	15724
917.268	15667
917.38	15739
917.491	15675
917.603	15584
917.715	15751
917.826	15694
917.938	15637
918.049	15469
918.161	15557
918.272	15720
918.384	15766
918.495	15564
918.606	15511
918.717	15313
918.828	15401
918.939	15462
919.05	15306
919.161	15268
919.272	15100
919.383	15184
919.494	15389
919.604	15538
919.715	15325
919.826	15313
919.936	15416
920.047	15332
920.157	15226
920.267	15450
920.378	15378
920.488	15359
920.598	15572
920.708	15648
920.818	15424
920.928	15542
921.038	15549
921.148	15538
921.258	15245
921.368	15150
921.477	15043
921.587	15062
921.697	14986
921.806	15081
921.916	14895
922.025	14815
922.134	14674
922.244	14594
922.353	14701
922.462	14594
922.571	14473
922.68	14374
922.789	14385
922.898	14298
923.007	14256
923.116	14362
923.224	14328
923.333	14237
923.442	14153
923.55	14161
923.659	14149
923.767	14130
923.876	14103
923.984	14107
924.092	13947
924.201	14065
924.309	14027
924.417	14081
924.525	14001
924.633	14035
924.741	14838
924.849	13769
924.956	13864
925.064	13685
925.172	13666
925.279	13727
925.387	13738
925.494	13708
925.602	13818
925.709	13651
925.816	13590
925.924	13647
926.031	13704
926.138	13571
926.245	13662
926.352	13616
926.459	13712
926.566	13715
926.673	13525
926.779	13480
926.886	13419
926.993	13293
927.099	13278
927.206	13240
927.312	13183
927.419	13285
927.525	13175
927.631	13297
927.737	13076
927.843	13038
927.95	12951
928.056	13095
928.162	13095
928.267	13046
928.373	13734
928.479	13065
928.585	12837
928.69	13031
928.796	13042
928.901	12939
929.007	12802
929.112	12909
929.218	12863
929.323	12867
929.428	12833
929.533	12901
929.638	12673
929.743	12722
929.848	12665
929.953	12753
930.058	12563
930.163	12391
930.267	12448
930.372	12620
930.477	12300
930.581	12593
930.685	12471
930.79	12338
930.894	12384
930.998	12220
931.103	12338
931.207	12175
931.311	11973
931.415	11836
931.519	11630
931.623	11630
