Data from test_V78500241_2122.txt Node
Date: Fri Mar 25 15:56:30 CST 2022
User: usil
Spectrometer: V785-0024
Trigger mode: 0
Integration Time (sec): 4.000000E-1
Scans to average: 1
Nonlinearity correction enabled: false
Boxcar width: 0
Storing dark spectrum: false
XAxis mode: Wavelengths
Number of Pixels in Spectrum: 1024
>>>>>Begin Spectral Data<<<<<
801.071	28972
801.214	28854
801.356	28771
801.499	28497
801.641	28478
801.783	28398
801.926	28584
802.068	28500
802.211	28413
802.353	28386
802.496	28223
802.638	28242
802.78	28238
802.923	28105
803.065	28112
803.208	28112
803.35	28173
803.492	28268
803.635	28367
803.777	28280
803.919	28466
804.061	28744
804.204	28546
804.346	28375
804.488	28299
804.63	28436
804.773	28344
804.915	28474
805.057	28508
805.199	28443
805.341	28622
805.483	28656
805.626	28584
805.768	28493
805.91	28637
806.052	28641
806.194	28550
806.336	28976
806.478	28599
806.62	28748
806.762	28721
806.904	28934
807.046	29052
807.188	29048
807.33	29052
807.472	29200
807.614	28946
807.756	29086
807.898	28900
808.04	28881
808.182	28961
808.324	28862
808.465	28923
808.607	29250
808.749	29277
808.891	29383
809.033	29627
809.174	29493
809.316	29356
809.458	29353
809.6	29140
809.741	29524
809.883	29547
810.025	29551
810.166	29653
810.308	29634
810.45	29562
810.591	29482
810.733	29452
810.875	29299
811.016	29128
811.158	29311
811.299	29212
811.441	29543
811.582	29482
811.724	29452
811.865	29379
812.007	29311
812.148	29284
812.29	29509
812.431	29478
812.573	29589
812.714	29687
812.855	29931
812.997	29897
813.138	29973
813.279	29847
813.421	29882
813.562	29733
813.703	29802
813.845	29501
813.986	29288
814.127	29124
814.268	28961
814.41	28965
814.551	29132
814.692	29155
814.833	28968
814.974	28908
815.115	29010
815.256	28843
815.397	29014
815.539	29052
815.68	28805
815.821	28729
815.962	28858
816.103	28717
816.244	28656
816.385	28713
816.526	28622
816.666	28493
816.807	28272
816.948	28356
817.089	28356
817.23	28436
817.371	28398
817.512	28356
817.653	28485
817.793	28230
817.934	28272
818.075	28375
818.216	28379
818.356	28409
818.497	28219
818.638	28158
818.778	28105
818.919	28196
819.06	28147
819.2	28344
819.341	28337
819.481	28337
819.622	28550
819.762	28752
819.903	28649
820.043	28573
820.184	28577
820.324	28550
820.465	28573
820.605	28379
820.746	28664
820.886	28337
821.026	28451
821.167	28386
821.307	28481
821.447	28401
821.588	28310
821.728	28192
821.868	27987
822.008	27945
822.149	27739
822.289	27892
822.429	27595
822.569	27500
822.709	27477
822.849	27397
822.99	27397
823.13	27351
823.27	27378
823.41	27218
823.55	27100
823.69	27313
823.83	27241
823.97	27150
824.11	26994
824.25	26895
824.389	26990
824.529	27188
824.669	26963
824.809	27135
824.949	27062
825.089	27131
825.228	27123
825.368	26815
825.508	26796
825.648	26940
825.787	27062
825.927	27081
826.067	26914
826.206	27036
826.346	26902
826.485	26864
826.625	26815
826.765	26940
826.904	26929
827.044	26712
827.183	26834
827.323	26549
827.462	26632
827.601	26701
827.741	26587
827.88	26632
828.02	26507
828.159	26674
828.298	26537
828.437	26693
828.577	26473
828.716	26655
828.855	26408
828.994	26225
829.134	26328
829.273	26298
829.412	26195
829.551	26358
829.69	26530
829.829	26370
829.968	26461
830.107	26370
830.246	26313
830.385	26343
830.524	26263
830.663	26043
830.802	26050
830.941	25955
831.08	25890
831.219	26168
831.357	25944
831.496	26100
831.635	25970
831.774	25746
831.913	25902
832.051	25639
832.19	25658
832.329	25780
832.467	25635
832.606	25518
832.744	25559
832.883	25537
833.022	25438
833.16	25597
833.299	25639
833.437	25616
833.576	25677
833.714	25696
833.852	25647
833.991	25795
834.129	25879
834.267	25803
834.406	25746
834.544	25757
834.682	25723
834.821	25624
834.959	25868
835.097	25445
835.235	25833
835.373	25567
835.511	25639
835.65	25628
835.788	25514
835.926	25278
836.064	25297
836.202	25293
836.34	25544
836.478	25662
836.615	25381
836.753	25483
836.891	25506
837.029	25529
837.167	25419
837.305	25441
837.443	25354
837.58	25289
837.718	25464
837.856	25343
837.993	25282
838.131	25339
838.269	25080
838.406	25202
838.544	25099
838.681	25023
838.819	24886
838.956	24875
839.094	24703
839.231	24848
839.369	24935
839.506	25053
839.643	25095
839.781	24719
839.918	24677
840.055	24768
840.193	24722
840.33	24760
840.467	24776
840.604	24692
840.742	24939
840.879	24551
841.016	24627
841.153	24589
841.29	24722
841.427	24635
841.564	24757
841.701	24665
841.838	24525
841.975	24627
842.112	24665
842.249	24376
842.385	24433
842.522	24768
842.659	24521
842.796	24494
842.933	24384
843.069	24342
843.206	24483
843.343	24399
843.479	24460
843.616	24467
843.752	24117
843.889	24361
844.025	24342
844.162	24197
844.298	24163
844.435	24270
844.571	24194
844.708	24388
844.844	24380
844.98	24300
845.117	24342
845.253	24144
845.389	24110
845.525	23988
845.661	24136
845.798	23874
845.934	24034
846.07	23923
846.206	24018
846.342	23999
846.478	23973
846.614	23760
846.75	23558
846.886	23608
847.022	23741
847.158	23760
847.294	23714
847.429	23638
847.565	23726
847.701	23885
847.837	23425
847.972	23391
848.108	23524
848.244	23566
848.379	23212
848.515	23273
848.65	23220
848.786	23151
848.921	23258
849.057	23273
849.192	23261
849.328	23307
849.463	23258
849.598	23197
849.734	23178
849.869	23140
850.004	22953
850.14	22968
850.275	23098
850.41	22968
850.545	22881
850.68	22858
850.815	23155
850.95	23067
851.085	23128
851.22	23185
851.355	22904
851.49	23052
851.625	22968
851.76	23052
851.895	22946
852.03	22869
852.165	23010
852.299	23018
852.434	23022
852.569	23014
852.703	22927
852.838	23052
852.973	23037
853.107	23128
853.242	23044
853.376	22748
853.511	22725
853.645	22835
853.78	22885
853.914	22816
854.048	22778
854.183	22763
854.317	22885
854.451	23006
854.585	22900
854.72	22873
854.854	22908
854.988	22774
855.122	22790
855.256	22740
855.39	22649
855.524	22949
855.658	22946
855.792	22748
855.926	22938
856.06	22805
856.194	22930
856.327	22847
856.461	22831
856.595	22759
856.729	22778
856.862	22908
856.996	22987
857.13	22889
857.263	22995
857.397	22904
857.53	22892
857.664	22744
857.797	22809
857.931	22976
858.064	22866
858.197	22824
858.331	22790
858.464	22790
858.597	22721
858.731	22843
858.864	22771
858.997	22831
859.13	22653
859.263	22782
859.396	22877
859.529	22900
859.662	22790
859.795	22694
859.928	22862
860.061	22927
860.194	22995
860.327	22908
860.46	22736
860.592	22877
860.725	23048
860.858	22987
860.99	22862
861.123	22771
861.256	22744
861.388	22816
861.521	23505
861.653	22774
861.786	22584
861.918	22672
862.05	22763
862.183	22736
862.315	22767
862.447	22812
862.58	22824
862.712	22599
862.844	22584
862.976	22641
863.108	22573
863.24	22923
863.372	22443
863.504	22580
863.636	22550
863.768	22500
863.9	22645
864.032	22493
864.164	22360
864.296	22459
864.428	22740
864.559	22618
864.691	22599
864.823	22474
864.954	22554
865.086	22497
865.217	22375
865.349	22318
865.48	22348
865.612	22371
865.743	22535
865.875	22470
866.006	22386
866.137	22436
866.269	22409
866.4	22421
866.531	22310
866.662	22417
866.793	22219
866.924	22375
867.055	22303
867.186	22390
867.317	22173
867.448	22154
867.579	22360
867.71	22234
867.841	22246
867.972	22382
868.103	22360
868.233	22337
868.364	22295
868.495	22527
868.625	22516
868.756	22744
868.886	22474
869.017	22519
869.147	22615
869.278	22679
869.408	22634
869.539	22569
869.669	22538
869.799	22535
869.929	22519
870.06	22618
870.19	22759
870.32	22778
870.45	22938
870.58	22984
870.71	22999
870.84	23109
870.97	22987
871.1	22896
871.23	23143
871.36	23212
871.489	23014
871.619	23052
871.749	23079
871.879	23372
872.008	23174
872.138	23117
872.267	23181
872.397	22984
872.526	22923
872.656	22965
872.785	22881
872.915	23181
873.044	23147
873.173	23170
873.303	23246
873.432	23159
873.561	23258
873.69	23242
873.819	23143
873.948	23208
874.077	23273
874.206	23064
874.335	23250
874.464	23299
874.593	23387
874.722	23360
874.851	23414
874.979	23379
875.108	23318
875.237	23265
875.365	23227
875.494	23288
875.623	23429
875.751	23277
875.88	23360
876.008	23417
876.136	23509
876.265	23771
876.393	23935
876.521	23775
876.65	23893
876.778	23786
876.906	23634
877.034	23608
877.162	23653
877.29	23581
877.418	23798
877.546	23737
877.674	23760
877.802	23745
877.93	23619
878.058	23665
878.185	23490
878.313	23680
878.441	23646
878.568	23623
878.696	23634
878.824	23748
878.951	23836
879.079	23821
879.206	23988
879.333	23767
879.461	23699
879.588	23794
879.715	23786
879.842	23946
879.97	23882
880.097	23509
880.224	23570
880.351	23566
880.478	23573
880.605	23490
880.732	23455
880.859	23756
880.986	23455
881.112	23490
881.239	23250
881.366	23345
881.493	23124
881.619	23121
881.746	23041
881.872	23113
881.999	23124
882.125	23018
882.252	23056
882.378	23124
882.505	23083
882.631	22889
882.757	22809
882.883	22797
883.01	22877
883.136	22713
883.262	22634
883.388	22622
883.514	22706
883.64	22706
883.766	22649
883.892	22481
884.018	22542
884.143	22706
884.269	22790
884.395	22390
884.52	22436
884.646	22363
884.772	22287
884.897	22253
885.023	22440
885.148	22421
885.274	22447
885.399	22413
885.524	22322
885.65	22424
885.775	22394
885.9	22360
886.025	22443
886.15	22451
886.275	22371
886.4	22310
886.525	22455
886.65	22299
886.775	22223
886.9	22432
887.025	22546
887.149	22344
887.274	22147
887.399	22215
887.523	22150
887.648	22002
887.773	21930
887.897	22154
888.021	22185
888.146	22116
888.27	22329
888.395	22257
888.519	22032
888.643	22242
888.767	22135
888.891	21994
889.015	21983
889.139	21979
889.263	21915
889.387	22055
889.511	22116
889.635	22048
889.759	21861
889.883	21895
890.006	21899
890.13	22036
890.254	21850
890.377	21816
890.501	21625
890.624	21709
890.748	21663
890.871	21526
890.995	21450
891.118	21408
891.241	21386
891.364	21557
891.488	21534
891.611	21481
891.734	21386
891.857	21511
891.98	21439
892.103	21572
892.226	21447
892.349	21367
892.471	21272
892.594	21386
892.717	21374
892.839	21332
892.962	21264
893.085	21439
893.207	21393
893.33	21207
893.452	21176
893.575	21348
893.697	21317
893.819	21526
893.941	21618
894.064	21469
894.186	21252
894.308	21249
894.43	21393
894.552	21553
894.674	21420
894.796	21313
894.918	21104
895.04	21222
895.161	21405
895.283	21302
895.405	21340
895.526	21306
895.648	21226
895.769	21389
895.891	21389
896.012	21351
896.134	21283
896.255	21363
896.376	21397
896.498	21367
896.619	21351
896.74	21348
896.861	21294
896.982	21618
897.103	21686
897.224	21603
897.345	21538
897.466	21443
897.587	21595
897.708	21553
897.828	21595
897.949	21515
898.07	21329
898.19	21435
898.311	21511
898.431	21507
898.552	21599
898.672	21625
898.792	21564
898.913	21530
899.033	21439
899.153	21207
899.273	21211
899.393	21306
899.513	21317
899.633	21283
899.753	21302
899.873	21329
899.993	21203
900.113	21150
900.232	21199
900.352	21218
900.472	21184
900.591	20960
900.711	21020
900.83	21039
900.95	21131
901.069	21184
901.189	20883
901.308	20777
901.427	20454
901.546	20492
901.665	20495
901.784	20644
901.904	20434
902.023	20404
902.141	20096
902.26	20126
902.379	20134
902.498	20043
902.617	20065
902.735	19963
902.854	20008
902.973	20035
903.091	19826
903.21	19727
903.328	19700
903.446	19738
903.565	19556
903.683	19518
903.801	19464
903.919	19567
904.038	19499
904.156	19285
904.274	19282
904.392	19187
904.51	19126
904.627	19266
904.745	19274
904.863	19392
904.981	19198
905.098	18958
905.216	18966
905.334	19114
905.451	19000
905.569	18909
905.686	18943
905.803	18890
905.921	18787
906.038	18909
906.155	18738
906.272	18654
906.389	18646
906.506	18475
906.623	18399
906.74	18422
906.857	18471
906.974	18410
907.091	18544
907.208	18604
907.324	18460
907.441	18391
907.557	18357
907.674	18327
907.79	18083
907.907	18136
908.023	18292
908.139	18251
908.256	18140
908.372	18178
908.488	18038
908.604	17904
908.72	17824
908.836	17969
908.952	17863
909.068	17897
909.184	17996
909.3	17920
909.415	17954
909.531	17965
909.647	17684
909.762	17592
909.878	17718
909.993	17623
910.108	17649
910.224	17497
910.339	17562
910.454	17444
910.57	17402
910.685	17474
910.8	17604
910.915	17627
911.03	17433
911.145	17242
911.259	17147
911.374	17193
911.489	17083
911.604	17067
911.718	16881
911.833	16866
911.947	16942
912.062	16740
912.176	16961
912.291	16896
912.405	16869
912.519	17227
912.633	17155
912.748	16930
912.862	16923
912.976	16702
913.09	16523
913.204	16603
913.318	16755
913.431	16820
913.545	16759
913.659	16877
913.772	16679
913.886	16592
914	16466
914.113	16596
914.226	16523
914.34	16668
914.453	16462
914.566	16580
914.68	16451
914.793	16375
914.906	16265
915.019	16048
915.132	15991
915.245	16192
915.358	16139
915.47	16090
915.583	16112
915.696	16200
915.809	16181
915.921	16109
916.034	16093
916.146	16006
916.259	15983
916.371	16078
916.483	16032
916.595	15953
916.708	15865
916.82	15876
916.932	15827
917.044	15892
917.156	15892
917.268	15739
917.38	15789
917.491	15625
917.603	15728
917.715	15789
917.826	15823
917.938	15671
918.049	15587
918.161	15663
918.272	15785
918.384	15732
918.495	15622
918.606	15534
918.717	15431
918.828	15507
918.939	15481
919.05	15313
919.161	15424
919.272	15146
919.383	15367
919.494	15469
919.604	15584
919.715	15431
919.826	15393
919.936	15378
920.047	15428
920.157	15401
920.267	15568
920.378	15325
920.488	15382
920.598	15496
920.708	15641
920.818	15542
920.928	15458
921.038	15705
921.148	15496
921.258	15291
921.368	15283
921.477	15097
921.587	15165
921.697	14998
921.806	15028
921.916	15017
922.025	14845
922.134	14800
922.244	14731
922.353	14773
922.462	14575
922.571	14575
922.68	14358
922.789	14404
922.898	14343
923.007	14328
923.116	14377
923.224	14343
923.333	14324
923.442	14320
923.55	14176
923.659	14271
923.767	14301
923.876	14134
923.984	14168
924.092	14039
924.201	14039
924.309	14180
924.417	14084
924.525	14054
924.633	14119
924.741	14678
924.849	13826
924.956	13959
925.064	13757
925.172	13689
925.279	13677
925.387	13791
925.494	13727
925.602	13894
925.709	13681
925.816	13662
925.924	13795
926.031	13795
926.138	13791
926.245	13647
926.352	13590
926.459	13632
926.566	13696
926.673	13582
926.779	13445
926.886	13381
926.993	13362
927.099	13335
927.206	13213
927.312	13266
927.419	13350
927.525	13320
927.631	13270
927.737	13122
927.843	13133
927.95	12970
928.056	13057
928.162	13110
928.267	13107
928.373	13769
928.479	13103
928.585	12859
928.69	13023
928.796	13046
928.901	12935
929.007	12867
929.112	12909
929.218	12913
929.323	12825
929.428	12810
929.533	13053
929.638	12711
929.743	12776
929.848	12779
929.953	12779
930.058	12673
930.163	12426
930.267	12494
930.372	12612
930.477	12418
930.581	12658
930.685	12464
930.79	12407
930.894	12342
930.998	12270
931.103	12369
931.207	12136
931.311	12034
931.415	11882
931.519	11672
931.623	11745
