Data from test_V78500241_1438.txt Node
Date: Fri Mar 25 15:51:45 CST 2022
User: usil
Spectrometer: V785-0024
Trigger mode: 0
Integration Time (sec): 4.000000E-1
Scans to average: 1
Nonlinearity correction enabled: false
Boxcar width: 0
Storing dark spectrum: false
XAxis mode: Wavelengths
Number of Pixels in Spectrum: 1024
>>>>>Begin Spectral Data<<<<<
801.071	27842
801.214	27781
801.356	27606
801.499	27545
801.641	27534
801.783	27496
801.926	27431
802.068	27427
802.211	27249
802.353	27249
802.496	27024
802.638	27062
802.78	27028
802.923	26982
803.065	27028
803.208	27093
803.35	26971
803.492	27096
803.635	27249
803.777	27188
803.919	27317
804.061	27564
804.204	27161
804.346	27203
804.488	27218
804.63	27207
804.773	27214
804.915	27325
805.057	27443
805.199	27249
805.341	27321
805.483	27397
805.626	27317
805.768	27214
805.91	27397
806.052	27488
806.194	27389
806.336	27473
806.478	27367
806.62	27344
806.762	27431
806.904	27561
807.046	27816
807.188	27732
807.33	27850
807.472	27975
807.614	27667
807.756	27831
807.898	27671
808.04	27622
808.182	27576
808.324	27705
808.465	27739
808.607	27907
808.749	28082
808.891	28055
809.033	28265
809.174	28101
809.316	28032
809.458	28002
809.6	27869
809.741	28105
809.883	28162
810.025	28181
810.166	28398
810.308	28257
810.45	28299
810.591	28207
810.733	28021
810.875	28173
811.016	27907
811.158	27960
811.299	28044
811.441	28249
811.582	28143
811.724	28021
811.865	27975
812.007	27903
812.148	27922
812.29	28101
812.431	28082
812.573	28314
812.714	28489
812.855	28573
812.997	28691
813.138	28710
813.279	28790
813.421	28531
813.562	28443
813.703	28276
813.845	28162
813.986	27869
814.127	27812
814.268	27808
814.41	27751
814.551	27610
814.692	27797
814.833	27690
814.974	27656
815.115	27728
815.256	27656
815.397	27629
815.539	27523
815.68	27458
815.821	27500
815.962	27564
816.103	27526
816.244	27336
816.385	27313
816.526	27272
816.666	27047
816.807	26853
816.948	27028
817.089	27039
817.23	26986
817.371	26914
817.512	26887
817.653	26994
817.793	26925
817.934	26880
818.075	26998
818.216	26914
818.356	26792
818.497	26960
818.638	26651
818.778	26644
818.919	26594
819.06	26880
819.2	26944
819.341	26925
819.481	26929
819.622	27112
819.762	27367
819.903	27245
820.043	27275
820.184	27127
820.324	26998
820.465	27195
820.605	27043
820.746	27028
820.886	27127
821.026	27036
821.167	26986
821.307	27142
821.447	26994
821.588	26857
821.728	26746
821.868	26701
822.008	26438
822.149	26465
822.289	26522
822.429	26088
822.569	26058
822.709	26119
822.849	25894
822.99	25993
823.13	25864
823.27	25932
823.41	25894
823.55	25597
823.69	25734
823.83	25780
823.97	25734
824.11	25628
824.25	25457
824.389	25674
824.529	25685
824.669	25681
824.809	25632
824.949	25712
825.089	25639
825.228	25586
825.368	25419
825.508	25381
825.648	25407
825.787	25472
825.927	25586
826.067	25430
826.206	25441
826.346	25518
826.485	25655
826.625	25514
826.765	25628
826.904	25403
827.044	25236
827.183	25209
827.323	25236
827.462	25270
827.601	25141
827.741	25190
827.88	25232
828.02	25107
828.159	25110
828.298	25175
828.437	25236
828.577	25099
828.716	25217
828.855	24996
828.994	24924
829.134	24795
829.273	24817
829.412	24810
829.551	24745
829.69	24882
829.829	24829
829.968	24996
830.107	24920
830.246	24863
830.385	24764
830.524	24688
830.663	24661
830.802	24570
830.941	24445
831.08	24426
831.219	24593
831.357	24540
831.496	24601
831.635	24525
831.774	24330
831.913	24330
832.051	24209
832.19	24171
832.329	24232
832.467	24133
832.606	24049
832.744	24068
832.883	24026
833.022	24121
833.16	24155
833.299	24129
833.437	24114
833.576	24258
833.714	24171
833.852	24330
833.991	24213
834.129	24353
834.267	24323
834.406	24167
834.544	24178
834.682	24243
834.821	24053
834.959	24197
835.097	24155
835.235	24273
835.373	24083
835.511	24155
835.65	24007
835.788	24072
835.926	23931
836.064	23855
836.202	23836
836.34	24003
836.478	24117
836.615	24049
836.753	23988
836.891	24114
837.029	23969
837.167	23999
837.305	23954
837.443	23916
837.58	23805
837.718	23939
837.856	23946
837.993	23676
838.131	23794
838.269	23707
838.406	23718
838.544	23703
838.681	23497
838.819	23505
838.956	23391
839.094	23227
839.231	23444
839.369	23592
839.506	23760
839.643	23585
839.781	23220
839.918	23277
840.055	23395
840.193	23273
840.33	23204
840.467	23315
840.604	23185
840.742	23516
840.879	23128
841.016	23303
841.153	23170
841.29	23181
841.427	23200
841.564	23307
841.701	23299
841.838	23128
841.975	23052
842.112	23086
842.249	23060
842.385	22946
842.522	23197
842.659	23109
842.796	22965
842.933	23041
843.069	22930
843.206	22953
843.343	23018
843.479	23006
843.616	22927
843.752	22816
843.889	22744
844.025	22949
844.162	22790
844.298	22820
844.435	22713
844.571	22774
844.708	22767
844.844	22923
844.98	22953
845.117	22839
845.253	22774
845.389	22660
845.525	22683
845.661	22694
845.798	22504
845.934	22519
846.07	22557
846.206	22565
846.342	22508
846.478	22428
846.614	22371
846.75	22215
846.886	22207
847.022	22356
847.158	22246
847.294	22162
847.429	22280
847.565	22287
847.701	22519
847.837	21960
847.972	22070
848.108	21979
848.244	21975
848.379	21850
848.515	21831
848.65	21728
848.786	21934
848.921	21850
849.057	21934
849.192	21827
849.328	21903
849.463	21842
849.598	21762
849.734	21705
849.869	21656
850.004	21633
850.14	21561
850.275	21644
850.41	21492
850.545	21580
850.68	21496
850.815	21568
850.95	21572
851.085	21751
851.22	21606
851.355	21572
851.49	21515
851.625	21515
851.76	21557
851.895	21435
852.03	21408
852.165	21496
852.299	21507
852.434	21732
852.569	21682
852.703	21732
852.838	21690
852.973	21774
853.107	21667
853.242	21492
853.376	21428
853.511	21386
853.645	21268
853.78	21515
853.914	21477
854.048	21363
854.183	21351
854.317	21469
854.451	21717
854.585	21313
854.72	21348
854.854	21401
854.988	21321
855.122	21374
855.256	21188
855.39	21298
855.524	21496
855.658	21496
855.792	21500
855.926	21428
856.06	21477
856.194	21458
856.327	21370
856.461	21317
856.595	21439
856.729	21447
856.862	21576
856.996	21401
857.13	21458
857.263	21500
857.397	21488
857.53	21485
857.664	21519
857.797	21504
857.931	21595
858.064	21500
858.197	21549
858.331	21355
858.464	21332
858.597	21382
858.731	21310
858.864	21401
858.997	21325
859.13	21340
859.263	21332
859.396	21526
859.529	21378
859.662	21500
859.795	21412
859.928	21401
860.061	21599
860.194	21538
860.327	21469
860.46	21405
860.592	21511
860.725	21526
860.858	21568
860.99	21401
861.123	21348
861.256	21370
861.388	21382
861.521	22166
861.653	21298
861.786	21241
861.918	21272
862.05	21340
862.183	21264
862.315	21370
862.447	21329
862.58	21325
862.712	21176
862.844	21077
862.976	21192
863.108	21188
863.24	21564
863.372	21085
863.504	21058
863.636	21081
863.768	21211
863.9	21192
864.032	21024
864.164	21013
864.296	21199
864.428	21207
864.559	21249
864.691	21131
864.823	21077
864.954	21055
865.086	20998
865.217	21085
865.349	21028
865.48	21036
865.612	20861
865.743	21218
865.875	21074
866.006	20929
866.137	21024
866.269	21024
866.4	20944
866.531	20891
866.662	20891
866.793	20960
866.924	20845
867.055	20925
867.186	20868
867.317	20933
867.448	20796
867.579	20895
867.71	20914
867.841	20948
867.972	20975
868.103	20807
868.233	20895
868.364	20876
868.495	21005
868.625	21245
868.756	21218
868.886	21024
869.017	21176
869.147	21287
869.278	21275
869.408	21245
869.539	21161
869.669	21146
869.799	21211
869.929	21332
870.06	21233
870.19	21523
870.32	21389
870.45	21587
870.58	21526
870.71	21717
870.84	21633
870.97	21564
871.1	21774
871.23	21694
871.36	21850
871.489	21835
871.619	21819
871.749	21732
871.879	21762
872.008	21873
872.138	21762
872.267	21770
872.397	21637
872.526	21595
872.656	21705
872.785	21633
872.915	21922
873.044	21865
873.173	21850
873.303	21865
873.432	21846
873.561	22070
873.69	21842
873.819	21895
873.948	22013
874.077	21842
874.206	21880
874.335	21789
874.464	22025
874.593	22059
874.722	21968
874.851	22090
874.979	21979
875.108	22169
875.237	21937
875.365	22002
875.494	22135
875.623	22196
875.751	22040
875.88	22128
876.008	22261
876.136	22333
876.265	22440
876.393	22603
876.521	22523
876.65	22535
876.778	22402
876.906	22360
877.034	22325
877.162	22390
877.29	22466
877.418	22398
877.546	22348
877.674	22382
877.802	22409
877.93	22421
878.058	22352
878.185	22169
878.313	22432
878.441	22421
878.568	22341
878.696	22333
878.824	22489
878.951	22516
879.079	22573
879.206	22729
879.333	22607
879.461	22550
879.588	22417
879.715	22618
879.842	22740
879.97	22500
880.097	22223
880.224	22310
880.351	22268
880.478	22318
880.605	22246
880.732	22356
880.859	22538
880.986	22284
881.112	22154
881.239	22147
881.366	22070
881.493	21953
881.619	21755
881.746	21941
881.872	21797
881.999	21747
882.125	21648
882.252	21861
882.378	21774
882.505	21911
882.631	21595
882.757	21587
882.883	21610
883.01	21682
883.136	21416
883.262	21454
883.388	21302
883.514	21591
883.64	21618
883.766	21496
883.892	21184
884.018	21329
884.143	21469
884.269	21572
884.395	21188
884.52	21138
884.646	21268
884.772	21020
884.897	21085
885.023	21146
885.148	21161
885.274	21287
885.399	21268
885.524	21169
885.65	21085
885.775	21104
885.9	21131
886.025	21336
886.15	21252
886.275	21207
886.4	21032
886.525	21116
886.65	21074
886.775	21005
886.9	21192
887.025	21336
887.149	21154
887.274	20963
887.399	20872
887.523	20967
887.648	20830
887.773	20792
887.897	21074
888.021	20944
888.146	20868
888.27	21051
888.395	20941
888.519	20868
888.643	20819
888.767	20944
888.891	20788
889.015	20648
889.139	20754
889.263	20743
889.387	20861
889.511	21047
889.635	20849
889.759	20842
889.883	20575
890.006	20739
890.13	20769
890.254	20667
890.377	20625
890.501	20469
890.624	20457
890.748	20514
890.871	20339
890.995	20267
891.118	20252
891.241	20313
891.364	20389
891.488	20518
891.611	20191
891.734	20233
891.857	20377
891.98	20290
892.103	20305
892.226	20278
892.349	20142
892.471	20115
892.594	20271
892.717	20259
892.839	20195
892.962	20229
893.085	20221
893.207	20164
893.33	20077
893.452	20027
893.575	20195
893.697	20183
893.819	20370
893.941	20320
894.064	20275
894.186	20225
894.308	20221
894.43	20237
894.552	20244
894.674	20259
894.796	20115
894.918	20206
895.04	20073
895.161	20229
895.283	20275
895.405	20210
895.526	20225
895.648	20161
895.769	20305
895.891	20290
896.012	20202
896.134	20248
896.255	20199
896.376	20221
896.498	20218
896.619	20210
896.74	20157
896.861	20259
896.982	20609
897.103	20667
897.224	20488
897.345	20480
897.466	20320
897.587	20423
897.708	20560
897.828	20492
897.949	20374
898.07	20305
898.19	20275
898.311	20476
898.431	20469
898.552	20476
898.672	20385
898.792	20469
898.913	20469
899.033	20305
899.153	20324
899.273	20138
899.393	20210
899.513	20199
899.633	20153
899.753	20176
899.873	20115
899.993	20100
900.113	20134
900.232	20221
900.352	20138
900.472	19986
900.591	19841
900.711	19860
900.83	19993
900.95	20157
901.069	20054
901.189	19909
901.308	19670
901.427	19575
901.546	19441
901.665	19487
901.784	19388
901.904	19259
902.023	19343
902.141	18943
902.26	19099
902.379	19228
902.498	19038
902.617	19019
902.735	18996
902.854	19046
902.973	18916
903.091	18673
903.21	18673
903.328	18791
903.446	18700
903.565	18441
903.683	18646
903.801	18445
903.919	18445
904.038	18384
904.156	18315
904.274	18395
904.392	18262
904.51	18266
904.627	18243
904.745	18235
904.863	18433
904.981	18038
905.098	17916
905.216	18011
905.334	18079
905.451	17935
905.569	17863
905.686	17942
905.803	17961
905.921	17775
906.038	17855
906.155	17775
906.272	17733
906.389	17680
906.506	17509
906.623	17490
906.74	17512
906.857	17345
906.974	17444
907.091	17512
907.208	17581
907.324	17391
907.441	17417
907.557	17273
907.674	17185
907.79	17025
907.907	17143
908.023	17265
908.139	17265
908.256	17147
908.372	16965
908.488	17067
908.604	16923
908.72	16862
908.836	16942
908.952	16896
909.068	16987
909.184	17045
909.3	16847
909.415	16991
909.531	16949
909.647	16668
909.762	16607
909.878	16569
909.993	16637
910.108	16542
910.224	16569
910.339	16630
910.454	16478
910.57	16428
910.685	16352
910.8	16675
910.915	16592
911.03	16398
911.145	16242
911.259	16166
911.374	16109
911.489	16166
911.604	16078
911.718	15899
911.833	16059
911.947	15876
912.062	15785
912.176	15903
912.291	16006
912.405	15873
912.519	16215
912.633	16226
912.748	16017
912.862	15934
912.976	15766
913.09	15686
913.204	15819
913.318	15759
913.431	15899
913.545	15922
913.659	15854
913.772	15705
913.886	15549
914	15599
914.113	15717
914.226	15739
914.34	15549
914.453	15393
914.566	15606
914.68	15507
914.793	15317
914.906	15230
915.019	15279
915.132	15199
915.245	15123
915.358	15195
915.47	15241
915.583	15131
915.696	15150
915.809	15268
915.921	15176
916.034	15028
916.146	14990
916.259	15051
916.371	15165
916.483	15081
916.595	14994
916.708	14948
916.82	14975
916.932	14921
917.044	14998
917.156	14864
917.268	14727
917.38	14792
917.491	14762
917.603	14815
917.715	14948
917.826	14895
917.938	14769
918.049	14655
918.161	14815
918.272	14883
918.384	14887
918.495	14739
918.606	14613
918.717	14473
918.828	14533
918.939	14568
919.05	14476
919.161	14617
919.272	14351
919.383	14412
919.494	14587
919.604	14758
919.715	14537
919.826	14499
919.936	14484
920.047	14621
920.157	14610
920.267	14674
920.378	14511
920.488	14568
920.598	14682
920.708	14788
920.818	14674
920.928	14735
921.038	14864
921.148	14758
921.258	14488
921.368	14358
921.477	14256
921.587	14256
921.697	14157
921.806	14202
921.916	14069
922.025	14001
922.134	13913
922.244	13890
922.353	13974
922.462	13837
922.571	13674
922.68	13605
922.789	13556
922.898	13655
923.007	13502
923.116	13571
923.224	13601
923.333	13472
923.442	13415
923.55	13346
923.659	13419
923.767	13468
923.876	13297
923.984	13426
924.092	13289
924.201	13331
924.309	13331
924.417	13236
924.525	13171
924.633	13213
924.741	13830
924.849	13038
924.956	13274
925.064	12973
925.172	12954
925.279	13015
925.387	13095
925.494	13027
925.602	13084
925.709	13034
925.816	12871
925.924	12840
926.031	12989
926.138	12958
926.245	12981
926.352	12810
926.459	12951
926.566	12951
926.673	12890
926.779	12768
926.886	12707
926.993	12646
927.099	12445
927.206	12506
927.312	12486
927.419	12608
927.525	12494
927.631	12544
927.737	12448
927.843	12342
927.95	12285
928.056	12369
928.162	12357
928.267	12445
928.373	13072
928.479	12422
928.585	12235
928.69	12372
928.796	12372
928.901	12129
929.007	12095
929.112	12365
929.218	12216
929.323	12133
929.428	12095
929.533	12140
929.638	11961
929.743	12057
929.848	12030
929.953	12072
930.058	11942
930.163	11813
930.267	11813
930.372	11920
930.477	11703
930.581	11958
930.685	11790
930.79	11684
930.894	11764
930.998	11573
931.103	11794
931.207	11463
931.311	11246
931.415	11269
931.519	11056
931.623	11105
