Data from test_V78500241_2440.txt Node
Date: Fri Mar 25 15:58:42 CST 2022
User: usil
Spectrometer: V785-0024
Trigger mode: 0
Integration Time (sec): 4.000000E-1
Scans to average: 1
Nonlinearity correction enabled: false
Boxcar width: 0
Storing dark spectrum: false
XAxis mode: Wavelengths
Number of Pixels in Spectrum: 1024
>>>>>Begin Spectral Data<<<<<
801.071	28790
801.214	28820
801.356	28675
801.499	28622
801.641	28504
801.783	28401
801.926	28497
802.068	28440
802.211	28405
802.353	28265
802.496	28181
802.638	27983
802.78	28025
802.923	28032
803.065	27827
803.208	28002
803.35	28093
803.492	28253
803.635	28322
803.777	28253
803.919	28333
804.061	28694
804.204	28405
804.346	28352
804.488	28246
804.63	28478
804.773	28249
804.915	28386
805.057	28546
805.199	28348
805.341	28382
805.483	28447
805.626	28554
805.768	28322
805.91	28519
806.052	28557
806.194	28459
806.336	28778
806.478	28523
806.62	28401
806.762	28630
806.904	28694
807.046	28965
807.188	28888
807.33	28888
807.472	28984
807.614	28949
807.756	28866
807.898	28968
808.04	28649
808.182	28763
808.324	28854
808.465	28873
808.607	28957
808.749	29159
808.891	29273
809.033	29284
809.174	29231
809.316	29311
809.458	29315
809.6	29102
809.741	29360
809.883	29433
810.025	29615
810.166	29410
810.308	29471
810.45	29345
810.591	29398
810.733	29311
810.875	29254
811.016	29105
811.158	29041
811.299	29239
811.441	29368
811.582	29364
811.724	29216
811.865	29220
812.007	29178
812.148	29231
812.29	29242
812.431	29322
812.573	29608
812.714	29676
812.855	29619
812.997	29805
813.138	29862
813.279	29851
813.421	29737
813.562	29630
813.703	29417
813.845	29433
813.986	29197
814.127	29086
814.268	28900
814.41	29025
814.551	28961
814.692	28904
814.833	28854
814.974	28881
815.115	28763
815.256	28908
815.397	28691
815.539	28866
815.68	28801
815.821	28691
815.962	28706
816.103	28831
816.244	28637
816.385	28550
816.526	28493
816.666	28417
816.807	28299
816.948	28303
817.089	28386
817.23	28276
817.371	28341
817.512	28230
817.653	28109
817.793	28192
817.934	28291
818.075	28234
818.216	28287
818.356	28177
818.497	28154
818.638	28013
818.778	27953
818.919	28013
819.06	28124
819.2	28192
819.341	28230
819.481	28223
819.622	28436
819.762	28603
819.903	28577
820.043	28382
820.184	28371
820.324	28299
820.465	28265
820.605	28356
820.746	28398
820.886	28230
821.026	28394
821.167	28314
821.307	28398
821.447	28276
821.588	28162
821.728	28105
821.868	27869
822.008	27766
822.149	27717
822.289	27743
822.429	27447
822.569	27424
822.709	27332
822.849	27306
822.99	27287
823.13	27169
823.27	27188
823.41	27001
823.55	26956
823.69	27062
823.83	27135
823.97	27028
824.11	26708
824.25	26830
824.389	26944
824.529	27032
824.669	26838
824.809	26933
824.949	27096
825.089	27074
825.228	26940
825.368	26731
825.508	26853
825.648	26731
825.787	26788
825.927	26807
826.067	26674
826.206	26697
826.346	26777
826.485	26758
826.625	26842
826.765	26769
826.904	26967
827.044	26549
827.183	26442
827.323	26355
827.462	26488
827.601	26484
827.741	26514
827.88	26537
828.02	26404
828.159	26514
828.298	26465
828.437	26453
828.577	26492
828.716	26549
828.855	26328
828.994	26271
829.134	26195
829.273	26187
829.412	26183
829.551	26145
829.69	26088
829.829	26206
829.968	26221
830.107	26214
830.246	26069
830.385	26138
830.524	25989
830.663	26077
830.802	25932
830.941	25689
831.08	25883
831.219	25822
831.357	25822
831.496	26088
831.635	25708
831.774	25628
831.913	25647
832.051	25582
832.19	25563
832.329	25548
832.467	25586
832.606	25327
832.744	25331
832.883	25483
833.022	25411
833.16	25476
833.299	25350
833.437	25457
833.576	25502
833.714	25460
833.852	25449
833.991	25491
834.129	25575
834.267	25544
834.406	25643
834.544	25540
834.682	25537
834.821	25518
834.959	25780
835.097	25430
835.235	25377
835.373	25445
835.511	25487
835.65	25251
835.788	25301
835.926	25187
836.064	25217
836.202	25221
836.34	25274
836.478	25411
836.615	25419
836.753	25335
836.891	25373
837.029	25228
837.167	25107
837.305	25187
837.443	25141
837.58	25171
837.718	25236
837.856	25263
837.993	25061
838.131	25118
838.269	25053
838.406	25076
838.544	25000
838.681	24856
838.819	24783
838.956	24692
839.094	24623
839.231	24741
839.369	24886
839.506	25084
839.643	24970
839.781	24623
839.918	24502
840.055	24498
840.193	24498
840.33	24677
840.467	24528
840.604	24517
840.742	24707
840.879	24407
841.016	24422
841.153	24338
841.29	24612
841.427	24654
841.564	24620
841.701	24593
841.838	24456
841.975	24376
842.112	24426
842.249	24399
842.385	24403
842.522	24494
842.659	24376
842.796	24201
842.933	24300
843.069	24167
843.206	24254
843.343	24380
843.479	24205
843.616	24190
843.752	24049
843.889	23920
844.025	24243
844.162	23961
844.298	24133
844.435	23965
844.571	24030
844.708	24064
844.844	24304
844.98	24155
845.117	24079
845.253	23973
845.389	23923
845.525	23973
845.661	23840
845.798	23805
845.934	23745
846.07	23832
846.206	23718
846.342	23908
846.478	23737
846.614	23577
846.75	23444
846.886	23474
847.022	23657
847.158	23535
847.294	23509
847.429	23558
847.565	23448
847.701	23604
847.837	23212
847.972	23178
848.108	23151
848.244	23273
848.379	23162
848.515	23022
848.65	23029
848.786	23003
848.921	23113
849.057	23223
849.192	23151
849.328	23117
849.463	23109
849.598	23048
849.734	22896
849.869	23048
850.004	22949
850.14	22873
850.275	22824
850.41	22637
850.545	22831
850.68	22774
850.815	22908
850.95	22877
851.085	23018
851.22	22908
851.355	22919
851.49	22717
851.625	22824
851.76	22930
851.895	22763
852.03	22774
852.165	22843
852.299	22946
852.434	22980
852.569	22824
852.703	22824
852.838	22801
852.973	23003
853.107	23022
853.242	22778
853.376	22816
853.511	22618
853.645	22687
853.78	22702
853.914	22649
854.048	22679
854.183	22710
854.317	22736
854.451	22831
854.585	22580
854.72	22660
854.854	22809
854.988	22527
855.122	22710
855.256	22637
855.39	22512
855.524	22634
855.658	22713
855.792	22622
855.926	22634
856.06	22713
856.194	22771
856.327	22580
856.461	22603
856.595	22596
856.729	22569
856.862	22782
856.996	22664
857.13	22812
857.263	22694
857.397	22729
857.53	22729
857.664	22748
857.797	22752
857.931	22778
858.064	22748
858.197	22866
858.331	22706
858.464	22634
858.597	22603
858.731	22637
858.864	22580
858.997	22592
859.13	22755
859.263	22687
859.396	22797
859.529	22618
859.662	22603
859.795	22664
859.928	22774
860.061	22744
860.194	22911
860.327	22630
860.46	22656
860.592	22721
860.725	22801
860.858	22713
860.99	22706
861.123	22649
861.256	22736
861.388	22664
861.521	23406
861.653	22554
861.786	22481
861.918	22577
862.05	22443
862.183	22493
862.315	22451
862.447	22603
862.58	22713
862.712	22455
862.844	22443
862.976	22569
863.108	22299
863.24	22694
863.372	22268
863.504	22333
863.636	22386
863.768	22405
863.9	22325
864.032	22272
864.164	22360
864.296	22287
864.428	22455
864.559	22432
864.691	22363
864.823	22382
864.954	22421
865.086	22333
865.217	22249
865.349	22188
865.48	22272
865.612	22249
865.743	22337
865.875	22219
866.006	22386
866.137	22284
866.269	22173
866.4	22207
866.531	22120
866.662	22135
866.793	22169
866.924	22192
867.055	22086
867.186	22253
867.317	22067
867.448	22059
867.579	22223
867.71	22078
867.841	22021
867.972	22200
868.103	22135
868.233	22192
868.364	22169
868.495	22253
868.625	22413
868.756	22527
868.886	22268
869.017	22443
869.147	22565
869.278	22478
869.408	22402
869.539	22367
869.669	22504
869.799	22542
869.929	22569
870.06	22611
870.19	22660
870.32	22767
870.45	22782
870.58	22790
870.71	22946
870.84	22850
870.97	22805
871.1	22889
871.23	22980
871.36	23064
871.489	22980
871.619	22946
871.749	23098
871.879	23075
872.008	23147
872.138	23064
872.267	23113
872.397	22999
872.526	22793
872.656	22839
872.785	22812
872.915	23075
873.044	23132
873.173	23014
873.303	23014
873.432	23124
873.561	23018
873.69	23044
873.819	23121
873.948	23086
874.077	23212
874.206	22908
874.335	23098
874.464	23258
874.593	23284
874.722	23208
874.851	23353
874.979	23345
875.108	23318
875.237	23280
875.365	23132
875.494	23326
875.623	23254
875.751	23216
875.88	23220
876.008	23307
876.136	23303
876.265	23691
876.393	23783
876.521	23745
876.65	23676
876.778	23634
876.906	23543
877.034	23570
877.162	23528
877.29	23478
877.418	23581
877.546	23543
877.674	23535
877.802	23581
877.93	23566
878.058	23486
878.185	23490
878.313	23531
878.441	23547
878.568	23482
878.696	23562
878.824	23577
878.951	23798
879.079	23805
879.206	23802
879.333	23665
879.461	23611
879.588	23657
879.715	23653
879.842	23874
879.97	23665
880.097	23322
880.224	23482
880.351	23547
880.478	23509
880.605	23269
880.732	23315
880.859	23512
880.986	23360
881.112	23463
881.239	23277
881.366	23132
881.493	23071
881.619	23060
881.746	22930
881.872	22938
881.999	22919
882.125	22869
882.252	22908
882.378	23041
882.505	23018
882.631	22634
882.757	22607
882.883	22752
883.01	22706
883.136	22474
883.262	22409
883.388	22489
883.514	22672
883.64	22611
883.766	22573
883.892	22367
884.018	22497
884.143	22554
884.269	22660
884.395	22371
884.52	22234
884.646	22325
884.772	22207
884.897	22162
885.023	22234
885.148	22344
885.274	22474
885.399	22306
885.524	22344
885.65	22314
885.775	22196
885.9	22367
886.025	22360
886.15	22318
886.275	22329
886.4	22143
886.525	22284
886.65	22139
886.775	22207
886.9	22348
887.025	22379
887.149	22124
887.274	22074
887.399	21915
887.523	22048
887.648	22048
887.773	21884
887.897	22093
888.021	22128
888.146	21892
888.27	22090
888.395	22032
888.519	22017
888.643	22067
888.767	22078
888.891	21983
889.015	21827
889.139	21869
889.263	21751
889.387	21876
889.511	21987
889.635	21930
889.759	21739
889.883	21770
890.006	21838
890.13	21861
890.254	21709
890.377	21717
890.501	21606
890.624	21526
890.748	21591
890.871	21557
890.995	21363
891.118	21332
891.241	21344
891.364	21363
891.488	21481
891.611	21416
891.734	21447
891.857	21496
891.98	21363
892.103	21416
892.226	21420
892.349	21245
892.471	21199
892.594	21211
892.717	21355
892.839	21351
892.962	21389
893.085	21370
893.207	21173
893.33	21188
893.452	21150
893.575	21268
893.697	21116
893.819	21321
893.941	21511
894.064	21272
894.186	21188
894.308	21188
894.43	21302
894.552	21466
894.674	21222
894.796	21146
894.918	21157
895.04	21173
895.161	21370
895.283	21298
895.405	21154
895.526	21279
895.648	21249
895.769	21203
895.891	21264
896.012	21291
896.134	21135
896.255	21226
896.376	21161
896.498	21203
896.619	21256
896.74	21214
896.861	21374
896.982	21507
897.103	21660
897.224	21336
897.345	21367
897.466	21397
897.587	21435
897.708	21504
897.828	21424
897.949	21310
898.07	21195
898.19	21298
898.311	21428
898.431	21317
898.552	21367
898.672	21504
898.792	21306
898.913	21439
899.033	21351
899.153	21192
899.273	21161
899.393	21135
899.513	21226
899.633	21169
899.753	21146
899.873	21077
899.993	21169
900.113	21024
900.232	21173
900.352	21017
900.472	21009
900.591	20796
900.711	21043
900.83	20868
900.95	21032
901.069	21001
901.189	20781
901.308	20594
901.427	20454
901.546	20537
901.665	20533
901.784	20560
901.904	20484
902.023	20301
902.141	20062
902.26	19978
902.379	20073
902.498	19989
902.617	19947
902.735	19951
902.854	19936
902.973	19769
903.091	19655
903.21	19601
903.328	19677
903.446	19548
903.565	19396
903.683	19377
903.801	19297
903.919	19346
904.038	19232
904.156	19240
904.274	19228
904.392	19213
904.51	19164
904.627	19118
904.745	19206
904.863	19225
904.981	18996
905.098	18844
905.216	18821
905.334	18958
905.451	18806
905.569	18840
905.686	18852
905.803	18829
905.921	18620
906.038	18753
906.155	18681
906.272	18528
906.389	18559
906.506	18407
906.623	18437
906.74	18437
906.857	18243
906.974	18296
907.091	18467
907.208	18506
907.324	18426
907.441	18304
907.557	18057
907.674	18106
907.79	18045
907.907	18038
908.023	18079
908.139	18133
908.256	18034
908.372	17897
908.488	17851
908.604	17767
908.72	17775
908.836	17798
908.952	17840
909.068	17855
909.184	17889
909.3	17668
909.415	17885
909.531	17767
909.647	17505
909.762	17634
909.878	17585
909.993	17551
910.108	17429
910.224	17376
910.339	17417
910.454	17425
910.57	17315
910.685	17303
910.8	17467
910.915	17433
911.03	17288
911.145	17166
911.259	17060
911.374	17124
911.489	16976
911.604	16930
911.718	16748
911.833	16824
911.947	16774
912.062	16691
912.176	16847
912.291	16847
912.405	16801
912.519	16999
912.633	16984
912.748	16892
912.862	16889
912.976	16675
913.09	16443
913.204	16519
913.318	16607
913.431	16660
913.545	16721
913.659	16634
913.772	16611
913.886	16443
914	16398
914.113	16497
914.226	16466
914.34	16409
914.453	16261
914.566	16447
914.68	16261
914.793	16242
914.906	16036
915.019	16036
915.132	15968
915.245	15991
915.358	15979
915.47	15998
915.583	16044
915.696	15994
915.809	16063
915.921	16162
916.034	15956
916.146	15953
916.259	15888
916.371	15926
916.483	15880
916.595	15736
916.708	15857
916.82	15675
916.932	15694
917.044	15751
917.156	15671
917.268	15576
917.38	15603
917.491	15549
917.603	15675
917.715	15709
917.826	15656
917.938	15492
918.049	15325
918.161	15576
918.272	15614
918.384	15610
918.495	15553
918.606	15359
918.717	15256
918.828	15363
918.939	15355
919.05	15287
919.161	15298
919.272	15104
919.383	15119
919.494	15355
919.604	15473
919.715	15283
919.826	15218
919.936	15275
920.047	15348
920.157	15249
920.267	15591
920.378	15272
920.488	15249
920.598	15481
920.708	15553
920.818	15439
920.928	15405
921.038	15603
921.148	15576
921.258	15298
921.368	15108
921.477	14998
921.587	14880
921.697	14891
921.806	15070
921.916	14914
922.025	14678
922.134	14667
922.244	14526
922.353	14655
922.462	14511
922.571	14469
922.68	14221
922.789	14309
922.898	14336
923.007	14199
923.116	14233
923.224	14282
923.333	14252
923.442	14073
923.55	14123
923.659	14145
923.767	14191
923.876	14199
923.984	14115
924.092	14001
924.201	13974
924.309	13997
924.417	13978
924.525	13887
924.633	13894
924.741	14754
924.849	13734
924.956	13845
925.064	13757
925.172	13559
925.279	13647
925.387	13643
925.494	13620
925.602	13700
925.709	13753
925.816	13575
925.924	13605
926.031	13693
926.138	13563
926.245	13628
926.352	13491
926.459	13594
926.566	13658
926.673	13518
926.779	13392
926.886	13343
926.993	13228
927.099	13228
927.206	13129
927.312	13171
927.419	13244
927.525	13190
927.631	13126
927.737	13088
927.843	12977
927.95	12913
928.056	12962
928.162	13061
928.267	13141
928.373	13677
928.479	13122
928.585	12776
928.69	12882
928.796	12951
928.901	12875
929.007	12707
929.112	12863
929.218	12875
929.323	12825
929.428	12707
929.533	12814
929.638	12707
929.743	12707
929.848	12722
929.953	12597
930.058	12509
930.163	12369
930.267	12391
930.372	12570
930.477	12357
930.581	12540
930.685	12456
930.79	12254
930.894	12372
930.998	12292
931.103	12338
931.207	11992
931.311	11912
931.415	11836
931.519	11619
931.623	11573
