Data from test_V78500241_1370.txt Node
Date: Fri Mar 25 15:51:17 CST 2022
User: usil
Spectrometer: V785-0024
Trigger mode: 0
Integration Time (sec): 4.000000E-1
Scans to average: 1
Nonlinearity correction enabled: false
Boxcar width: 0
Storing dark spectrum: false
XAxis mode: Wavelengths
Number of Pixels in Spectrum: 1024
>>>>>Begin Spectral Data<<<<<
801.071	28181
801.214	28185
801.356	27979
801.499	27823
801.641	27732
801.783	27667
801.926	27759
802.068	27751
802.211	27762
802.353	27743
802.496	27397
802.638	27507
802.78	27515
802.923	27287
803.065	27405
803.208	27458
803.35	27462
803.492	27637
803.635	27622
803.777	27473
803.919	27701
804.061	27892
804.204	27873
804.346	27606
804.488	27485
804.63	27633
804.773	27511
804.915	27755
805.057	27850
805.199	27701
805.341	27671
805.483	27918
805.626	27884
805.768	27903
805.91	27914
806.052	27739
806.194	27736
806.336	28048
806.478	27800
806.62	27823
806.762	28139
806.904	28211
807.046	28360
807.188	28265
807.33	28329
807.472	28367
807.614	28223
807.756	28188
807.898	28181
808.04	28070
808.182	27979
808.324	28249
808.465	28188
808.607	28211
808.749	28500
808.891	28618
809.033	28702
809.174	28523
809.316	28546
809.458	28489
809.6	28394
809.741	28725
809.883	28786
810.025	28675
810.166	28752
810.308	28816
810.45	28831
810.591	28755
810.733	28523
810.875	28478
811.016	28363
811.158	28432
811.299	28580
811.441	28626
811.582	28531
811.724	28542
811.865	28493
812.007	28470
812.148	28455
812.29	28497
812.431	28637
812.573	28759
812.714	28854
812.855	28938
812.997	29067
813.138	29102
813.279	29056
813.421	29037
813.562	28995
813.703	28873
813.845	28721
813.986	28531
814.127	28257
814.268	28322
814.41	28204
814.551	28238
814.692	28265
814.833	28059
814.974	28181
815.115	28265
815.256	28082
815.397	28059
815.539	28055
815.68	27987
815.821	28101
815.962	28055
816.103	27983
816.244	27926
816.385	27583
816.526	27766
816.666	27504
816.807	27496
816.948	27500
817.089	27549
817.23	27481
817.371	27542
817.512	27500
817.653	27431
817.793	27466
817.934	27515
818.075	27439
818.216	27606
818.356	27382
818.497	27344
818.638	27287
818.778	27302
818.919	27268
819.06	27321
819.2	27424
819.341	27435
819.481	27599
819.622	27504
819.762	27595
819.903	27705
820.043	27606
820.184	27656
820.324	27679
820.465	27637
820.605	27530
820.746	27656
820.886	27561
821.026	27576
821.167	27629
821.307	27557
821.447	27488
821.588	27401
821.728	27378
821.868	27211
822.008	27089
822.149	27001
822.289	26956
822.429	26739
822.569	26667
822.709	26693
822.849	26450
822.99	26480
823.13	26507
823.27	26575
823.41	26282
823.55	26168
823.69	26225
823.83	26358
823.97	26278
824.11	25986
824.25	26100
824.389	26058
824.529	26328
824.669	26001
824.809	26408
824.949	26355
825.089	26176
825.228	26244
825.368	25978
825.508	25986
825.648	25970
825.787	26126
825.927	26008
826.067	26008
826.206	26005
826.346	25993
826.485	26001
826.625	26065
826.765	25997
826.904	26035
827.044	25746
827.183	25693
827.323	25727
827.462	25700
827.601	25693
827.741	25731
827.88	25731
828.02	25582
828.159	25677
828.298	25708
828.437	25757
828.577	25639
828.716	25761
828.855	25628
828.994	25403
829.134	25346
829.273	25403
829.412	25384
829.551	25316
829.69	25324
829.829	25400
829.968	25487
830.107	25419
830.246	25438
830.385	25327
830.524	25240
830.663	25126
830.802	25069
830.941	25023
831.08	25050
831.219	24977
831.357	25126
831.496	25171
831.635	24951
831.774	24954
831.913	24958
832.051	24821
832.19	24821
832.329	24772
832.467	24700
832.606	24665
832.744	24635
832.883	24559
833.022	24631
833.16	24642
833.299	24700
833.437	24665
833.576	24551
833.714	24677
833.852	24810
833.991	24829
834.129	24829
834.267	24817
834.406	24715
834.544	24677
834.682	24646
834.821	24722
834.959	24779
835.097	24696
835.235	24627
835.373	24806
835.511	24798
835.65	24661
835.788	24589
835.926	24433
836.064	24353
836.202	24300
836.34	24559
836.478	24654
836.615	24502
836.753	24719
836.891	24650
837.029	24585
837.167	24475
837.305	24441
837.443	24502
837.58	24342
837.718	24388
837.856	24414
837.993	24289
838.131	24429
838.269	24277
838.406	24342
838.544	24190
838.681	23954
838.819	23969
838.956	23866
839.094	23828
839.231	23870
839.369	24060
839.506	24205
839.643	24072
839.781	23771
839.918	23824
840.055	23828
840.193	23790
840.33	23741
840.467	23707
840.604	23790
840.742	24026
840.879	23680
841.016	23684
841.153	23703
841.29	23863
841.427	23790
841.564	23843
841.701	23760
841.838	23748
841.975	23718
842.112	23623
842.249	23551
842.385	23516
842.522	23699
842.659	23668
842.796	23368
842.933	23455
843.069	23535
843.206	23490
843.343	23638
843.479	23570
843.616	23486
843.752	23250
843.889	23406
844.025	23398
844.162	23334
844.298	23493
844.435	23246
844.571	23185
844.708	23337
844.844	23459
844.98	23520
845.117	23395
845.253	23311
845.389	23204
845.525	23212
845.661	23014
845.798	23079
845.934	23041
846.07	23044
846.206	23022
846.342	23022
846.478	22911
846.614	22885
846.75	22679
846.886	22793
847.022	22812
847.158	22691
847.294	22679
847.429	22755
847.565	22641
847.701	22976
847.837	22485
847.972	22535
848.108	22580
848.244	22394
848.379	22356
848.515	22322
848.65	22405
848.786	22322
848.921	22337
849.057	22462
849.192	22398
849.328	22341
849.463	22249
849.598	22291
849.734	22341
849.869	22147
850.004	22120
850.14	22036
850.275	22070
850.41	22059
850.545	22051
850.68	21975
850.815	22139
850.95	22169
851.085	22215
851.22	22238
851.355	22112
851.49	22120
851.625	22025
851.76	22097
851.895	22082
852.03	22070
852.165	22036
852.299	22128
852.434	22215
852.569	22078
852.703	22097
852.838	22112
852.973	22025
853.107	22314
853.242	21991
853.376	21945
853.511	21953
853.645	21838
853.78	22040
853.914	22074
854.048	21903
854.183	21846
854.317	22074
854.451	22105
854.585	21895
854.72	21960
854.854	21854
854.988	21915
855.122	22010
855.256	21781
855.39	21808
855.524	21987
855.658	22013
855.792	21949
855.926	21956
856.06	22010
856.194	21854
856.327	21937
856.461	21911
856.595	21850
856.729	21861
856.862	22105
856.996	22044
857.13	21949
857.263	22036
857.397	22059
857.53	21964
857.664	22059
857.797	22017
857.931	22032
858.064	21991
858.197	22036
858.331	21816
858.464	21930
858.597	21854
858.731	21827
858.864	21934
858.997	21911
859.13	21960
859.263	21850
859.396	21960
859.529	21876
859.662	21873
859.795	21838
859.928	21888
860.061	22013
860.194	22188
860.327	21975
860.46	22010
860.592	22048
860.725	22116
860.858	22013
860.99	21873
861.123	21800
861.256	21701
861.388	21972
861.521	22550
861.653	21808
861.786	21743
861.918	21789
862.05	21793
862.183	21895
862.315	21884
862.447	21949
862.58	21808
862.712	21481
862.844	21553
862.976	21766
863.108	21755
863.24	22090
863.372	21610
863.504	21580
863.636	21732
863.768	21652
863.9	21644
864.032	21549
864.164	21557
864.296	21682
864.428	21671
864.559	21701
864.691	21759
864.823	21603
864.954	21641
865.086	21549
865.217	21504
865.349	21325
865.48	21534
865.612	21477
865.743	21629
865.875	21564
866.006	21485
866.137	21412
866.269	21488
866.4	21485
866.531	21477
866.662	21538
866.793	21378
866.924	21458
867.055	21523
867.186	21447
867.317	21443
867.448	21325
867.579	21416
867.71	21363
867.841	21386
867.972	21477
868.103	21515
868.233	21454
868.364	21344
868.495	21564
868.625	21705
868.756	21770
868.886	21625
869.017	21717
869.147	21743
869.278	21781
869.408	21751
869.539	21747
869.669	21793
869.799	21808
869.929	21850
870.06	21778
870.19	22044
870.32	21903
870.45	22006
870.58	22070
870.71	22166
870.84	22196
870.97	22139
871.1	22211
871.23	22261
871.36	22363
871.489	22086
871.619	22234
871.749	22253
871.879	22253
872.008	22398
872.138	22238
872.267	22234
872.397	22215
872.526	21964
872.656	22101
872.785	22143
872.915	22352
873.044	22394
873.173	22318
873.303	22337
873.432	22314
873.561	22459
873.69	22348
873.819	22207
873.948	22379
874.077	22253
874.206	22215
874.335	22177
874.464	22531
874.593	22504
874.722	22402
874.851	22580
874.979	22615
875.108	22523
875.237	22379
875.365	22325
875.494	22409
875.623	22577
875.751	22500
875.88	22451
876.008	22584
876.136	22736
876.265	22908
876.393	23067
876.521	23037
876.65	23083
876.778	22923
876.906	22820
877.034	22968
877.162	22835
877.29	22748
877.418	22942
877.546	22904
877.674	22965
877.802	22904
877.93	22824
878.058	22835
878.185	22839
878.313	22847
878.441	22866
878.568	22626
878.696	22763
878.824	22797
878.951	23071
879.079	23033
879.206	23162
879.333	23136
879.461	22824
879.588	23071
879.715	23018
879.842	23200
879.97	22919
880.097	22706
880.224	22584
880.351	22535
880.478	22687
880.605	22885
880.732	22607
880.859	22995
880.986	22828
881.112	22683
881.239	22641
881.366	22451
881.493	22371
881.619	22185
881.746	22284
881.872	22295
881.999	22215
882.125	22238
882.252	22371
882.378	22207
882.505	22352
882.631	22105
882.757	22048
882.883	21991
883.01	21994
883.136	21945
883.262	21854
883.388	21648
883.514	22010
883.64	21983
883.766	21880
883.892	21644
884.018	21690
884.143	21713
884.269	21713
884.395	21667
884.52	21477
884.646	21622
884.772	21496
884.897	21447
885.023	21553
885.148	21793
885.274	21660
885.399	21583
885.524	21519
885.65	21564
885.775	21553
885.9	21485
886.025	21789
886.15	21530
886.275	21542
886.4	21389
886.525	21447
886.65	21462
886.775	21496
886.9	21762
887.025	21785
887.149	21504
887.274	21344
887.399	21180
887.523	21306
887.648	21348
887.773	21211
887.897	21431
888.021	21241
888.146	21412
888.27	21363
888.395	21393
888.519	21313
888.643	21374
888.767	21329
888.891	21138
889.015	21249
889.139	21203
889.263	21131
889.387	21195
889.511	21294
889.635	21294
889.759	21195
889.883	21058
890.006	21180
890.13	21207
890.254	21055
890.377	21055
890.501	20899
890.624	20861
890.748	20883
890.871	20758
890.995	20648
891.118	20625
891.241	20693
891.364	20746
891.488	20842
891.611	20807
891.734	20689
891.857	20712
891.98	20693
892.103	20758
892.226	20568
892.349	20670
892.471	20556
892.594	20629
892.717	20648
892.839	20644
892.962	20663
893.085	20670
893.207	20636
893.33	20450
893.452	20545
893.575	20746
893.697	20556
893.819	20750
893.941	20849
894.064	20678
894.186	20602
894.308	20568
894.43	20701
894.552	20743
894.674	20659
894.796	20499
894.918	20499
895.04	20537
895.161	20541
895.283	20590
895.405	20533
895.526	20533
895.648	20480
895.769	20549
895.891	20533
896.012	20549
896.134	20651
896.255	20655
896.376	20461
896.498	20575
896.619	20640
896.74	20594
896.861	20575
896.982	20830
897.103	20948
897.224	20838
897.345	20739
897.466	20830
897.587	20781
897.708	20891
897.828	20876
897.949	20800
898.07	20663
898.19	20781
898.311	20826
898.431	20636
898.552	20891
898.672	20845
898.792	20781
898.913	20792
899.033	20674
899.153	20644
899.273	20537
899.393	20568
899.513	20533
899.633	20537
899.753	20537
899.873	20434
899.993	20526
900.113	20537
900.232	20545
900.352	20408
900.472	20336
900.591	20282
900.711	20393
900.83	20263
900.95	20438
901.069	20366
901.189	20221
901.308	19932
901.427	19879
901.546	19818
901.665	19879
901.784	19906
901.904	19772
902.023	19746
902.141	19525
902.26	19495
902.379	19578
902.498	19308
902.617	19354
902.735	19346
902.854	19358
902.973	19179
903.091	19023
903.21	19031
903.328	19091
903.446	18894
903.565	18859
903.683	18817
903.801	18817
903.919	18776
904.038	18791
904.156	18684
904.274	18654
904.392	18620
904.51	18616
904.627	18582
904.745	18692
904.863	18665
904.981	18483
905.098	18281
905.216	18254
905.334	18239
905.451	18308
905.569	18190
905.686	18213
905.803	18342
905.921	18038
906.038	18171
906.155	18216
906.272	17980
906.389	18003
906.506	17809
906.623	17904
906.74	17832
906.857	17695
906.974	17699
907.091	17893
907.208	17927
907.324	17874
907.441	17687
907.557	17657
907.674	17535
907.79	17429
907.907	17512
908.023	17497
908.139	17615
908.256	17463
908.372	17383
908.488	17372
908.604	17322
908.72	17223
908.836	17239
908.952	17136
909.068	17250
909.184	17372
909.3	17280
909.415	17307
909.531	17235
909.647	16965
909.762	16869
909.878	16873
909.993	16915
910.108	16987
910.224	16896
910.339	16938
910.454	16767
910.57	16694
910.685	16797
910.8	16908
910.915	16881
911.03	16759
911.145	16611
911.259	16508
911.374	16573
911.489	16432
911.604	16402
911.718	16348
911.833	16329
911.947	16169
912.062	16150
912.176	16295
912.291	16390
912.405	16246
912.519	16519
912.633	16500
912.748	16344
912.862	16154
912.976	16169
913.09	15968
913.204	16010
913.318	16185
913.431	16101
913.545	16185
913.659	16219
913.772	16048
913.886	15892
914	15884
914.113	15998
914.226	15964
914.34	15918
914.453	15774
914.566	15873
914.68	15808
914.793	15724
914.906	15496
915.019	15466
915.132	15424
915.245	15382
915.358	15504
915.47	15397
915.583	15488
915.696	15416
915.809	15584
915.921	15526
916.034	15408
916.146	15454
916.259	15241
916.371	15416
916.483	15458
916.595	15329
916.708	15321
916.82	15370
916.932	15245
917.044	15237
917.156	15138
917.268	15066
917.38	15203
917.491	15051
917.603	15127
917.715	15173
917.826	15203
917.938	15062
918.049	14883
918.161	15074
918.272	15150
918.384	15199
918.495	15036
918.606	14918
918.717	14887
918.828	14815
918.939	14887
919.05	14739
919.161	14876
919.272	14568
919.383	14651
919.494	14864
919.604	15066
919.715	14861
919.826	14689
919.936	14807
920.047	14975
920.157	14834
920.267	14944
920.378	14731
920.488	14796
920.598	14952
920.708	15104
920.818	14982
920.928	14975
921.038	15062
921.148	15146
921.258	14769
921.368	14735
921.477	14507
921.587	14541
921.697	14476
921.806	14518
921.916	14412
922.025	14275
922.134	14225
922.244	14149
922.353	14210
922.462	14103
922.571	14005
922.68	13955
922.789	13837
922.898	13841
923.007	13765
923.116	13746
923.224	13784
923.333	13818
923.442	13666
923.55	13700
923.659	13799
923.767	13670
923.876	13628
923.984	13712
924.092	13571
924.201	13643
924.309	13582
924.417	13563
924.525	13377
924.633	13518
924.741	14457
924.849	13343
924.956	13377
925.064	13343
925.172	13099
925.279	13126
925.387	13358
925.494	13255
925.602	13400
925.709	13270
925.816	13156
925.924	13179
926.031	13209
926.138	13129
926.245	13183
926.352	13103
926.459	13160
926.566	13285
926.673	13069
926.779	12966
926.886	12932
926.993	12916
927.099	12810
927.206	12741
927.312	12692
927.419	12833
927.525	12768
927.631	12798
927.737	12722
927.843	12703
927.95	12490
928.056	12620
928.162	12681
928.267	12597
928.373	13251
928.479	12669
928.585	12502
928.69	12456
928.796	12555
928.901	12426
929.007	12376
929.112	12532
929.218	12536
929.323	12365
929.428	12342
929.533	12372
929.638	12232
929.743	12239
929.848	12296
929.953	12319
930.058	12209
930.163	11969
930.267	12030
930.372	12163
930.477	11977
930.581	12228
930.685	12072
930.79	11798
930.894	11931
930.998	11809
931.103	11984
931.207	11532
931.311	11520
931.415	11493
931.519	11311
931.623	11231
