Data from test_V78500241_3699.txt Node
Date: Fri Mar 25 16:07:25 CST 2022
User: usil
Spectrometer: V785-0024
Trigger mode: 0
Integration Time (sec): 4.000000E-1
Scans to average: 1
Nonlinearity correction enabled: false
Boxcar width: 0
Storing dark spectrum: false
XAxis mode: Wavelengths
Number of Pixels in Spectrum: 1024
>>>>>Begin Spectral Data<<<<<
801.071	28314
801.214	28344
801.356	28154
801.499	28109
801.641	28044
801.783	28036
801.926	28059
802.068	27918
802.211	27831
802.353	28059
802.496	27568
802.638	27774
802.78	27610
802.923	27492
803.065	27477
803.208	27667
803.35	27568
803.492	27854
803.635	27895
803.777	27812
803.919	27751
804.061	28219
804.204	28147
804.346	27937
804.488	27823
804.63	27937
804.773	27865
804.915	27892
805.057	28116
805.199	27865
805.341	28090
805.483	28067
805.626	27968
805.768	27979
805.91	28112
806.052	28032
806.194	27876
806.336	28181
806.478	27975
806.62	28010
806.762	28135
806.904	28363
807.046	28550
807.188	28523
807.33	28470
807.472	28622
807.614	28592
807.756	28360
807.898	28219
808.04	28253
808.182	28268
808.324	28299
808.465	28284
808.607	28592
808.749	28550
808.891	28782
809.033	28831
809.174	28801
809.316	28519
809.458	28580
809.6	28740
809.741	28801
809.883	28698
810.025	29083
810.166	29067
810.308	28976
810.45	29037
810.591	28908
810.733	28820
810.875	28675
811.016	28702
811.158	28577
811.299	28767
811.441	28919
811.582	28927
811.724	28839
811.865	28801
812.007	28790
812.148	28839
812.29	28843
812.431	28934
812.573	29018
812.714	29239
812.855	29337
812.997	29223
813.138	29490
813.279	29509
813.421	29098
813.562	29258
813.703	29159
813.845	28999
813.986	28554
814.127	28561
814.268	28447
814.41	28356
814.551	28329
814.692	28546
814.833	28314
814.974	28493
815.115	28531
815.256	28253
815.397	28238
815.539	28413
815.68	28257
815.821	28139
815.962	28287
816.103	28070
816.244	28097
816.385	28025
816.526	27895
816.666	27686
816.807	27675
816.948	27819
817.089	27922
817.23	27816
817.371	27679
817.512	27675
817.653	27698
817.793	27675
817.934	27720
818.075	27720
818.216	27736
818.356	27679
818.497	27663
818.638	27378
818.778	27507
818.919	27580
819.06	27549
819.2	27656
819.341	27797
819.481	27785
819.622	27934
819.762	28025
819.903	27979
820.043	27812
820.184	27907
820.324	27857
820.465	27991
820.605	28013
820.746	27804
820.886	27755
821.026	27827
821.167	27785
821.307	27892
821.447	27618
821.588	27667
821.728	27523
821.868	27283
822.008	27230
822.149	27104
822.289	27207
822.429	26948
822.569	26845
822.709	26887
822.849	26792
822.99	26842
823.13	26727
823.27	26678
823.41	26659
823.55	26446
823.69	26537
823.83	26564
823.97	26526
824.11	26423
824.25	26210
824.389	26301
824.529	26404
824.669	26480
824.809	26385
824.949	26404
825.089	26518
825.228	26347
825.368	26263
825.508	26168
825.648	26275
825.787	26142
825.927	26320
826.067	26320
826.206	26149
826.346	26377
826.485	26290
826.625	26256
826.765	26396
826.904	26290
827.044	26054
827.183	25970
827.323	26012
827.462	26046
827.601	26016
827.741	25932
827.88	25917
828.02	25909
828.159	25944
828.298	26103
828.437	25898
828.577	26008
828.716	25902
828.855	25871
828.994	25693
829.134	25529
829.273	25620
829.412	25518
829.551	25620
829.69	25609
829.829	25681
829.968	25776
830.107	25791
830.246	25529
830.385	25597
830.524	25476
830.663	25499
830.802	25331
830.941	25346
831.08	25209
831.219	25373
831.357	25384
831.496	25578
831.635	25247
831.774	25209
831.913	25274
832.051	25206
832.19	25008
832.329	25080
832.467	24996
832.606	24996
832.744	24726
832.883	24913
833.022	24928
833.16	24890
833.299	25042
833.437	25034
833.576	25004
833.714	24958
833.852	24977
833.991	25148
834.129	25114
834.267	24962
834.406	25031
834.544	25206
834.682	24947
834.821	24897
834.959	25179
835.097	25148
835.235	24970
835.373	25008
835.511	25053
835.65	24837
835.788	24901
835.926	24722
836.064	24528
836.202	24757
836.34	24939
836.478	24973
836.615	24745
836.753	24795
836.891	24943
837.029	24897
837.167	24741
837.305	24665
837.443	24787
837.58	24601
837.718	24760
837.856	24566
837.993	24582
838.131	24589
838.269	24464
838.406	24528
838.544	24418
838.681	24315
838.819	24254
838.956	24076
839.094	24152
839.231	24091
839.369	24205
839.506	24475
839.643	24448
839.781	24285
839.918	24102
840.055	24114
840.193	24140
840.33	23977
840.467	23984
840.604	24110
840.742	24289
840.879	23885
841.016	23893
841.153	24034
841.29	24026
841.427	23904
841.564	24045
841.701	23878
841.838	23973
841.975	23942
842.112	23893
842.249	23901
842.385	23802
842.522	23996
842.659	23927
842.796	23756
842.933	23828
843.069	23737
843.206	23722
843.343	23889
843.479	23855
843.616	23851
843.752	23661
843.889	23535
844.025	23611
844.162	23482
844.298	23703
844.435	23490
844.571	23520
844.708	23589
844.844	23707
844.98	23699
845.117	23687
845.253	23482
845.389	23398
845.525	23356
845.661	23509
845.798	23284
845.934	23284
846.07	23174
846.206	23311
846.342	23421
846.478	23273
846.614	23117
846.75	23006
846.886	22991
847.022	23003
847.158	23174
847.294	22965
847.429	23208
847.565	22946
847.701	23052
847.837	22740
847.972	22793
848.108	22710
848.244	22877
848.379	22611
848.515	22603
848.65	22569
848.786	22603
848.921	22691
849.057	22706
849.192	22615
849.328	22763
849.463	22618
849.598	22615
849.734	22527
849.869	22428
850.004	22348
850.14	22432
850.275	22303
850.41	22280
850.545	22375
850.68	22268
850.815	22421
850.95	22337
851.085	22615
851.22	22455
851.355	22356
851.49	22371
851.625	22360
851.76	22318
851.895	22322
852.03	22333
852.165	22356
852.299	22379
852.434	22417
852.569	22394
852.703	22268
852.838	22603
852.973	22550
853.107	22470
853.242	22375
853.376	22329
853.511	22109
853.645	22169
853.78	22329
853.914	22173
854.048	22246
854.183	22204
854.317	22325
854.451	22421
854.585	22390
854.72	22238
854.854	22314
854.988	22143
855.122	22246
855.256	22032
855.39	22265
855.524	22181
855.658	22177
855.792	22226
855.926	22150
856.06	22325
856.194	22253
856.327	22131
856.461	22188
856.595	22207
856.729	22128
856.862	22447
856.996	22280
857.13	22371
857.263	22188
857.397	22207
857.53	22249
857.664	22150
857.797	22322
857.931	22276
858.064	22238
858.197	22306
858.331	22196
858.464	22192
858.597	22143
858.731	22246
858.864	22139
858.997	22188
859.13	22150
859.263	22238
859.396	22211
859.529	22147
859.662	22131
859.795	22166
859.928	22318
860.061	22325
860.194	22284
860.327	22257
860.46	22246
860.592	22402
860.725	22382
860.858	22242
860.99	22261
861.123	22226
861.256	22257
861.388	22295
861.521	22908
861.653	22074
861.786	22006
861.918	22055
862.05	22166
862.183	22139
862.315	22048
862.447	22173
862.58	22078
862.712	21838
862.844	21865
862.976	21960
863.108	21964
863.24	22398
863.372	21819
863.504	21915
863.636	21793
863.768	21876
863.9	21857
864.032	21903
864.164	21846
864.296	21915
864.428	21987
864.559	21979
864.691	22048
864.823	21812
864.954	21903
865.086	21835
865.217	21816
865.349	21766
865.48	21842
865.612	21774
865.743	21953
865.875	21888
866.006	21641
866.137	21816
866.269	21797
866.4	21694
866.531	21819
866.662	21724
866.793	21675
866.924	21724
867.055	21705
867.186	21812
867.317	21705
867.448	21739
867.579	21629
867.71	21671
867.841	21682
867.972	21755
868.103	21720
868.233	21789
868.364	21785
868.495	21846
868.625	21838
868.756	22128
868.886	21861
869.017	22017
869.147	22059
869.278	21956
869.408	21983
869.539	22002
869.669	22032
869.799	22006
869.929	22002
870.06	22086
870.19	22280
870.32	22166
870.45	22230
870.58	22386
870.71	22363
870.84	22550
870.97	22310
871.1	22382
871.23	22546
871.36	22462
871.489	22462
871.619	22455
871.749	22493
871.879	22573
872.008	22618
872.138	22565
872.267	22538
872.397	22360
872.526	22325
872.656	22493
872.785	22341
872.915	22626
873.044	22767
873.173	22698
873.303	22538
873.432	22630
873.561	22656
873.69	22603
873.819	22622
873.948	22702
874.077	22706
874.206	22607
874.335	22542
874.464	22660
874.593	22580
874.722	22713
874.851	22869
874.979	22793
875.108	22900
875.237	22843
875.365	22729
875.494	22820
875.623	22911
875.751	22812
875.88	22820
876.008	22987
876.136	23029
876.265	23185
876.393	23383
876.521	23273
876.65	23261
876.778	23227
876.906	23193
877.034	23052
877.162	23216
877.29	23064
877.418	23204
877.546	23155
877.674	23220
877.802	23128
877.93	23121
878.058	23181
878.185	22999
878.313	23056
878.441	23170
878.568	23018
878.696	23117
878.824	23140
878.951	23132
879.079	23242
879.206	23368
879.333	23322
879.461	23227
879.588	23280
879.715	23436
879.842	23341
879.97	23315
880.097	23181
880.224	22919
880.351	23128
880.478	23098
880.605	23006
880.732	22976
880.859	23220
880.986	22919
881.112	23010
881.239	22892
881.366	22797
881.493	22736
881.619	22519
881.746	22618
881.872	22637
881.999	22424
882.125	22390
882.252	22561
882.378	22451
882.505	22489
882.631	22535
882.757	22291
882.883	22268
883.01	22192
883.136	22230
883.262	22238
883.388	22070
883.514	22116
883.64	22215
883.766	22105
883.892	21972
884.018	21987
884.143	22112
884.269	22207
884.395	21888
884.52	21755
884.646	21918
884.772	21736
884.897	21774
885.023	21895
885.148	21972
885.274	21911
885.399	22010
885.524	21884
885.65	21892
885.775	21857
885.9	21838
886.025	21838
886.15	21861
886.275	21854
886.4	21709
886.525	21812
886.65	21793
886.775	21743
886.9	21922
887.025	22036
887.149	21713
887.274	21622
887.399	21610
887.523	21557
887.648	21515
887.773	21473
887.897	21667
888.021	21644
888.146	21572
888.27	21587
888.395	21679
888.519	21606
888.643	21690
888.767	21652
888.891	21530
889.015	21416
889.139	21504
889.263	21374
889.387	21549
889.511	21534
889.635	21488
889.759	21317
889.883	21355
890.006	21496
890.13	21439
890.254	21405
890.377	21382
890.501	21100
890.624	21112
890.748	21116
890.871	21047
890.995	20933
891.118	20895
891.241	20998
891.364	21032
891.488	21013
891.611	20925
891.734	20979
891.857	20960
891.98	20838
892.103	21066
892.226	20834
892.349	20910
892.471	20811
892.594	20883
892.717	20861
892.839	20849
892.962	20880
893.085	20826
893.207	20796
893.33	20667
893.452	20613
893.575	20887
893.697	20895
893.819	20944
893.941	21066
894.064	20842
894.186	20655
894.308	20621
894.43	20902
894.552	21020
894.674	21066
894.796	20762
894.918	20918
895.04	20731
895.161	21017
895.283	20788
895.405	20773
895.526	20895
895.648	20815
895.769	20899
895.891	20807
896.012	20906
896.134	20914
896.255	20792
896.376	20754
896.498	20834
896.619	20815
896.74	20811
896.861	20895
896.982	21169
897.103	21203
897.224	21135
897.345	21024
897.466	20982
897.587	20971
897.708	21169
897.828	21142
897.949	21051
898.07	20739
898.19	20956
898.311	21161
898.431	20918
898.552	21005
898.672	21104
898.792	21131
898.913	20963
899.033	20876
899.153	20857
899.273	20785
899.393	20811
899.513	20758
899.633	20705
899.753	20819
899.873	20670
899.993	20781
900.113	20720
900.232	20720
900.352	20625
900.472	20625
900.591	20518
900.711	20571
900.83	20412
900.95	20606
901.069	20663
901.189	20393
901.308	20221
901.427	20096
901.546	20046
901.665	20164
901.784	20172
901.904	20024
902.023	19841
902.141	19723
902.26	19616
902.379	19814
902.498	19597
902.617	19506
902.735	19582
902.854	19590
902.973	19445
903.091	19187
903.21	19259
903.328	19278
903.446	19206
903.565	18916
903.683	19126
903.801	19031
903.919	19042
904.038	18973
904.156	18772
904.274	18848
904.392	18787
904.51	18791
904.627	18814
904.745	18703
904.863	18897
904.981	18631
905.098	18506
905.216	18540
905.334	18490
905.451	18506
905.569	18509
905.686	18578
905.803	18479
905.921	18228
906.038	18330
906.155	18365
906.272	18205
906.389	18258
906.506	18140
906.623	17946
906.74	18011
906.857	17908
906.974	17946
907.091	18106
907.208	18003
907.324	18064
907.441	17863
907.557	17760
907.674	17733
907.79	17646
907.907	17699
908.023	17718
908.139	17699
908.256	17703
908.372	17703
908.488	17665
908.604	17543
908.72	17524
908.836	17512
908.952	17398
909.068	17516
909.184	17535
909.3	17406
909.415	17425
909.531	17402
909.647	17250
909.762	17216
909.878	17121
909.993	17090
910.108	17109
910.224	17155
910.339	17121
910.454	17067
910.57	17075
910.685	16778
910.8	17143
910.915	17098
911.03	16869
911.145	16812
911.259	16778
911.374	16771
911.489	16679
911.604	16462
911.718	16489
911.833	16478
911.947	16402
912.062	16367
912.176	16424
912.291	16455
912.405	16257
912.519	16679
912.633	16694
912.748	16531
912.862	16371
912.976	16261
913.09	16196
913.204	16261
913.318	16402
913.431	16348
913.545	16390
913.659	16322
913.772	16090
913.886	16177
914	16044
914.113	16139
914.226	16200
914.34	16242
914.453	15998
914.566	16082
914.68	15979
914.793	15930
914.906	15831
915.019	15667
915.132	15717
915.245	15747
915.358	15660
915.47	15793
915.583	15709
915.696	15644
915.809	15823
915.921	15823
916.034	15660
916.146	15496
916.259	15538
916.371	15682
916.483	15606
916.595	15526
916.708	15515
916.82	15591
916.932	15420
917.044	15420
917.156	15408
917.268	15287
917.38	15272
917.491	15359
917.603	15310
917.715	15313
917.826	15447
917.938	15310
918.049	15097
918.161	15329
918.272	15439
918.384	15336
918.495	15176
918.606	15131
918.717	14986
918.828	15043
918.939	15077
919.05	14929
919.161	15119
919.272	14838
919.383	14853
919.494	15116
919.604	15218
919.715	14941
919.826	14902
919.936	14979
920.047	15017
920.157	14971
920.267	15157
920.378	15020
920.488	14979
920.598	15077
920.708	15264
920.818	15199
920.928	15070
921.038	15275
921.148	15249
921.258	14910
921.368	14910
921.477	14746
921.587	14769
921.697	14670
921.806	14693
921.916	14617
922.025	14370
922.134	14317
922.244	14309
922.353	14461
922.462	14225
922.571	14157
922.68	14092
922.789	14062
922.898	13989
923.007	14001
923.116	13997
923.224	14046
923.333	13993
923.442	13856
923.55	13898
923.659	13818
923.767	13898
923.876	13890
923.984	13822
924.092	13575
924.201	13879
924.309	13799
924.417	13795
924.525	13601
924.633	13616
924.741	14476
924.849	13430
924.956	13655
925.064	13540
925.172	13255
925.279	13422
925.387	13491
925.494	13426
925.602	13422
925.709	13487
925.816	13430
925.924	13263
926.031	13472
926.138	13331
926.245	13426
926.352	13251
926.459	13384
926.566	13350
926.673	13183
926.779	13061
926.886	13183
926.993	12993
927.099	12973
927.206	12935
927.312	12920
927.419	12996
927.525	12897
927.631	12886
927.737	12810
927.843	12753
927.95	12692
928.056	12726
928.162	12700
928.267	12734
928.373	13438
928.479	12814
928.585	12574
928.69	12738
928.796	12810
928.901	12612
929.007	12445
929.112	12654
929.218	12574
929.323	12521
929.428	12502
929.533	12574
929.638	12506
929.743	12410
929.848	12471
929.953	12429
930.058	12376
930.163	12186
930.267	12216
930.372	12289
930.477	12098
930.581	12323
930.685	12197
930.79	12034
930.894	12102
930.998	12026
931.103	12102
931.207	11798
931.311	11733
931.415	11585
931.519	11421
931.623	11353
