Data from test_V78500241_796.txt Node
Date: Fri Mar 25 15:47:18 CST 2022
User: usil
Spectrometer: V785-0024
Trigger mode: 0
Integration Time (sec): 4.000000E-1
Scans to average: 1
Nonlinearity correction enabled: false
Boxcar width: 0
Storing dark spectrum: false
XAxis mode: Wavelengths
Number of Pixels in Spectrum: 1024
>>>>>Begin Spectral Data<<<<<
801.071	27447
801.214	27424
801.356	27157
801.499	27074
801.641	26876
801.783	26910
801.926	26895
802.068	26918
802.211	27055
802.353	26667
802.496	26587
802.638	26507
802.78	26686
802.923	26480
803.065	26609
803.208	26503
803.35	26743
803.492	26659
803.635	26750
803.777	26670
803.919	26667
804.061	26929
804.204	26830
804.346	26727
804.488	26750
804.63	26708
804.773	26746
804.915	26754
805.057	26960
805.199	26800
805.341	26777
805.483	26880
805.626	26864
805.768	26697
805.91	26906
806.052	26883
806.194	26781
806.336	27116
806.478	26887
806.62	26998
806.762	27036
806.904	27062
807.046	27439
807.188	27317
807.33	27344
807.472	27344
807.614	27283
807.756	27176
807.898	27233
808.04	27283
808.182	27112
808.324	27085
808.465	27203
808.607	27405
808.749	27382
808.891	27492
809.033	27766
809.174	27568
809.316	27431
809.458	27412
809.6	27359
809.741	27622
809.883	27671
810.025	27831
810.166	27698
810.308	27701
810.45	27869
810.591	27679
810.733	27568
810.875	27553
811.016	27622
811.158	27439
811.299	27652
811.441	27732
811.582	27618
811.724	27526
811.865	27485
812.007	27542
812.148	27572
812.29	27515
812.431	27629
812.573	27880
812.714	27945
812.855	27983
812.997	28029
813.138	28196
813.279	28078
813.421	27983
813.562	28032
813.703	27941
813.845	27713
813.986	27477
814.127	27313
814.268	27108
814.41	27218
814.551	27176
814.692	27188
814.833	27116
814.974	27157
815.115	27176
815.256	27036
815.397	27005
815.539	27096
815.68	26921
815.821	26933
815.962	26937
816.103	26899
816.244	26781
816.385	26731
816.526	26765
816.666	26617
816.807	26522
816.948	26545
817.089	26587
817.23	26366
817.371	26442
817.512	26393
817.653	26381
817.793	26415
817.934	26412
818.075	26530
818.216	26389
818.356	26381
818.497	26393
818.638	25997
818.778	26301
818.919	26214
819.06	26298
819.2	26275
819.341	26423
819.481	26453
819.622	26587
819.762	26758
819.903	26689
820.043	26594
820.184	26625
820.324	26484
820.465	26571
820.605	26514
820.746	26453
820.886	26431
821.026	26560
821.167	26583
821.307	26644
821.447	26492
821.588	26355
821.728	26248
821.868	26126
822.008	25966
822.149	26031
822.289	25917
822.429	25677
822.569	25438
822.709	25449
822.849	25301
822.99	25327
823.13	25400
823.27	25506
823.41	25114
823.55	25080
823.69	25266
823.83	25198
823.97	25198
824.11	25152
824.25	25050
824.389	25027
824.529	25168
824.669	25015
824.809	25156
824.949	25194
825.089	25118
825.228	25175
825.368	24985
825.508	24973
825.648	24875
825.787	24920
825.927	24989
826.067	24935
826.206	24962
826.346	25004
826.485	24905
826.625	24924
826.765	24909
826.904	24973
827.044	24692
827.183	24719
827.323	24711
827.462	24646
827.601	24601
827.741	24616
827.88	24802
828.02	24471
828.159	24654
828.298	24703
828.437	24734
828.577	24620
828.716	24760
828.855	24661
828.994	24262
829.134	24311
829.273	24410
829.412	24300
829.551	24243
829.69	24369
829.829	24502
829.968	24445
830.107	24372
830.246	24292
830.385	24304
830.524	24239
830.663	24251
830.802	24106
830.941	23996
831.08	24022
831.219	23977
831.357	24018
831.496	24182
831.635	23931
831.774	23859
831.913	23973
832.051	23710
832.19	23779
832.329	23653
832.467	23611
832.606	23436
832.744	23642
832.883	23509
833.022	23600
833.16	23573
833.299	23680
833.437	23604
833.576	23638
833.714	23676
833.852	23764
833.991	23752
834.129	23771
834.267	23752
834.406	23649
834.544	23745
834.682	23722
834.821	23608
834.959	23646
835.097	23661
835.235	23714
835.373	23676
835.511	23680
835.65	23573
835.788	23482
835.926	23398
836.064	23326
836.202	23376
836.34	23592
836.478	23836
836.615	23501
836.753	23421
836.891	23547
837.029	23577
837.167	23440
837.305	23433
837.443	23452
837.58	23429
837.718	23288
837.856	23376
837.993	23372
838.131	23265
838.269	23223
838.406	23239
838.544	23216
838.681	23121
838.819	22987
838.956	22786
839.094	22801
839.231	23010
839.369	23041
839.506	23261
839.643	23056
839.781	22877
839.918	22812
840.055	22759
840.193	22869
840.33	22710
840.467	22843
840.604	22831
840.742	22946
840.879	22592
841.016	22683
841.153	22668
841.29	22824
841.427	22809
841.564	22854
841.701	22812
841.838	22755
841.975	22721
842.112	22748
842.249	22607
842.385	22527
842.522	22710
842.659	22596
842.796	22523
842.933	22546
843.069	22474
843.206	22459
843.343	22580
843.479	22565
843.616	22443
843.752	22371
843.889	22344
844.025	22417
844.162	22291
844.298	22382
844.435	22265
844.571	22291
844.708	22318
844.844	22371
844.98	22432
845.117	22466
845.253	22192
845.389	22090
845.525	22280
845.661	22124
845.798	22131
845.934	22086
846.07	22120
846.206	22101
846.342	22112
846.478	21956
846.614	21743
846.75	21861
846.886	21732
847.022	21854
847.158	21701
847.294	21675
847.429	21861
847.565	21610
847.701	21956
847.837	21591
847.972	21340
848.108	21603
848.244	21637
848.379	21332
848.515	21332
848.65	21348
848.786	21336
848.921	21382
849.057	21443
849.192	21374
849.328	21447
849.463	21382
849.598	21294
849.734	21226
849.869	21142
850.004	21218
850.14	21165
850.275	21184
850.41	21039
850.545	21093
850.68	21066
850.815	21169
850.95	21154
851.085	21310
851.22	21199
851.355	21150
851.49	21093
851.625	21020
851.76	21077
851.895	21089
852.03	20963
852.165	21180
852.299	21188
852.434	21226
852.569	21176
852.703	21188
852.838	21252
852.973	21089
853.107	21211
853.242	21116
853.376	21005
853.511	20891
853.645	20857
853.78	20956
853.914	20967
854.048	20891
854.183	21001
854.317	20979
854.451	21062
854.585	20925
854.72	20967
854.854	21017
854.988	20880
855.122	21028
855.256	20754
855.39	20963
855.524	20998
855.658	20944
855.792	20952
855.926	20895
856.06	20845
856.194	21024
856.327	21024
856.461	20914
856.595	20842
856.729	20823
856.862	21043
856.996	20990
857.13	21142
857.263	21207
857.397	21043
857.53	20952
857.664	20941
857.797	20960
857.931	21108
858.064	20971
858.197	21085
858.331	20933
858.464	20842
858.597	20925
858.731	20880
858.864	20887
858.997	21062
859.13	21047
859.263	20982
859.396	21020
859.529	20994
859.662	20944
859.795	20921
859.928	21017
860.061	21089
860.194	21131
860.327	20929
860.46	20849
860.592	21123
860.725	21062
860.858	21043
860.99	20944
861.123	20895
861.256	20864
861.388	21017
861.521	21549
861.653	20887
861.786	20571
861.918	20838
862.05	20857
862.183	20906
862.315	20941
862.447	20872
862.58	20902
862.712	20689
862.844	20598
862.976	20735
863.108	20697
863.24	21142
863.372	20495
863.504	20663
863.636	20484
863.768	20644
863.9	20716
864.032	20609
864.164	20644
864.296	20670
864.428	20720
864.559	20701
864.691	20712
864.823	20667
864.954	20648
865.086	20625
865.217	20606
865.349	20446
865.48	20659
865.612	20609
865.743	20514
865.875	20575
866.006	20564
866.137	20431
866.269	20705
866.4	20568
866.531	20492
866.662	20632
866.793	20507
866.924	20571
867.055	20511
867.186	20476
867.317	20545
867.448	20377
867.579	20469
867.71	20347
867.841	20423
867.972	20473
868.103	20313
868.233	20507
868.364	20571
868.495	20530
868.625	20773
868.756	20853
868.886	20606
869.017	20708
869.147	20807
869.278	20819
869.408	20819
869.539	20727
869.669	20861
869.799	20731
869.929	20842
870.06	20807
870.19	21180
870.32	21032
870.45	21039
870.58	21066
870.71	21237
870.84	21336
870.97	21032
871.1	21192
871.23	21329
871.36	21264
871.489	21176
871.619	21340
871.749	21386
871.879	21393
872.008	21416
872.138	21382
872.267	21298
872.397	21104
872.526	21161
872.656	21138
872.785	21199
872.915	21336
873.044	21355
873.173	21466
873.303	21344
873.432	21473
873.561	21424
873.69	21424
873.819	21233
873.948	21348
874.077	21306
874.206	21287
874.335	21306
874.464	21526
874.593	21614
874.722	21488
874.851	21568
874.979	21652
875.108	21603
875.237	21561
875.365	21416
875.494	21534
875.623	21610
875.751	21526
875.88	21530
876.008	21694
876.136	21804
876.265	21953
876.393	22086
876.521	21983
876.65	22090
876.778	21968
876.906	21880
877.034	21960
877.162	21819
877.29	21926
877.418	22032
877.546	22013
877.674	22093
877.802	21869
877.93	22002
878.058	21930
878.185	21873
878.313	21918
878.441	21892
878.568	21816
878.696	21876
878.824	21991
878.951	21968
879.079	22204
879.206	22196
879.333	22021
879.461	21964
879.588	22128
879.715	22059
879.842	22223
879.97	21991
880.097	21701
880.224	21736
880.351	21819
880.478	21762
880.605	21736
880.732	21808
880.859	22109
880.986	21720
881.112	21770
881.239	21603
881.366	21526
881.493	21416
881.619	21359
881.746	21348
881.872	21272
881.999	21264
882.125	21401
882.252	21363
882.378	21386
882.505	21443
882.631	21127
882.757	21108
882.883	21131
883.01	21001
883.136	21043
883.262	20925
883.388	20720
883.514	21100
883.64	21138
883.766	21077
883.892	20815
884.018	20895
884.143	21013
884.269	21055
884.395	20731
884.52	20655
884.646	20773
884.772	20636
884.897	20571
885.023	20815
885.148	20826
885.274	20842
885.399	20788
885.524	20754
885.65	20644
885.775	20830
885.9	20674
886.025	20899
886.15	20765
886.275	20705
886.4	20644
886.525	20590
886.65	20552
886.775	20526
886.9	20792
887.025	20834
887.149	20629
887.274	20499
887.399	20343
887.523	20454
887.648	20377
887.773	20507
887.897	20549
888.021	20484
888.146	20480
888.27	20511
888.395	20533
888.519	20514
888.643	20499
888.767	20362
888.891	20484
889.015	20328
889.139	20328
889.263	20221
889.387	20366
889.511	20568
889.635	20412
889.759	20324
889.883	20259
890.006	20298
890.13	20377
890.254	20176
890.377	20126
890.501	20058
890.624	19883
890.748	20035
890.871	19963
890.995	19864
891.118	19712
891.241	19795
891.364	19807
891.488	19989
891.611	19898
891.734	19807
891.857	19883
891.98	19902
892.103	19845
892.226	19856
892.349	19845
892.471	19715
892.594	19784
892.717	19753
892.839	19734
892.962	19780
893.085	19898
893.207	19712
893.33	19620
893.452	19681
893.575	19826
893.697	19700
893.819	19845
893.941	19852
894.064	19883
894.186	19738
894.308	19632
894.43	19803
894.552	19803
894.674	19826
894.796	19670
894.918	19776
895.04	19776
895.161	19788
895.283	19795
895.405	19776
895.526	19784
895.648	19578
895.769	19841
895.891	19788
896.012	19875
896.134	19868
896.255	19693
896.376	19799
896.498	19734
896.619	19791
896.74	19719
896.861	19883
896.982	20176
897.103	20237
897.224	19944
897.345	19947
897.466	19887
897.587	20046
897.708	20092
897.828	20012
897.949	19833
898.07	19845
898.19	19852
898.311	20054
898.431	19909
898.552	20065
898.672	20077
898.792	20084
898.913	19970
899.033	19837
899.153	19856
899.273	19795
899.393	19769
899.513	19734
899.633	19738
899.753	19765
899.873	19738
899.993	19761
900.113	19605
900.232	19738
900.352	19651
900.472	19552
900.591	19556
900.711	19590
900.83	19430
900.95	19510
901.069	19620
901.189	19350
901.308	19244
901.427	19145
901.546	19103
901.665	19198
901.784	19103
901.904	18867
902.023	18844
902.141	18711
902.26	18661
902.379	18734
902.498	18608
902.617	18635
902.735	18700
902.854	18620
902.973	18570
903.091	18380
903.21	18224
903.328	18262
903.446	18296
903.565	18034
903.683	18133
903.801	17961
903.919	18121
904.038	18049
904.156	18011
904.274	17977
904.392	17794
904.51	17889
904.627	17817
904.745	17961
904.863	17954
904.981	17608
905.098	17535
905.216	17570
905.334	17566
905.451	17543
905.569	17524
905.686	17497
905.803	17638
905.921	17337
906.038	17524
906.155	17303
906.272	17250
906.389	17353
906.506	17079
906.623	17174
906.74	17109
906.857	16980
906.974	17025
907.091	17204
907.208	17242
907.324	17239
907.441	17010
907.557	16881
907.674	16713
907.79	16725
907.907	16774
908.023	16911
908.139	16896
908.256	16744
908.372	16687
908.488	16683
908.604	16497
908.72	16569
908.836	16584
908.952	16409
909.068	16577
909.184	16668
909.3	16493
909.415	16497
909.531	16478
909.647	16230
909.762	16272
909.878	16261
909.993	16318
910.108	16322
910.224	16223
910.339	16223
910.454	16101
910.57	15987
910.685	16071
910.8	16268
910.915	16249
911.03	16044
911.145	15956
911.259	15903
911.374	15816
911.489	15819
911.604	15732
911.718	15663
911.833	15648
911.947	15450
912.062	15428
912.176	15587
912.291	15564
912.405	15591
912.519	15854
912.633	15751
912.748	15675
912.862	15515
912.976	15473
913.09	15367
913.204	15477
913.318	15405
913.431	15500
913.545	15492
913.659	15519
913.772	15321
913.886	15230
914	15230
914.113	15287
914.226	15329
914.34	15310
914.453	15173
914.566	15249
914.68	15066
914.793	15077
914.906	14834
915.019	14918
915.132	14811
915.245	14902
915.358	14906
915.47	14872
915.583	14785
915.696	14826
915.809	15138
915.921	15005
916.034	14804
916.146	14796
916.259	14667
916.371	14849
916.483	14777
916.595	14549
916.708	14689
916.82	14705
916.932	14674
917.044	14556
917.156	14621
917.268	14465
917.38	14492
917.491	14442
917.603	14355
917.715	14552
917.826	14583
917.938	14351
918.049	14351
918.161	14541
918.272	14594
918.384	14606
918.495	14442
918.606	14294
918.717	14214
918.828	14240
918.939	14275
919.05	14069
919.161	14252
919.272	14062
919.383	14168
919.494	14309
919.604	14480
919.715	14278
919.826	14172
919.936	14195
920.047	14351
920.157	14244
920.267	14415
920.378	14267
920.488	14252
920.598	14377
920.708	14541
920.818	14358
920.928	14396
921.038	14564
921.148	14492
921.258	14252
921.368	14035
921.477	14016
921.587	13959
921.697	13947
921.806	14027
921.916	13803
922.025	13613
922.134	13681
922.244	13632
922.353	13734
922.462	13521
922.571	13529
922.68	13339
922.789	13255
922.898	13346
923.007	13255
923.116	13259
923.224	13320
923.333	13206
923.442	13122
923.55	13095
923.659	13122
923.767	13145
923.876	13053
923.984	13046
924.092	12981
924.201	13023
924.309	12924
924.417	13012
924.525	12920
924.633	12958
924.741	13898
924.849	12840
924.956	12791
925.064	12764
925.172	12616
925.279	12730
925.387	12738
925.494	12719
925.602	12840
925.709	12806
925.816	12635
925.924	12631
926.031	12749
926.138	12642
926.245	12681
926.352	12597
926.459	12715
926.566	12745
926.673	12631
926.779	12498
926.886	12532
926.993	12319
927.099	12315
927.206	12144
927.312	12197
927.419	12342
927.525	12292
927.631	12289
927.737	12270
927.843	12129
927.95	11965
928.056	12117
928.162	12205
928.267	12152
928.373	12772
928.479	12190
928.585	11954
928.69	12060
928.796	12121
928.901	11984
929.007	11927
929.112	11939
929.218	11931
929.323	11817
929.428	11912
929.533	12049
929.638	11794
929.743	11794
929.848	11794
929.953	11767
930.058	11688
930.163	11562
930.267	11570
930.372	11623
930.477	11471
930.581	11764
930.685	11630
930.79	11406
930.894	11402
930.998	11383
931.103	11611
931.207	11208
931.311	11193
931.415	11090
931.519	10824
931.623	10892
