Data from test_V78500241_1921.txt Node
Date: Fri Mar 25 15:55:06 CST 2022
User: usil
Spectrometer: V785-0024
Trigger mode: 0
Integration Time (sec): 4.000000E-1
Scans to average: 1
Nonlinearity correction enabled: false
Boxcar width: 0
Storing dark spectrum: false
XAxis mode: Wavelengths
Number of Pixels in Spectrum: 1024
>>>>>Begin Spectral Data<<<<<
801.071	28542
801.214	28706
801.356	28333
801.499	28276
801.641	28124
801.783	28204
801.926	28230
802.068	28074
802.211	28059
802.353	28090
802.496	27899
802.638	27941
802.78	27861
802.923	27781
803.065	27759
803.208	27698
803.35	27869
803.492	28013
803.635	28059
803.777	28040
803.919	28173
804.061	28318
804.204	28143
804.346	27918
804.488	28196
804.63	28097
804.773	27941
804.915	28181
805.057	28215
805.199	27956
805.341	28143
805.483	28318
805.626	28329
805.768	28192
805.91	28276
806.052	28322
806.194	28158
806.336	28417
806.478	28150
806.62	28325
806.762	28375
806.904	28493
807.046	28721
807.188	28527
807.33	28725
807.472	28820
807.614	28550
807.756	28675
807.898	28645
808.04	28424
808.182	28622
808.324	28660
808.465	28793
808.607	28717
808.749	28915
808.891	29044
809.033	29102
809.174	28900
809.316	28805
809.458	29071
809.6	28980
809.741	29079
809.883	28946
810.025	29155
810.166	29155
810.308	29216
810.45	29220
810.591	29178
810.733	28980
810.875	28919
811.016	28858
811.158	28850
811.299	29006
811.441	29208
811.582	28976
811.724	29075
811.865	28968
812.007	28927
812.148	29006
812.29	28923
812.431	29147
812.573	29318
812.714	29216
812.855	29482
812.997	29452
813.138	29668
813.279	29748
813.421	29406
813.562	29391
813.703	29330
813.845	29254
813.986	28984
814.127	28683
814.268	28675
814.41	28675
814.551	28649
814.692	28744
814.833	28626
814.974	28573
815.115	28748
815.256	28672
815.397	28565
815.539	28523
815.68	28508
815.821	28401
815.962	28516
816.103	28428
816.244	28295
816.385	28177
816.526	28173
816.666	28128
816.807	28021
816.948	28063
817.089	28139
817.23	27914
817.371	27991
817.512	27899
817.653	27888
817.793	27983
817.934	27930
818.075	27941
818.216	27953
818.356	27930
818.497	27808
818.638	27568
818.778	27618
818.919	27701
819.06	27766
819.2	27789
819.341	27903
819.481	28006
819.622	28040
819.762	28394
819.903	28226
820.043	28295
820.184	28143
820.324	28013
820.465	28249
820.605	28055
820.746	28147
820.886	27873
821.026	28097
821.167	28078
821.307	28143
821.447	28082
821.588	27949
821.728	27785
821.868	27485
822.008	27526
822.149	27454
822.289	27351
822.429	27100
822.569	27112
822.709	27104
822.849	26899
822.99	26963
823.13	26891
823.27	26872
823.41	26724
823.55	26796
823.69	26746
823.83	26769
823.97	26746
824.11	26431
824.25	26488
824.389	26488
824.529	26663
824.669	26621
824.809	26655
824.949	26667
825.089	26651
825.228	26632
825.368	26499
825.508	26579
825.648	26492
825.787	26522
825.927	26552
826.067	26404
826.206	26564
826.346	26621
826.485	26530
826.625	26484
826.765	26609
826.904	26564
827.044	26267
827.183	26259
827.323	26168
827.462	26218
827.601	26191
827.741	26035
827.88	26210
828.02	26031
828.159	26138
828.298	26195
828.437	26240
828.577	26183
828.716	26355
828.855	26088
828.994	25841
829.134	25883
829.273	25883
829.412	25727
829.551	25860
829.69	25799
829.829	25818
829.968	25902
830.107	25913
830.246	25769
830.385	25803
830.524	25708
830.663	25662
830.802	25742
830.941	25460
831.08	25419
831.219	25457
831.357	25495
831.496	25693
831.635	25521
831.774	25506
831.913	25411
832.051	25289
832.19	25320
832.329	25198
832.467	25148
832.606	25065
832.744	25046
832.883	25202
833.022	25012
833.16	25221
833.299	25266
833.437	25301
833.576	25114
833.714	25202
833.852	25282
833.991	25320
834.129	25354
834.267	25255
834.406	25297
834.544	25236
834.682	25148
834.821	25209
834.959	25316
835.097	25008
835.235	25152
835.373	25228
835.511	25236
835.65	25015
835.788	25141
835.926	24844
836.064	24696
836.202	24890
836.34	24935
836.478	25061
836.615	25012
836.753	24924
836.891	25114
837.029	24897
837.167	24989
837.305	24966
837.443	24848
837.58	24840
837.718	24852
837.856	24817
837.993	24753
838.131	24772
838.269	24741
838.406	24700
838.544	24665
838.681	24517
838.819	24410
838.956	24311
839.094	24273
839.231	24281
839.369	24475
839.506	24760
839.643	24498
839.781	24479
839.918	24224
840.055	24285
840.193	24232
840.33	24174
840.467	24213
840.604	24247
840.742	24521
840.879	24003
841.016	24235
841.153	24098
841.29	24410
841.427	24213
841.564	24197
841.701	24159
841.838	24182
841.975	24102
842.112	24133
842.249	24224
842.385	23958
842.522	24213
842.659	24072
842.796	23996
842.933	24087
843.069	23904
843.206	23863
843.343	24015
843.479	24049
843.616	24049
843.752	23665
843.889	23794
844.025	23824
844.162	23733
844.298	23790
844.435	23794
844.571	23661
844.708	23627
844.844	23885
844.98	23855
845.117	23760
845.253	23623
845.389	23592
845.525	23726
845.661	23596
845.798	23543
845.934	23528
846.07	23414
846.206	23573
846.342	23657
846.478	23280
846.614	23246
846.75	23296
846.886	23079
847.022	23261
847.158	23185
847.294	23143
847.429	23185
847.565	23197
847.701	23398
847.837	22995
847.972	22904
848.108	23052
848.244	22930
848.379	22908
848.515	22790
848.65	22839
848.786	22801
848.921	22752
849.057	22809
849.192	22919
849.328	22839
849.463	22790
849.598	22637
849.734	22622
849.869	22634
850.004	22516
850.14	22694
850.275	22588
850.41	22455
850.545	22504
850.68	22531
850.815	22577
850.95	22542
851.085	22710
851.22	22679
851.355	22512
851.49	22687
851.625	22580
851.76	22538
851.895	22360
852.03	22432
852.165	22508
852.299	22531
852.434	22622
852.569	22717
852.703	22577
852.838	22565
852.973	22664
853.107	22645
853.242	22580
853.376	22363
853.511	22234
853.645	22325
853.78	22493
853.914	22428
854.048	22325
854.183	22394
854.317	22478
854.451	22611
854.585	22451
854.72	22348
854.854	22367
854.988	22280
855.122	22421
855.256	22246
855.39	22276
855.524	22375
855.658	22466
855.792	22379
855.926	22318
856.06	22413
856.194	22421
856.327	22352
856.461	22242
856.595	22325
856.729	22341
856.862	22409
856.996	22561
857.13	22436
857.263	22436
857.397	22523
857.53	22287
857.664	22451
857.797	22485
857.931	22462
858.064	22428
858.197	22455
858.331	22329
858.464	22344
858.597	22303
858.731	22299
858.864	22226
858.997	22295
859.13	22238
859.263	22329
859.396	22508
859.529	22272
859.662	22382
859.795	22314
859.928	22443
860.061	22592
860.194	22557
860.327	22497
860.46	22325
860.592	22489
860.725	22432
860.858	22542
860.99	22455
861.123	22417
861.256	22249
861.388	22356
861.521	23239
861.653	22310
861.786	22192
861.918	22207
862.05	22272
862.183	22280
862.315	22284
862.447	22409
862.58	22234
862.712	22032
862.844	22131
862.976	22272
863.108	22265
863.24	22653
863.372	22120
863.504	22177
863.636	21968
863.768	22143
863.9	22223
864.032	21945
864.164	21964
864.296	22268
864.428	22192
864.559	22139
864.691	22166
864.823	22192
864.954	22082
865.086	22082
865.217	22002
865.349	21873
865.48	22082
865.612	21964
865.743	22078
865.875	21934
866.006	21975
866.137	21930
866.269	21850
866.4	21941
866.531	21930
866.662	21975
866.793	21907
866.924	21960
867.055	21911
867.186	22029
867.317	21899
867.448	21823
867.579	21934
867.71	21743
867.841	21774
867.972	21983
868.103	21842
868.233	21892
868.364	21975
868.495	21972
868.625	22162
868.756	22322
868.886	22070
869.017	22154
869.147	22318
869.278	22280
869.408	22265
869.539	22162
869.669	22173
869.799	22242
869.929	22306
870.06	22211
870.19	22607
870.32	22554
870.45	22546
870.58	22436
870.71	22584
870.84	22645
870.97	22626
871.1	22500
871.23	22653
871.36	22908
871.489	22729
871.619	22664
871.749	22622
871.879	22774
872.008	22869
872.138	22786
872.267	22839
872.397	22660
872.526	22561
872.656	22672
872.785	22622
872.915	22793
873.044	22927
873.173	22858
873.303	22885
873.432	22957
873.561	22900
873.69	22896
873.819	22752
873.948	22896
874.077	22767
874.206	22668
874.335	22824
874.464	22858
874.593	23018
874.722	22965
874.851	22934
874.979	23022
875.108	23071
875.237	22980
875.365	22892
875.494	23029
875.623	23105
875.751	23052
875.88	22866
876.008	23037
876.136	23128
876.265	23448
876.393	23524
876.521	23410
876.65	23459
876.778	23315
876.906	23318
877.034	23345
877.162	23280
877.29	23296
877.418	23311
877.546	23417
877.674	23318
877.802	23311
877.93	23315
878.058	23379
878.185	23178
878.313	23311
878.441	23258
878.568	23098
878.696	23334
878.824	23353
878.951	23425
879.079	23505
879.206	23695
879.333	23493
879.461	23254
879.588	23406
879.715	23505
879.842	23687
879.97	23288
880.097	23170
880.224	23094
880.351	23136
880.478	23178
880.605	23113
880.732	23147
880.859	23307
880.986	23117
881.112	23178
881.239	23102
881.366	22873
881.493	22824
881.619	22759
881.746	22744
881.872	22736
881.999	22672
882.125	22622
882.252	22637
882.378	22615
882.505	22797
882.631	22478
882.757	22405
882.883	22398
883.01	22447
883.136	22314
883.262	22352
883.388	22249
883.514	22356
883.64	22470
883.766	22325
883.892	22200
884.018	22177
884.143	22249
884.269	22375
884.395	22021
884.52	22032
884.646	21998
884.772	21903
884.897	21930
885.023	22105
885.148	22097
885.274	22173
885.399	22150
885.524	21994
885.65	22147
885.775	22051
885.9	22032
886.025	22002
886.15	22139
886.275	21869
886.4	21850
886.525	21937
886.65	21983
886.775	21949
886.9	22112
887.025	22215
887.149	21937
887.274	21823
887.399	21831
887.523	21846
887.648	21622
887.773	21759
887.897	21819
888.021	21831
888.146	21857
888.27	21778
888.395	21945
888.519	21880
888.643	21690
888.767	21808
888.891	21717
889.015	21705
889.139	21644
889.263	21599
889.387	21667
889.511	21679
889.635	21720
889.759	21458
889.883	21534
890.006	21660
890.13	21622
890.254	21462
890.377	21397
890.501	21340
890.624	21302
890.748	21374
890.871	21154
890.995	21211
891.118	21058
891.241	21055
891.364	21226
891.488	21260
891.611	21214
891.734	21135
891.857	21055
891.98	21119
892.103	21188
892.226	21055
892.349	20982
892.471	20963
892.594	21085
892.717	21081
892.839	20929
892.962	20952
893.085	21096
893.207	21032
893.33	20864
893.452	21039
893.575	21070
893.697	21051
893.819	21135
893.941	21218
894.064	21165
894.186	20944
894.308	20876
894.43	20956
894.552	21233
894.674	21062
894.796	20876
894.918	20994
895.04	20998
895.161	21108
895.283	21150
895.405	20891
895.526	20990
895.648	20982
895.769	21085
895.891	21173
896.012	21036
896.134	21150
896.255	20918
896.376	20914
896.498	20906
896.619	21058
896.74	20998
896.861	21001
896.982	21214
897.103	21473
897.224	21256
897.345	21275
897.466	21055
897.587	21184
897.708	21313
897.828	21131
897.949	21077
898.07	21005
898.19	21051
898.311	21218
898.431	21146
898.552	21058
898.672	21374
898.792	21074
898.913	21161
899.033	21051
899.153	21001
899.273	20788
899.393	21028
899.513	20994
899.633	21001
899.753	20986
899.873	20902
899.993	20967
900.113	20834
900.232	20830
900.352	20826
900.472	20754
900.591	20598
900.711	20708
900.83	20613
900.95	20857
901.069	20739
901.189	20552
901.308	20370
901.427	20267
901.546	20187
901.665	20252
901.784	20259
901.904	20157
902.023	20142
902.141	19875
902.26	19784
902.379	19955
902.498	19811
902.617	19704
902.735	19769
902.854	19685
902.973	19620
903.091	19502
903.21	19388
903.328	19468
903.446	19335
903.565	19202
903.683	19171
903.801	19129
903.919	19190
904.038	19236
904.156	19076
904.274	19110
904.392	18932
904.51	18856
904.627	18897
904.745	18882
904.863	19080
904.981	18741
905.098	18620
905.216	18722
905.334	18585
905.451	18574
905.569	18582
905.686	18696
905.803	18669
905.921	18475
906.038	18642
906.155	18566
906.272	18380
906.389	18353
906.506	18277
906.623	18247
906.74	18216
906.857	18117
906.974	18136
907.091	18277
907.208	18194
907.324	18186
907.441	18076
907.557	17874
907.674	17863
907.79	17779
907.907	17908
908.023	17809
908.139	17878
908.256	17882
908.372	17767
908.488	17748
908.604	17604
908.72	17619
908.836	17596
908.952	17642
909.068	17554
909.184	17718
909.3	17695
909.415	17509
909.531	17680
909.647	17250
909.762	17356
909.878	17273
909.993	17246
910.108	17235
910.224	17113
910.339	17200
910.454	17086
910.57	17067
910.685	17037
910.8	17288
910.915	17200
911.03	17113
911.145	16946
911.259	16797
911.374	16923
911.489	16923
911.604	16713
911.718	16615
911.833	16641
911.947	16489
912.062	16413
912.176	16546
912.291	16630
912.405	16531
912.519	16710
912.633	16752
912.748	16634
912.862	16641
912.976	16443
913.09	16246
913.204	16413
913.318	16390
913.431	16485
913.545	16538
913.659	16516
913.772	16394
913.886	16234
914	16181
914.113	16386
914.226	16280
914.34	16272
914.453	16116
914.566	16192
914.68	16158
914.793	16074
914.906	15930
915.019	15854
915.132	15793
915.245	15717
915.358	15915
915.47	15888
915.583	15698
915.696	15827
915.809	15918
915.921	15846
916.034	15751
916.146	15762
916.259	15625
916.371	15690
916.483	15705
916.595	15660
916.708	15603
916.82	15694
916.932	15568
917.044	15587
917.156	15405
917.268	15462
917.38	15428
917.491	15424
917.603	15447
917.715	15523
917.826	15492
917.938	15336
918.049	15317
918.161	15306
918.272	15500
918.384	15454
918.495	15435
918.606	15146
918.717	15157
918.828	15249
918.939	15226
919.05	15192
919.161	15169
919.272	14868
919.383	14979
919.494	15116
919.604	15294
919.715	15165
919.826	14941
919.936	15104
920.047	15291
920.157	15119
920.267	15321
920.378	15036
920.488	15093
920.598	15195
920.708	15424
920.818	15245
920.928	15249
921.038	15408
921.148	15226
921.258	15074
921.368	14880
921.477	14830
921.587	14868
921.697	14788
921.806	14823
921.916	14712
922.025	14541
922.134	14446
922.244	14457
922.353	14431
922.462	14237
922.571	14248
922.68	14145
922.789	14027
922.898	14183
923.007	13951
923.116	14126
923.224	14100
923.333	14035
923.442	14031
923.55	14008
923.659	13917
923.767	13967
923.876	13928
923.984	13906
924.092	13883
924.201	13871
924.309	13811
924.417	13860
924.525	13750
924.633	13666
924.741	14667
924.849	13601
924.956	13662
925.064	13556
925.172	13426
925.279	13464
925.387	13476
925.494	13434
925.602	13594
925.709	13529
925.816	13499
925.924	13430
926.031	13464
926.138	13388
926.245	13514
926.352	13449
926.459	13403
926.566	13552
926.673	13460
926.779	13206
926.886	13232
926.993	13088
927.099	13145
927.206	13008
927.312	12996
927.419	13031
927.525	13095
927.631	13038
927.737	13023
927.843	12970
927.95	12719
928.056	12935
928.162	12882
928.267	12909
928.373	13540
928.479	13019
928.585	12726
928.69	12882
928.796	12825
928.901	12703
929.007	12589
929.112	12745
929.218	12783
929.323	12616
929.428	12677
929.533	12783
929.638	12448
929.743	12582
929.848	12540
929.953	12620
930.058	12479
930.163	12300
930.267	12292
930.372	12414
930.477	12334
930.581	12437
930.685	12300
930.79	12155
930.894	12232
930.998	12163
931.103	12258
931.207	11931
931.311	11843
931.415	11688
931.519	11611
931.623	11566
