Data from test_V78500241_3511.txt Node
Date: Fri Mar 25 16:06:07 CST 2022
User: usil
Spectrometer: V785-0024
Trigger mode: 0
Integration Time (sec): 4.000000E-1
Scans to average: 1
Nonlinearity correction enabled: false
Boxcar width: 0
Storing dark spectrum: false
XAxis mode: Wavelengths
Number of Pixels in Spectrum: 1024
>>>>>Begin Spectral Data<<<<<
801.071	28820
801.214	28782
801.356	28489
801.499	28459
801.641	28272
801.783	28287
801.926	28436
802.068	28295
802.211	28413
802.353	28333
802.496	28109
802.638	28086
802.78	28032
802.923	28082
803.065	27949
803.208	27979
803.35	28268
803.492	28211
803.635	28246
803.777	28154
803.919	28462
804.061	28577
804.204	28401
804.346	28348
804.488	28341
804.63	28246
804.773	28356
804.915	28382
805.057	28519
805.199	28291
805.341	28398
805.483	28375
805.626	28584
805.768	28409
805.91	28535
806.052	28527
806.194	28432
806.336	28634
806.478	28542
806.62	28611
806.762	28569
806.904	28687
807.046	29181
807.188	28995
807.33	28927
807.472	29048
807.614	29018
807.756	28968
807.898	28755
808.04	28809
808.182	28767
808.324	28820
808.465	28839
808.607	29083
808.749	29109
808.891	29372
809.033	29425
809.174	29227
809.316	29242
809.458	29212
809.6	29220
809.741	29254
809.883	29299
810.025	29596
810.166	29516
810.308	29531
810.45	29440
810.591	29360
810.733	29288
810.875	29174
811.016	29075
811.158	29147
811.299	29345
811.441	29315
811.582	29280
811.724	29193
811.865	29246
812.007	29345
812.148	29235
812.29	29280
812.431	29349
812.573	29672
812.714	29661
812.855	29767
812.997	29771
813.138	29931
813.279	29828
813.421	29824
813.562	29699
813.703	29448
813.845	29528
813.986	29181
814.127	29105
814.268	28908
814.41	29022
814.551	28927
814.692	28976
814.833	28904
814.974	28888
815.115	29056
815.256	28862
815.397	28892
815.539	28919
815.68	28721
815.821	28744
815.962	28717
816.103	28748
816.244	28622
816.385	28668
816.526	28455
816.666	28348
816.807	28196
816.948	28508
817.089	28421
817.23	28257
817.371	28074
817.512	28192
817.653	28181
817.793	28246
817.934	28249
818.075	28200
818.216	28329
818.356	28204
818.497	28116
818.638	27945
818.778	27979
818.919	28013
819.06	28097
819.2	28093
819.341	28291
819.481	28333
819.622	28447
819.762	28672
819.903	28580
820.043	28386
820.184	28344
820.324	28493
820.465	28329
820.605	28413
820.746	28367
820.886	28135
821.026	28428
821.167	28303
821.307	28382
821.447	28246
821.588	28268
821.728	28120
821.868	27922
822.008	27671
822.149	27743
822.289	27618
822.429	27473
822.569	27507
822.709	27348
822.849	27355
822.99	27298
823.13	27195
823.27	27085
823.41	27077
823.55	27089
823.69	26998
823.83	26967
823.97	26940
824.11	26891
824.25	26906
824.389	26891
824.529	27116
824.669	26826
824.809	27135
824.949	26971
825.089	27184
825.228	26937
825.368	26834
825.508	26834
825.648	26743
825.787	26872
825.927	26895
826.067	26731
826.206	26792
826.346	26712
826.485	26804
826.625	26758
826.765	26891
826.904	26895
827.044	26503
827.183	26613
827.323	26446
827.462	26701
827.601	26514
827.741	26594
827.88	26606
828.02	26503
828.159	26434
828.298	26590
828.437	26533
828.577	26408
828.716	26648
828.855	26389
828.994	26145
829.134	26191
829.273	26263
829.412	26145
829.551	26119
829.69	26206
829.829	26214
829.968	26343
830.107	26206
830.246	26119
830.385	26187
830.524	26062
830.663	26062
830.802	25849
830.941	25765
831.08	25830
831.219	25811
831.357	25841
831.496	26161
831.635	25765
831.774	25746
831.913	25700
832.051	25518
832.19	25575
832.329	25601
832.467	25499
832.606	25479
832.744	25460
832.883	25403
833.022	25460
833.16	25510
833.299	25502
833.437	25632
833.576	25491
833.714	25415
833.852	25559
833.991	25597
834.129	25571
834.267	25616
834.406	25468
834.544	25544
834.682	25571
834.821	25586
834.959	25712
835.097	25491
835.235	25594
835.373	25483
835.511	25453
835.65	25441
835.788	25392
835.926	25312
836.064	25152
836.202	25247
836.34	25232
836.478	25346
836.615	25301
836.753	25365
836.891	25449
837.029	25362
837.167	25251
837.305	25263
837.443	25255
837.58	25145
837.718	25278
837.856	25145
837.993	25194
838.131	25095
838.269	24962
838.406	25217
838.544	25012
838.681	24768
838.819	24798
838.956	24703
839.094	24612
839.231	24681
839.369	24935
839.506	25019
839.643	24920
839.781	24734
839.918	24597
840.055	24631
840.193	24570
840.33	24502
840.467	24574
840.604	24456
840.742	24947
840.879	24483
841.016	24452
841.153	24448
841.29	24578
841.427	24639
841.564	24540
841.701	24498
841.838	24494
841.975	24414
842.112	24505
842.249	24266
842.385	24228
842.522	24566
842.659	24319
842.796	24254
842.933	24365
843.069	24182
843.206	24167
843.343	24289
843.479	24304
843.616	24194
843.752	24201
843.889	24106
844.025	24121
844.162	24136
844.298	24220
844.435	24133
844.571	24087
844.708	24140
844.844	24228
844.98	24190
845.117	24220
845.253	24091
845.389	23999
845.525	23961
845.661	23977
845.798	23805
845.934	23809
846.07	23901
846.206	23885
846.342	23908
846.478	23901
846.614	23592
846.75	23417
846.886	23608
847.022	23581
847.158	23531
847.294	23448
847.429	23573
847.565	23417
847.701	23775
847.837	23417
847.972	23273
848.108	23258
848.244	23292
848.379	23178
848.515	23132
848.65	23056
848.786	23239
848.921	23239
849.057	23254
849.192	23387
849.328	23200
849.463	23109
849.598	23052
849.734	23025
849.869	22946
850.004	22721
850.14	22965
850.275	22904
850.41	22839
850.545	22679
850.68	22839
850.815	22877
850.95	22828
851.085	23067
851.22	22999
851.355	22942
851.49	22892
851.625	22896
851.76	22900
851.895	22892
852.03	22694
852.165	22839
852.299	22847
852.434	22946
852.569	22862
852.703	22790
852.838	22854
852.973	22976
853.107	22987
853.242	22976
853.376	22740
853.511	22596
853.645	22691
853.78	22809
853.914	22820
854.048	22668
854.183	22580
854.317	22713
854.451	22850
854.585	22793
854.72	22664
854.854	22778
854.988	22634
855.122	22713
855.256	22554
855.39	22736
855.524	22809
855.658	22774
855.792	22660
855.926	22713
856.06	22736
856.194	22843
856.327	22736
856.461	22710
856.595	22805
856.729	22664
856.862	22885
856.996	22702
857.13	22679
857.263	22850
857.397	22828
857.53	22805
857.664	22656
857.797	22782
857.931	22744
858.064	22618
858.197	22847
858.331	22668
858.464	22653
858.597	22622
858.731	22702
858.864	22626
858.997	22664
859.13	22611
859.263	22774
859.396	22752
859.529	22691
859.662	22512
859.795	22729
859.928	22653
860.061	22885
860.194	22961
860.327	22771
860.46	22675
860.592	22729
860.725	22763
860.858	22740
860.99	22729
861.123	22470
861.256	22683
861.388	22637
861.521	23315
861.653	22634
861.786	22455
861.918	22523
862.05	22653
862.183	22622
862.315	22599
862.447	22687
862.58	22615
862.712	22462
862.844	22413
862.976	22508
863.108	22478
863.24	22767
863.372	22238
863.504	22421
863.636	22466
863.768	22527
863.9	22451
864.032	22200
864.164	22398
864.296	22413
864.428	22554
864.559	22451
864.691	22436
864.823	22470
864.954	22344
865.086	22428
865.217	22348
865.349	22177
865.48	22226
865.612	22276
865.743	22451
865.875	22196
866.006	22261
866.137	22322
866.269	22249
866.4	22261
866.531	22242
866.662	22169
866.793	22116
866.924	22200
867.055	22246
867.186	22185
867.317	22272
867.448	22010
867.579	22207
867.71	22226
867.841	22211
867.972	22242
868.103	22158
868.233	22185
868.364	22185
868.495	22204
868.625	22497
868.756	22573
868.886	22371
869.017	22447
869.147	22500
869.278	22531
869.408	22459
869.539	22382
869.669	22462
869.799	22485
869.929	22535
870.06	22504
870.19	22790
870.32	22752
870.45	22767
870.58	22930
870.71	22949
870.84	22953
870.97	22694
871.1	22923
871.23	22972
871.36	23056
871.489	22843
871.619	22987
871.749	23064
871.879	23094
872.008	23162
872.138	23136
872.267	23113
872.397	22858
872.526	22850
872.656	22824
872.785	22919
872.915	23075
873.044	23083
873.173	23090
873.303	23136
873.432	23075
873.561	23254
873.69	23079
873.819	23136
873.948	23117
874.077	23037
874.206	23033
874.335	23041
874.464	23102
874.593	23181
874.722	23242
874.851	23254
874.979	23284
875.108	23402
875.237	23254
875.365	23254
875.494	23223
875.623	23383
875.751	23231
875.88	23227
876.008	23452
876.136	23391
876.265	23604
876.393	23802
876.521	23752
876.65	23767
876.778	23699
876.906	23649
877.034	23619
877.162	23714
877.29	23539
877.418	23623
877.546	23577
877.674	23543
877.802	23619
877.93	23482
878.058	23661
878.185	23391
878.313	23547
878.441	23657
878.568	23512
878.696	23566
878.824	23604
878.951	23676
879.079	23843
879.206	23783
879.333	23794
879.461	23585
879.588	23684
879.715	23710
879.842	23973
879.97	23741
880.097	23539
880.224	23490
880.351	23581
880.478	23376
880.605	23337
880.732	23402
880.859	23547
880.986	23551
881.112	23459
881.239	23356
881.366	23121
881.493	23090
881.619	23006
881.746	23071
881.872	23166
881.999	22938
882.125	22919
882.252	23067
882.378	23010
882.505	22991
882.631	22710
882.757	22713
882.883	22866
883.01	22653
883.136	22816
883.262	22557
883.388	22588
883.514	22736
883.64	22641
883.766	22630
883.892	22474
884.018	22398
884.143	22672
884.269	22691
884.395	22421
884.52	22253
884.646	22371
884.772	22135
884.897	22112
885.023	22265
885.148	22306
885.274	22497
885.399	22337
885.524	22272
885.65	22348
885.775	22268
885.9	22268
886.025	22325
886.15	22295
886.275	22211
886.4	22223
886.525	22242
886.65	22223
886.775	22253
886.9	22466
887.025	22409
887.149	22341
887.274	22025
887.399	22128
887.523	22070
887.648	21987
887.773	21975
887.897	22002
888.021	22036
888.146	22040
888.27	22082
888.395	22287
888.519	22105
888.643	22067
888.767	22021
888.891	22002
889.015	21831
889.139	21895
889.263	21774
889.387	22032
889.511	22074
889.635	21899
889.759	21720
889.883	21770
890.006	21831
890.13	21876
890.254	21880
890.377	21739
890.501	21591
890.624	21591
890.748	21743
890.871	21568
890.995	21435
891.118	21507
891.241	21450
891.364	21481
891.488	21568
891.611	21355
891.734	21348
891.857	21450
891.98	21401
892.103	21549
892.226	21302
892.349	21325
892.471	21188
892.594	21230
892.717	21416
892.839	21199
892.962	21268
893.085	21283
893.207	21298
893.33	21119
893.452	21283
893.575	21367
893.697	21192
893.819	21412
893.941	21485
894.064	21492
894.186	21150
894.308	21165
894.43	21332
894.552	21405
894.674	21386
894.796	21123
894.918	21154
895.04	21302
895.161	21325
895.283	21355
895.405	21131
895.526	21329
895.648	21302
895.769	21241
895.891	21256
896.012	21310
896.134	21443
896.255	21260
896.376	21176
896.498	21233
896.619	21199
896.74	21256
896.861	21283
896.982	21641
897.103	21599
897.224	21481
897.345	21450
897.466	21473
897.587	21374
897.708	21599
897.828	21454
897.949	21363
898.07	21291
898.19	21431
898.311	21526
898.431	21393
898.552	21374
898.672	21500
898.792	21515
898.913	21481
899.033	21302
899.153	21249
899.273	21112
899.393	21165
899.513	21294
899.633	21157
899.753	21188
899.873	21005
899.993	21081
900.113	21165
900.232	21237
900.352	21176
900.472	21032
900.591	20925
900.711	20960
900.83	20872
900.95	21039
901.069	21001
901.189	20849
901.308	20541
901.427	20431
901.546	20450
901.665	20503
901.784	20617
901.904	20324
902.023	20317
902.141	20092
902.26	20103
902.379	20161
902.498	19909
902.617	19993
902.735	20115
902.854	20035
902.973	19868
903.091	19757
903.21	19643
903.328	19708
903.446	19620
903.565	19449
903.683	19384
903.801	19324
903.919	19426
904.038	19327
904.156	19194
904.274	19236
904.392	19255
904.51	19278
904.627	19274
904.745	19312
904.863	19274
904.981	19072
905.098	18829
905.216	18833
905.334	18943
905.451	18973
905.569	18757
905.686	18954
905.803	18886
905.921	18635
906.038	18753
906.155	18623
906.272	18604
906.389	18559
906.506	18426
906.623	18479
906.74	18384
906.857	18372
906.974	18300
907.091	18483
907.208	18471
907.324	18490
907.441	18372
907.557	18060
907.674	18011
907.79	18083
907.907	18117
908.023	18163
908.139	18194
908.256	18136
908.372	17988
908.488	17958
908.604	17882
908.72	17722
908.836	17870
908.952	17847
909.068	17847
909.184	17885
909.3	17824
909.415	17847
909.531	17786
909.647	17452
909.762	17592
909.878	17410
909.993	17482
910.108	17501
910.224	17452
910.339	17490
910.454	17429
910.57	17455
910.685	17299
910.8	17490
910.915	17558
911.03	17353
911.145	17151
911.259	17143
911.374	17045
911.489	17037
911.604	17033
911.718	16763
911.833	16850
911.947	16797
912.062	16588
912.176	16866
912.291	16831
912.405	16782
912.519	16991
912.633	17014
912.748	16942
912.862	16896
912.976	16824
913.09	16615
913.204	16622
913.318	16675
913.431	16778
913.545	16729
913.659	16812
913.772	16592
913.886	16481
914	16489
914.113	16535
914.226	16599
914.34	16481
914.453	16333
914.566	16440
914.68	16303
914.793	16322
914.906	16093
915.019	15953
915.132	16002
915.245	16010
915.358	16029
915.47	16082
915.583	16040
915.696	15979
915.809	16074
915.921	16242
916.034	16006
916.146	15926
916.259	15903
916.371	15934
916.483	15861
916.595	15736
916.708	15812
916.82	15838
916.932	15755
917.044	15789
917.156	15747
917.268	15747
917.38	15660
917.491	15526
917.603	15576
917.715	15739
917.826	15705
917.938	15622
918.049	15428
918.161	15538
918.272	15625
918.384	15648
918.495	15587
918.606	15355
918.717	15386
918.828	15401
918.939	15485
919.05	15313
919.161	15332
919.272	15123
919.383	15226
919.494	15355
919.604	15500
919.715	15310
919.826	15317
919.936	15332
920.047	15325
920.157	15252
920.267	15473
920.378	15401
920.488	15245
920.598	15412
920.708	15545
920.818	15408
920.928	15523
921.038	15538
921.148	15511
921.258	15325
921.368	15184
921.477	14982
921.587	15017
921.697	14910
921.806	14918
921.916	14819
922.025	14720
922.134	14705
922.244	14670
922.353	14765
922.462	14594
922.571	14511
922.68	14366
922.789	14267
922.898	14347
923.007	14263
923.116	14317
923.224	14256
923.333	14202
923.442	14115
923.55	14119
923.659	14092
923.767	14202
923.876	14088
923.984	14187
924.092	14043
924.201	14081
924.309	14058
924.417	14012
924.525	13890
924.633	13944
924.741	14921
924.849	13712
924.956	13944
925.064	13784
925.172	13639
925.279	13609
925.387	13712
925.494	13666
925.602	13734
925.709	13757
925.816	13628
925.924	13563
926.031	13655
926.138	13556
926.245	13609
926.352	13480
926.459	13571
926.566	13719
926.673	13438
926.779	13365
926.886	13434
926.993	13304
927.099	13183
927.206	13152
927.312	13213
927.419	13232
927.525	13270
927.631	13274
927.737	13129
927.843	13012
927.95	12958
928.056	13031
928.162	13012
928.267	13057
928.373	13643
928.479	13088
928.585	12920
928.69	12996
928.796	12863
928.901	12875
929.007	12684
929.112	12863
929.218	12787
929.323	12776
929.428	12760
929.533	12779
929.638	12681
929.743	12623
929.848	12749
929.953	12646
930.058	12692
930.163	12407
930.267	12407
930.372	12498
930.477	12357
930.581	12494
930.685	12384
930.79	12243
930.894	12330
930.998	12213
931.103	12418
931.207	12095
931.311	11901
931.415	11786
931.519	11653
931.623	11551
