Data from test_V78500241_1133.txt Node
Date: Fri Mar 25 15:49:38 CST 2022
User: usil
Spectrometer: V785-0024
Trigger mode: 0
Integration Time (sec): 4.000000E-1
Scans to average: 1
Nonlinearity correction enabled: false
Boxcar width: 0
Storing dark spectrum: false
XAxis mode: Wavelengths
Number of Pixels in Spectrum: 1024
>>>>>Begin Spectral Data<<<<<
801.071	28474
801.214	28421
801.356	28337
801.499	28166
801.641	28139
801.783	28036
801.926	28086
802.068	28097
802.211	28032
802.353	28055
802.496	27934
802.638	27747
802.78	27739
802.923	27778
803.065	27576
803.208	27698
803.35	27781
803.492	27857
803.635	27895
803.777	27857
803.919	27941
804.061	28504
804.204	28082
804.346	27888
804.488	27926
804.63	28025
804.773	27972
804.915	28006
805.057	28010
805.199	27964
805.341	28051
805.483	28207
805.626	28185
805.768	28139
805.91	28211
806.052	28177
806.194	28051
806.336	28287
806.478	28226
806.62	28219
806.762	28436
806.904	28371
807.046	28653
807.188	28736
807.33	28504
807.472	28573
807.614	28603
807.756	28554
807.898	28512
808.04	28577
808.182	28360
808.324	28519
808.465	28493
808.607	28771
808.749	28850
808.891	28934
809.033	29102
809.174	28999
809.316	28755
809.458	28866
809.6	28839
809.741	28946
809.883	29033
810.025	29121
810.166	29052
810.308	29132
810.45	29132
810.591	29075
810.733	28809
810.875	28793
811.016	28934
811.158	28611
811.299	29056
811.441	29079
811.582	29128
811.724	28976
811.865	28824
812.007	28911
812.148	28919
812.29	29022
812.431	29037
812.573	29151
812.714	29284
812.855	29239
812.997	29608
813.138	29592
813.279	29452
813.421	29562
813.562	29391
813.703	29090
813.845	29246
813.986	29010
814.127	28755
814.268	28683
814.41	28679
814.551	28668
814.692	28725
814.833	28508
814.974	28489
815.115	28634
815.256	28451
815.397	28455
815.539	28421
815.68	28481
815.821	28459
815.962	28459
816.103	28287
816.244	28192
816.385	28226
816.526	28150
816.666	28063
816.807	27717
816.948	28029
817.089	27964
817.23	27914
817.371	27854
817.512	27956
817.653	27914
817.793	27819
817.934	28025
818.075	27873
818.216	27968
818.356	27854
818.497	27774
818.638	27633
818.778	27572
818.919	27755
819.06	27637
819.2	27895
819.341	27895
819.481	27869
819.622	28051
819.762	28204
819.903	28272
820.043	28135
820.184	27747
820.324	28078
820.465	28040
820.605	28135
820.746	28101
820.886	27911
821.026	28044
821.167	28070
821.307	28196
821.447	27876
821.588	27869
821.728	27709
821.868	27610
822.008	27450
822.149	27553
822.289	27283
822.429	27192
822.569	27085
822.709	27096
822.849	26937
822.99	26986
823.13	26971
823.27	26819
823.41	26651
823.55	26511
823.69	26674
823.83	26689
823.97	26583
824.11	26522
824.25	26526
824.389	26564
824.529	26484
824.669	26522
824.809	26568
824.949	26674
825.089	26705
825.228	26655
825.368	26431
825.508	26473
825.648	26446
825.787	26514
825.927	26495
826.067	26419
826.206	26457
826.346	26530
826.485	26564
826.625	26431
826.765	26514
826.904	26590
827.044	26259
827.183	26263
827.323	26195
827.462	26183
827.601	26122
827.741	26073
827.88	26103
828.02	26195
828.159	26062
828.298	26256
828.437	26065
828.577	26081
828.716	26267
828.855	26069
828.994	25909
829.134	25871
829.273	25871
829.412	25643
829.551	25814
829.69	25917
829.829	25917
829.968	25890
830.107	25818
830.246	25818
830.385	25689
830.524	25845
830.663	25628
830.802	25563
830.941	25533
831.08	25369
831.219	25533
831.357	25453
831.496	25670
831.635	25438
831.774	25400
831.913	25422
832.051	25228
832.19	25095
832.329	25278
832.467	25129
832.606	25076
832.744	25076
832.883	25228
833.022	25198
833.16	25141
833.299	25129
833.437	25217
833.576	25251
833.714	25072
833.852	25225
833.991	25164
834.129	25282
834.267	25171
834.406	25198
834.544	25145
834.682	25133
834.821	25263
834.959	25335
835.097	25091
835.235	25148
835.373	25076
835.511	25198
835.65	24939
835.788	25046
835.926	24920
836.064	24840
836.202	24856
836.34	25012
836.478	25019
836.615	24989
836.753	24981
836.891	25091
837.029	24909
837.167	24856
837.305	24905
837.443	24939
837.58	24810
837.718	24939
837.856	24916
837.993	24806
838.131	24867
838.269	24639
838.406	24681
838.544	24623
838.681	24452
838.819	24494
838.956	24388
839.094	24361
839.231	24342
839.369	24517
839.506	24757
839.643	24631
839.781	24342
839.918	24155
840.055	24243
840.193	24308
840.33	24228
840.467	24243
840.604	24178
840.742	24467
840.879	24114
841.016	24182
841.153	24155
841.29	24292
841.427	24281
841.564	24232
841.701	24205
841.838	24079
841.975	24053
842.112	24091
842.249	24174
842.385	23916
842.522	24110
842.659	24018
842.796	23904
842.933	23916
843.069	23745
843.206	23847
843.343	24148
843.479	23920
843.616	23969
843.752	23756
843.889	23718
844.025	23870
844.162	23821
844.298	23771
844.435	23714
844.571	23748
844.708	23741
844.844	23836
844.98	23855
845.117	23722
845.253	23657
845.389	23672
845.525	23596
845.661	23573
845.798	23539
845.934	23547
846.07	23459
846.206	23551
846.342	23619
846.478	23444
846.614	23124
846.75	23185
846.886	23204
847.022	23197
847.158	23189
847.294	23220
847.429	23269
847.565	23113
847.701	23417
847.837	22938
847.972	22987
848.108	22919
848.244	23022
848.379	22847
848.515	22805
848.65	22736
848.786	22706
848.921	22862
849.057	22961
849.192	22771
849.328	22763
849.463	22801
849.598	22736
849.734	22801
849.869	22634
850.004	22569
850.14	22561
850.275	22554
850.41	22478
850.545	22417
850.68	22504
850.815	22565
850.95	22516
851.085	22736
851.22	22603
851.355	22512
851.49	22561
851.625	22641
851.76	22470
851.895	22390
852.03	22459
852.165	22485
852.299	22565
852.434	22607
852.569	22535
852.703	22504
852.838	22626
852.973	22546
853.107	22649
853.242	22516
853.376	22432
853.511	22257
853.645	22280
853.78	22459
853.914	22287
854.048	22295
854.183	22200
854.317	22329
854.451	22535
854.585	22265
854.72	22363
854.854	22386
854.988	22234
855.122	22314
855.256	22188
855.39	22417
855.524	22451
855.658	22436
855.792	22440
855.926	22436
856.06	22306
856.194	22295
856.327	22341
856.461	22249
856.595	22303
856.729	22287
856.862	22409
856.996	22291
857.13	22363
857.263	22440
857.397	22394
857.53	22280
857.664	22348
857.797	22322
857.931	22459
858.064	22299
858.197	22554
858.331	22413
858.464	22394
858.597	22181
858.731	22291
858.864	22223
858.997	22322
859.13	22474
859.263	22318
859.396	22348
859.529	22219
859.662	22253
859.795	22265
859.928	22287
860.061	22455
860.194	22493
860.327	22318
860.46	22299
860.592	22424
860.725	22538
860.858	22451
860.99	22352
861.123	22246
861.256	22272
861.388	22382
861.521	23006
861.653	22280
861.786	22204
861.918	22211
862.05	22173
862.183	22211
862.315	22333
862.447	22257
862.58	22181
862.712	22078
862.844	22067
862.976	22158
863.108	22120
863.24	22584
863.372	21960
863.504	21975
863.636	21915
863.768	22063
863.9	22082
864.032	21987
864.164	22048
864.296	21975
864.428	22303
864.559	22055
864.691	22021
864.823	22021
864.954	21983
865.086	21895
865.217	21949
865.349	21869
865.48	21972
865.612	21930
865.743	22120
865.875	21899
866.006	21903
866.137	22021
866.269	21922
866.4	21926
866.531	21800
866.662	21797
866.793	21835
866.924	21827
867.055	21884
867.186	21812
867.317	21816
867.448	21781
867.579	21789
867.71	21816
867.841	21850
867.972	21880
868.103	21785
868.233	21888
868.364	21842
868.495	22051
868.625	22139
868.756	22162
868.886	22078
869.017	22021
869.147	22200
869.278	22230
869.408	22086
869.539	22082
869.669	22284
869.799	22162
869.929	22249
870.06	22086
870.19	22455
870.32	22394
870.45	22409
870.58	22436
870.71	22656
870.84	22462
870.97	22497
871.1	22573
871.23	22672
871.36	22717
871.489	22485
871.619	22630
871.749	22637
871.879	22721
872.008	22733
872.138	22622
872.267	22721
872.397	22550
872.526	22485
872.656	22436
872.785	22489
872.915	22679
873.044	22683
873.173	22752
873.303	22778
873.432	22675
873.561	22721
873.69	22729
873.819	22653
873.948	22729
874.077	22702
874.206	22611
874.335	22637
874.464	22767
874.593	22869
874.722	22919
874.851	22968
874.979	22824
875.108	23029
875.237	22847
875.365	22740
875.494	22862
875.623	22957
875.751	22908
875.88	22930
876.008	22885
876.136	23151
876.265	23345
876.393	23516
876.521	23356
876.65	23318
876.778	23273
876.906	23250
877.034	23254
877.162	23349
877.29	23117
877.418	23208
877.546	23162
877.674	23124
877.802	23208
877.93	23208
878.058	23208
878.185	23185
878.313	23258
878.441	23174
878.568	23166
878.696	23044
878.824	23330
878.951	23303
879.079	23383
879.206	23585
879.333	23448
879.461	23334
879.588	23436
879.715	23425
879.842	23509
879.97	23341
880.097	23185
880.224	22980
880.351	23128
880.478	23166
880.605	22991
880.732	23025
880.859	23288
880.986	23071
881.112	23067
881.239	22934
881.366	22889
881.493	22721
881.619	22672
881.746	22588
881.872	22607
881.999	22687
882.125	22687
882.252	22622
882.378	22607
882.505	22675
882.631	22417
882.757	22333
882.883	22360
883.01	22268
883.136	22181
883.262	22135
883.388	22173
883.514	22485
883.64	22337
883.766	22234
883.892	22105
884.018	22074
884.143	22173
884.269	22402
884.395	22097
884.52	21968
884.646	22051
884.772	21865
884.897	21842
885.023	21949
885.148	21983
885.274	22044
885.399	22063
885.524	21968
885.65	22002
885.775	21892
885.9	21991
886.025	21998
886.15	22059
886.275	21956
886.4	21895
886.525	21903
886.65	21873
886.775	21876
886.9	21911
887.025	22097
887.149	21869
887.274	21732
887.399	21671
887.523	21656
887.648	21622
887.773	21561
887.897	21747
888.021	21774
888.146	21720
888.27	21644
888.395	21751
888.519	21774
888.643	21724
888.767	21682
888.891	21583
889.015	21538
889.139	21515
889.263	21549
889.387	21599
889.511	21648
889.635	21595
889.759	21389
889.883	21420
890.006	21458
890.13	21492
890.254	21386
890.377	21481
890.501	21214
890.624	21218
890.748	21222
890.871	21135
890.995	21138
891.118	21081
891.241	21188
891.364	21017
891.488	21241
891.611	21013
891.734	21017
891.857	21154
891.98	21123
892.103	21112
892.226	21096
892.349	21036
892.471	20826
892.594	20971
892.717	20963
892.839	21001
892.962	21005
893.085	21013
893.207	20823
893.33	20861
893.452	20925
893.575	20933
893.697	20861
893.819	21096
893.941	21169
894.064	20975
894.186	20914
894.308	20872
894.43	20975
894.552	21036
894.674	21009
894.796	20902
894.918	20864
895.04	20880
895.161	21039
895.283	20906
895.405	20872
895.526	21055
895.648	21020
895.769	20979
895.891	20994
896.012	21100
896.134	20910
896.255	20880
896.376	21020
896.498	20758
896.619	20960
896.74	20845
896.861	20925
896.982	21230
897.103	21336
897.224	21256
897.345	21222
897.466	21138
897.587	21165
897.708	21302
897.828	21211
897.949	21043
898.07	21032
898.19	21116
898.311	21169
898.431	20986
898.552	21081
898.672	21226
898.792	21256
898.913	21100
899.033	21047
899.153	20861
899.273	20781
899.393	20944
899.513	20853
899.633	20800
899.753	20906
899.873	20796
899.993	20876
900.113	20849
900.232	20842
900.352	20689
900.472	20678
900.591	20693
900.711	20640
900.83	20526
900.95	20697
901.069	20727
901.189	20575
901.308	20210
901.427	20176
901.546	20206
901.665	20115
901.784	20240
901.904	20073
902.023	20069
902.141	19833
902.26	19666
902.379	19841
902.498	19693
902.617	19799
902.735	19742
902.854	19704
902.973	19613
903.091	19388
903.21	19381
903.328	19388
903.446	19183
903.565	19160
903.683	19217
903.801	18996
903.919	19122
904.038	19015
904.156	18890
904.274	18989
904.392	18817
904.51	18958
904.627	18817
904.745	18890
904.863	18947
904.981	18825
905.098	18631
905.216	18658
905.334	18688
905.451	18589
905.569	18547
905.686	18540
905.803	18517
905.921	18429
906.038	18509
906.155	18445
906.272	18243
906.389	18155
906.506	18213
906.623	18194
906.74	18133
906.857	18015
906.974	17912
907.091	18197
907.208	18190
907.324	18144
907.441	18068
907.557	17863
907.674	17859
907.79	17802
907.907	17729
908.023	17764
908.139	17927
908.256	17699
908.372	17710
908.488	17615
908.604	17570
908.72	17604
908.836	17585
908.952	17524
909.068	17627
909.184	17649
909.3	17551
909.415	17589
909.531	17497
909.647	17242
909.762	17200
909.878	17204
909.993	17166
910.108	17254
910.224	17143
910.339	17189
910.454	17143
910.57	16991
910.685	16999
910.8	17155
910.915	17200
911.03	17006
911.145	16786
911.259	16797
911.374	16858
911.489	16664
911.604	16824
911.718	16615
911.833	16573
911.947	16466
912.062	16402
912.176	16542
912.291	16637
912.405	16603
912.519	16797
912.633	16672
912.748	16653
912.862	16466
912.976	16413
913.09	16325
913.204	16371
913.318	16287
913.431	16493
913.545	16344
913.659	16478
913.772	16306
913.886	16143
914	16128
914.113	16276
914.226	16215
914.34	16185
914.453	16044
914.566	16257
914.68	16090
914.793	16029
914.906	15812
915.019	15682
915.132	15564
915.245	15766
915.358	15827
915.47	15739
915.583	15739
915.696	15739
915.809	15759
915.921	15816
916.034	15713
916.146	15523
916.259	15629
916.371	15671
916.483	15660
916.595	15637
916.708	15545
916.82	15595
916.932	15507
917.044	15450
917.156	15553
917.268	15329
917.38	15367
917.491	15329
917.603	15340
917.715	15561
917.826	15507
917.938	15355
918.049	15306
918.161	15279
918.272	15462
918.384	15435
918.495	15226
918.606	15146
918.717	15188
918.828	15233
918.939	15127
919.05	15043
919.161	15024
919.272	14921
919.383	14952
919.494	15150
919.604	15351
919.715	15100
919.826	15036
919.936	14990
920.047	15116
920.157	15097
920.267	15310
920.378	15047
920.488	15070
920.598	15173
920.708	15363
920.818	15230
920.928	15222
921.038	15256
921.148	15348
921.258	14948
921.368	14963
921.477	14769
921.587	14746
921.697	14682
921.806	14777
921.916	14636
922.025	14480
922.134	14537
922.244	14358
922.353	14583
922.462	14313
922.571	14301
922.68	14199
922.789	13978
922.898	14176
923.007	13959
923.116	14046
923.224	14005
923.333	14103
923.442	13932
923.55	13852
923.659	13860
923.767	13887
923.876	13822
923.984	13963
924.092	13753
924.201	13822
924.309	13765
924.417	13734
924.525	13719
924.633	13761
924.741	14541
924.849	13460
924.956	13643
925.064	13483
925.172	13407
925.279	13464
925.387	13476
925.494	13434
925.602	13571
925.709	13483
925.816	13324
925.924	13457
926.031	13540
926.138	13346
926.245	13502
926.352	13396
926.459	13407
926.566	13449
926.673	13354
926.779	13247
926.886	13152
926.993	13046
927.099	13023
927.206	13042
927.312	13046
927.419	13019
927.525	13031
927.631	12954
927.737	12973
927.843	12890
927.95	12783
928.056	12760
928.162	12768
928.267	12859
928.373	13346
928.479	12821
928.585	12650
928.69	12802
928.796	12806
928.901	12700
929.007	12544
929.112	12563
929.218	12582
929.323	12612
929.428	12490
929.533	12673
929.638	12471
929.743	12460
929.848	12513
929.953	12414
930.058	12330
930.163	12235
930.267	12152
930.372	12281
930.477	12251
930.581	12399
930.685	12289
930.79	12083
930.894	12136
930.998	12045
931.103	12190
931.207	11863
931.311	11748
931.415	11577
931.519	11486
931.623	11566
