Data from test_V78500241_3346.txt Node
Date: Fri Mar 25 16:04:58 CST 2022
User: usil
Spectrometer: V785-0024
Trigger mode: 0
Integration Time (sec): 4.000000E-1
Scans to average: 1
Nonlinearity correction enabled: false
Boxcar width: 0
Storing dark spectrum: false
XAxis mode: Wavelengths
Number of Pixels in Spectrum: 1024
>>>>>Begin Spectral Data<<<<<
801.071	28759
801.214	28664
801.356	28272
801.499	28413
801.641	28223
801.783	28303
801.926	28337
802.068	28333
802.211	28318
802.353	28150
802.496	28017
802.638	28143
802.78	27945
802.923	28025
803.065	27835
803.208	28029
803.35	27934
803.492	28246
803.635	28070
803.777	28162
803.919	28276
804.061	28523
804.204	28272
804.346	28215
804.488	28070
804.63	28230
804.773	28059
804.915	28344
805.057	28276
805.199	28166
805.341	28318
805.483	28337
805.626	28386
805.768	28173
805.91	28443
806.052	28382
806.194	28185
806.336	28538
806.478	28261
806.62	28390
806.762	28565
806.904	28626
807.046	28919
807.188	28801
807.33	28968
807.472	28881
807.614	28839
807.756	28774
807.898	28641
808.04	28470
808.182	28664
808.324	28615
808.465	28744
808.607	28957
808.749	29064
808.891	29094
809.033	29132
809.174	29189
809.316	29064
809.458	29075
809.6	29105
809.741	29143
809.883	29117
810.025	29280
810.166	29349
810.308	29414
810.45	29258
810.591	29242
810.733	29064
810.875	29006
811.016	29003
811.158	28965
811.299	29235
811.441	29185
811.582	29299
811.724	29090
811.865	29083
812.007	29098
812.148	29124
812.29	29189
812.431	29334
812.573	29227
812.714	29429
812.855	29623
812.997	29646
813.138	29775
813.279	29707
813.421	29760
813.562	29596
813.703	29387
813.845	29086
813.986	29094
814.127	28919
814.268	28809
814.41	28744
814.551	28831
814.692	28930
814.833	28660
814.974	28694
815.115	28733
815.256	28733
815.397	28634
815.539	28706
815.68	28535
815.821	28561
815.962	28497
816.103	28702
816.244	28542
816.385	28360
816.526	28440
816.666	28162
816.807	28116
816.948	28135
817.089	28192
817.23	28166
817.371	28128
817.512	28188
817.653	28150
817.793	28051
817.934	27914
818.075	28086
818.216	28181
818.356	28105
818.497	28032
818.638	27694
818.778	27770
818.919	27895
819.06	27941
819.2	28070
819.341	28124
819.481	28105
819.622	28226
819.762	28523
819.903	28329
820.043	28306
820.184	28280
820.324	28257
820.465	28284
820.605	28230
820.746	28177
820.886	28097
821.026	28177
821.167	28215
821.307	28219
821.447	28253
821.588	28063
821.728	27949
821.868	27739
822.008	27671
822.149	27557
822.289	27682
822.429	27329
822.569	27218
822.709	27298
822.849	27108
822.99	27188
823.13	27028
823.27	26906
823.41	26940
823.55	26746
823.69	26883
823.83	26857
823.97	26811
824.11	26716
824.25	26712
824.389	26731
824.529	26906
824.669	26765
824.809	26804
824.949	26762
825.089	26826
825.228	26800
825.368	26526
825.508	26594
825.648	26560
825.787	26632
825.927	26765
826.067	26648
826.206	26648
826.346	26708
826.485	26807
826.625	26640
826.765	26705
826.904	26606
827.044	26514
827.183	26381
827.323	26469
827.462	26476
827.601	26347
827.741	26343
827.88	26400
828.02	26282
828.159	26252
828.298	26389
828.437	26503
828.577	26244
828.716	26453
828.855	26355
828.994	25989
829.134	26088
829.273	26073
829.412	26092
829.551	25978
829.69	25989
829.829	26134
829.968	26043
830.107	26259
830.246	26050
830.385	25989
830.524	25871
830.663	25890
830.802	25731
830.941	25674
831.08	25605
831.219	25772
831.357	25738
831.496	25856
831.635	25715
831.774	25552
831.913	25613
832.051	25495
832.19	25392
832.329	25457
832.467	25312
832.606	25232
832.744	25251
832.883	25270
833.022	25202
833.16	25411
833.299	25400
833.437	25324
833.576	25613
833.714	25434
833.852	25396
833.991	25491
834.129	25411
834.267	25403
834.406	25358
834.544	25365
834.682	25415
834.821	25377
834.959	25476
835.097	25407
835.235	25510
835.373	25362
835.511	25285
835.65	25244
835.788	25304
835.926	25091
836.064	25046
836.202	25122
836.34	25202
836.478	25282
836.615	25194
836.753	25251
836.891	25251
837.029	25327
837.167	25141
837.305	25137
837.443	25091
837.58	25038
837.718	25000
837.856	24909
837.993	25057
838.131	24840
838.269	25061
838.406	25004
838.544	24878
838.681	24749
838.819	24772
838.956	24566
839.094	24490
839.231	24559
839.369	24612
839.506	24901
839.643	24798
839.781	24604
839.918	24490
840.055	24540
840.193	24486
840.33	24544
840.467	24273
840.604	24513
840.742	24783
840.879	24300
841.016	24342
841.153	24266
841.29	24521
841.427	24410
841.564	24350
841.701	24361
841.838	24418
841.975	24433
842.112	24296
842.249	24216
842.385	24216
842.522	24414
842.659	24376
842.796	24182
842.933	24136
843.069	24049
843.206	24117
843.343	24273
843.479	24155
843.616	24216
843.752	23908
843.889	23992
844.025	24114
844.162	23904
844.298	24053
844.435	23908
844.571	23878
844.708	23916
844.844	24106
844.98	24091
845.117	23980
845.253	23946
845.389	23813
845.525	23859
845.661	23733
845.798	23676
845.934	23794
846.07	23764
846.206	23642
846.342	23893
846.478	23676
846.614	23589
846.75	23292
846.886	23330
847.022	23501
847.158	23436
847.294	23444
847.429	23372
847.565	23296
847.701	23665
847.837	23147
847.972	23083
848.108	23235
848.244	23178
848.379	23029
848.515	22873
848.65	22900
848.786	23003
848.921	22995
849.057	23178
849.192	22938
849.328	23037
849.463	23109
849.598	22984
849.734	22881
849.869	22831
850.004	22782
850.14	22797
850.275	22713
850.41	22596
850.545	22603
850.68	22660
850.815	22710
850.95	22782
851.085	23037
851.22	22892
851.355	22862
851.49	22634
851.625	22801
851.76	22702
851.895	22683
852.03	22710
852.165	22717
852.299	22771
852.434	22873
852.569	22721
852.703	22713
852.838	22771
852.973	22809
853.107	22816
853.242	22618
853.376	22618
853.511	22462
853.645	22626
853.78	22767
853.914	22584
854.048	22512
854.183	22580
854.317	22580
854.451	22660
854.585	22523
854.72	22565
854.854	22778
854.988	22478
855.122	22634
855.256	22455
855.39	22596
855.524	22630
855.658	22702
855.792	22565
855.926	22630
856.06	22542
856.194	22660
856.327	22516
856.461	22440
856.595	22481
856.729	22565
856.862	22588
856.996	22519
857.13	22786
857.263	22615
857.397	22577
857.53	22577
857.664	22523
857.797	22668
857.931	22691
858.064	22618
858.197	22622
858.331	22603
858.464	22489
858.597	22523
858.731	22580
858.864	22443
858.997	22687
859.13	22645
859.263	22542
859.396	22733
859.529	22508
859.662	22440
859.795	22508
859.928	22626
860.061	22736
860.194	22717
860.327	22607
860.46	22580
860.592	22664
860.725	22668
860.858	22725
860.99	22523
861.123	22405
861.256	22443
861.388	22618
861.521	23311
861.653	22413
861.786	22363
861.918	22466
862.05	22459
862.183	22500
862.315	22436
862.447	22561
862.58	22459
862.712	22325
862.844	22238
862.976	22284
863.108	22303
863.24	22637
863.372	22329
863.504	22287
863.636	22398
863.768	22459
863.9	22386
864.032	22181
864.164	22341
864.296	22310
864.428	22246
864.559	22333
864.691	22360
864.823	22382
864.954	22268
865.086	22223
865.217	22181
865.349	22059
865.48	22135
865.612	22238
865.743	22325
865.875	22188
866.006	22181
866.137	22280
866.269	22105
866.4	22078
866.531	22074
866.662	22112
866.793	22029
866.924	22044
867.055	22150
867.186	22067
867.317	22002
867.448	21975
867.579	21941
867.71	22002
867.841	21953
867.972	22112
868.103	22017
868.233	22150
868.364	22105
868.495	22295
868.625	22325
868.756	22459
868.886	22234
869.017	22207
869.147	22405
869.278	22371
869.408	22375
869.539	22284
869.669	22356
869.799	22367
869.929	22462
870.06	22432
870.19	22584
870.32	22459
870.45	22649
870.58	22512
870.71	22847
870.84	22782
870.97	22649
871.1	22801
871.23	22854
871.36	22889
871.489	22938
871.619	22953
871.749	23018
871.879	23022
872.008	23056
872.138	22949
872.267	22850
872.397	22816
872.526	22778
872.656	22656
872.785	22774
872.915	22915
873.044	23052
873.173	22972
873.303	23048
873.432	23052
873.561	23121
873.69	22968
873.819	22984
873.948	22915
874.077	22873
874.206	22938
874.335	23018
874.464	22949
874.593	23200
874.722	23132
874.851	23113
874.979	23200
875.108	23250
875.237	23162
875.365	23098
875.494	23155
875.623	23212
875.751	23094
875.88	23151
876.008	23311
876.136	23433
876.265	23619
876.393	23760
876.521	23524
876.65	23634
876.778	23604
876.906	23547
877.034	23440
877.162	23436
877.29	23406
877.418	23471
877.546	23493
877.674	23471
877.802	23524
877.93	23512
878.058	23455
878.185	23151
878.313	23448
878.441	23520
878.568	23250
878.696	23376
878.824	23501
878.951	23455
879.079	23676
879.206	23817
879.333	23737
879.461	23474
879.588	23752
879.715	23767
879.842	23718
879.97	23467
880.097	23318
880.224	23353
880.351	23372
880.478	23368
880.605	23410
880.732	23341
880.859	23501
880.986	23322
881.112	23299
881.239	23037
881.366	23083
881.493	23071
881.619	22919
881.746	22896
881.872	22923
881.999	22820
882.125	22904
882.252	22934
882.378	22797
882.505	22942
882.631	22763
882.757	22478
882.883	22664
883.01	22527
883.136	22557
883.262	22455
883.388	22466
883.514	22664
883.64	22542
883.766	22382
883.892	22417
884.018	22356
884.143	22478
884.269	22561
884.395	22394
884.52	22223
884.646	22226
884.772	22059
884.897	22078
885.023	22128
885.148	22226
885.274	22284
885.399	22093
885.524	22204
885.65	22226
885.775	22166
885.9	22242
886.025	22200
886.15	22230
886.275	22116
886.4	22211
886.525	22124
886.65	22112
886.775	22143
886.9	22325
887.025	22303
887.149	22261
887.274	22006
887.399	21964
887.523	21892
887.648	21846
887.773	21739
887.897	21945
888.021	22044
888.146	21926
888.27	22021
888.395	22139
888.519	21918
888.643	21964
888.767	21911
888.891	21953
889.015	21819
889.139	21842
889.263	21728
889.387	21793
889.511	21876
889.635	21838
889.759	21728
889.883	21724
890.006	21739
890.13	21888
890.254	21587
890.377	21641
890.501	21515
890.624	21466
890.748	21534
890.871	21428
890.995	21207
891.118	21226
891.241	21336
891.364	21241
891.488	21439
891.611	21241
891.734	21363
891.857	21306
891.98	21378
892.103	21222
892.226	21256
892.349	21150
892.471	21005
892.594	21260
892.717	21184
892.839	21222
892.962	21245
893.085	21226
893.207	21055
893.33	20971
893.452	21032
893.575	21203
893.697	21157
893.819	21340
893.941	21374
894.064	21302
894.186	21055
894.308	21135
894.43	21169
894.552	21268
894.674	21146
894.796	21047
894.918	21039
895.04	21093
895.161	21252
895.283	21272
895.405	21058
895.526	21024
895.648	21199
895.769	21161
895.891	21131
896.012	21165
896.134	21241
896.255	21146
896.376	21127
896.498	21077
896.619	21241
896.74	21089
896.861	21226
896.982	21416
897.103	21610
897.224	21367
897.345	21374
897.466	21214
897.587	21310
897.708	21348
897.828	21294
897.949	21222
898.07	21199
898.19	21226
898.311	21553
898.431	21298
898.552	21317
898.672	21378
898.792	21393
898.913	21344
899.033	21233
899.153	21173
899.273	21028
899.393	20998
899.513	21116
899.633	21108
899.753	21135
899.873	21024
899.993	21039
900.113	21070
900.232	20979
900.352	20994
900.472	20842
900.591	20807
900.711	20925
900.83	20678
900.95	21001
901.069	20891
901.189	20758
901.308	20419
901.427	20503
901.546	20377
901.665	20286
901.784	20412
901.904	20347
902.023	20119
902.141	20001
902.26	19974
902.379	19932
902.498	19925
902.617	19947
902.735	19989
902.854	20016
902.973	19784
903.091	19620
903.21	19525
903.328	19597
903.446	19552
903.565	19297
903.683	19293
903.801	19282
903.919	19304
904.038	19316
904.156	19255
904.274	19194
904.392	19209
904.51	19152
904.627	19057
904.745	19107
904.863	19137
904.981	18897
905.098	18795
905.216	18726
905.334	18791
905.451	18772
905.569	18722
905.686	18738
905.803	18760
905.921	18791
906.038	18703
906.155	18620
906.272	18494
906.389	18452
906.506	18289
906.623	18376
906.74	18365
906.857	18251
906.974	18300
907.091	18429
907.208	18372
907.324	18308
907.441	18155
907.557	17977
907.674	17958
907.79	17965
907.907	17912
908.023	18038
908.139	18076
908.256	17988
908.372	17950
908.488	17870
908.604	17760
908.72	17699
908.836	17733
908.952	17764
909.068	17767
909.184	17866
909.3	17771
909.415	17726
909.531	17756
909.647	17535
909.762	17490
909.878	17383
909.993	17471
910.108	17379
910.224	17402
910.339	17402
910.454	17318
910.57	17337
910.685	17086
910.8	17444
910.915	17421
911.03	17216
911.145	17052
911.259	16957
911.374	16942
911.489	17018
911.604	16900
911.718	16733
911.833	16847
911.947	16675
912.062	16656
912.176	16687
912.291	16694
912.405	16782
912.519	16824
912.633	16869
912.748	16733
912.862	16744
912.976	16538
913.09	16481
913.204	16478
913.318	16516
913.431	16675
913.545	16679
913.659	16687
913.772	16485
913.886	16432
914	16436
914.113	16405
914.226	16489
914.34	16421
914.453	16211
914.566	16329
914.68	16200
914.793	16215
914.906	16036
915.019	15934
915.132	15922
915.245	15953
915.358	15918
915.47	15926
915.583	15884
915.696	15899
915.809	16093
915.921	16071
916.034	15926
916.146	15728
916.259	15827
916.371	15949
916.483	15819
916.595	15854
916.708	15705
916.82	15857
916.932	15759
917.044	15686
917.156	15591
917.268	15545
917.38	15557
917.491	15500
917.603	15542
917.715	15633
917.826	15549
917.938	15447
918.049	15393
918.161	15580
918.272	15568
918.384	15538
918.495	15428
918.606	15351
918.717	15279
918.828	15291
918.939	15397
919.05	15013
919.161	15275
919.272	15001
919.383	15135
919.494	15294
919.604	15504
919.715	15176
919.826	15252
919.936	15222
920.047	15268
920.157	15176
920.267	15374
920.378	15279
920.488	15146
920.598	15397
920.708	15507
920.818	15321
920.928	15382
921.038	15500
921.148	15420
921.258	15138
921.368	15043
921.477	14876
921.587	14849
921.697	14842
921.806	14967
921.916	14739
922.025	14663
922.134	14594
922.244	14530
922.353	14606
922.462	14488
922.571	14385
922.68	14294
922.789	14248
922.898	14275
923.007	14275
923.116	14317
923.224	14252
923.333	14126
923.442	14069
923.55	14111
923.659	14134
923.767	14168
923.876	14008
923.984	14081
924.092	13993
924.201	13955
924.309	13967
924.417	13986
924.525	13833
924.633	13890
924.741	14849
924.849	13795
924.956	13807
925.064	13708
925.172	13632
925.279	13605
925.387	13674
925.494	13590
925.602	13826
925.709	13685
925.816	13499
925.924	13594
926.031	13616
926.138	13616
926.245	13613
926.352	13415
926.459	13628
926.566	13693
926.673	13609
926.779	13499
926.886	13373
926.993	13221
927.099	13080
927.206	13168
927.312	13114
927.419	13194
927.525	13301
927.631	13183
927.737	13114
927.843	13076
927.95	13004
928.056	13031
928.162	13076
928.267	13065
928.373	13578
928.479	13084
928.585	12852
928.69	12905
928.796	13015
928.901	12821
929.007	12692
929.112	12878
929.218	12753
929.323	12627
929.428	12673
929.533	12856
929.638	12696
929.743	12703
929.848	12734
929.953	12684
930.058	12460
930.163	12471
930.267	12365
930.372	12540
930.477	12296
930.581	12536
930.685	12475
930.79	12175
930.894	12251
930.998	12133
931.103	12426
931.207	11939
931.311	11939
931.415	11786
931.519	11619
931.623	11608
