Data from test_V78500241_2064.txt Node
Date: Fri Mar 25 15:56:05 CST 2022
User: usil
Spectrometer: V785-0024
Trigger mode: 0
Integration Time (sec): 4.000000E-1
Scans to average: 1
Nonlinearity correction enabled: false
Boxcar width: 0
Storing dark spectrum: false
XAxis mode: Wavelengths
Number of Pixels in Spectrum: 1024
>>>>>Begin Spectral Data<<<<<
801.071	28858
801.214	28847
801.356	28675
801.499	28634
801.641	28523
801.783	28512
801.926	28645
802.068	28531
802.211	28508
802.353	28447
802.496	28303
802.638	28211
802.78	28204
802.923	28192
803.065	28242
803.208	28112
803.35	28268
803.492	28481
803.635	28413
803.777	28280
803.919	28474
804.061	28824
804.204	28466
804.346	28432
804.488	28360
804.63	28500
804.773	28424
804.915	28519
805.057	28519
805.199	28497
805.341	28675
805.483	28592
805.626	28573
805.768	28497
805.91	28656
806.052	28744
806.194	28611
806.336	28752
806.478	28599
806.62	28641
806.762	28763
806.904	28888
807.046	29273
807.188	29018
807.33	29193
807.472	29151
807.614	29006
807.756	29159
807.898	28995
808.04	28881
808.182	28896
808.324	28934
808.465	29086
808.607	29330
808.749	29341
808.891	29406
809.033	29414
809.174	29341
809.316	29406
809.458	29280
809.6	29318
809.741	29383
809.883	29642
810.025	29726
810.166	29653
810.308	29653
810.45	29566
810.591	29585
810.733	29307
810.875	29345
811.016	29235
811.158	29204
811.299	29436
811.441	29562
811.582	29547
811.724	29429
811.865	29467
812.007	29379
812.148	29349
812.29	29417
812.431	29577
812.573	29646
812.714	29798
812.855	29927
812.997	29805
813.138	30098
813.279	30140
813.421	29889
813.562	29862
813.703	29687
813.845	29509
813.986	29200
814.127	29140
814.268	29136
814.41	29098
814.551	29109
814.692	29117
814.833	29064
814.974	29181
815.115	29075
815.256	28965
815.397	29029
815.539	28987
815.68	28847
815.821	28774
815.962	28927
816.103	28908
816.244	28809
816.385	28675
816.526	28786
816.666	28489
816.807	28295
816.948	28508
817.089	28413
817.23	28497
817.371	28379
817.512	28367
817.653	28417
817.793	28234
817.934	28443
818.075	28424
818.216	28436
818.356	28261
818.497	28299
818.638	28078
818.778	28124
818.919	28192
819.06	28284
819.2	28360
819.341	28398
819.481	28333
819.622	28584
819.762	28816
819.903	28664
820.043	28580
820.184	28645
820.324	28577
820.465	28752
820.605	28447
820.746	28432
820.886	28314
821.026	28538
821.167	28542
821.307	28584
821.447	28462
821.588	28341
821.728	28181
821.868	28032
822.008	27895
822.149	27903
822.289	27846
822.429	27553
822.569	27519
822.709	27618
822.849	27260
822.99	27507
823.13	27450
823.27	27340
823.41	27302
823.55	27123
823.69	27306
823.83	27264
823.97	27195
824.11	26990
824.25	27024
824.389	26944
824.529	27104
824.669	27154
824.809	27070
824.949	27043
825.089	27146
825.228	27173
825.368	26826
825.508	26834
825.648	26906
825.787	26887
825.927	26929
826.067	26994
826.206	26940
826.346	27062
826.485	26948
826.625	26861
826.765	27081
826.904	26990
827.044	26701
827.183	26655
827.323	26625
827.462	26602
827.601	26606
827.741	26800
827.88	26693
828.02	26492
828.159	26518
828.298	26670
828.437	26727
828.577	26667
828.716	26712
828.855	26389
828.994	26343
829.134	26450
829.273	26412
829.412	26301
829.551	26248
829.69	26320
829.829	26438
829.968	26370
830.107	26438
830.246	26347
830.385	26248
830.524	26183
830.663	26164
830.802	26115
830.941	25875
831.08	26001
831.219	26077
831.357	26001
831.496	26180
831.635	25932
831.774	25864
831.913	25849
832.051	25761
832.19	25772
832.329	25723
832.467	25624
832.606	25559
832.744	25499
832.883	25499
833.022	25495
833.16	25597
833.299	25635
833.437	25616
833.576	25883
833.714	25643
833.852	25723
833.991	25582
834.129	25750
834.267	25658
834.406	25594
834.544	25628
834.682	25719
834.821	25556
834.959	25887
835.097	25613
835.235	25582
835.373	25628
835.511	25647
835.65	25468
835.788	25518
835.926	25339
836.064	25377
836.202	25377
836.34	25502
836.478	25479
836.615	25453
836.753	25609
836.891	25575
837.029	25616
837.167	25449
837.305	25438
837.443	25266
837.58	25270
837.718	25308
837.856	25396
837.993	25240
838.131	25244
838.269	25156
838.406	25266
838.544	25122
838.681	24981
838.819	24939
838.956	24776
839.094	24791
839.231	24802
839.369	24897
839.506	25046
839.643	25008
839.781	24810
839.918	24791
840.055	24677
840.193	24772
840.33	24604
840.467	24677
840.604	24703
840.742	24913
840.879	24612
841.016	24555
841.153	24593
841.29	24654
841.427	24688
841.564	24608
841.701	24559
841.838	24650
841.975	24551
842.112	24589
842.249	24441
842.385	24369
842.522	24612
842.659	24410
842.796	24574
842.933	24437
843.069	24437
843.206	24327
843.343	24429
843.479	24547
843.616	24334
843.752	24205
843.889	24216
844.025	24357
844.162	24216
844.298	24372
844.435	24148
844.571	24201
844.708	24216
844.844	24372
844.98	24334
845.117	24159
845.253	24163
845.389	24022
845.525	24041
845.661	23984
845.798	23931
845.934	24121
846.07	23980
846.206	23999
846.342	24045
846.478	23950
846.614	23691
846.75	23562
846.886	23649
847.022	23661
847.158	23672
847.294	23547
847.429	23726
847.565	23581
847.701	23859
847.837	23387
847.972	23376
848.108	23592
848.244	23455
848.379	23337
848.515	23246
848.65	23277
848.786	23235
848.921	23170
849.057	23372
849.192	23387
849.328	23239
849.463	23277
849.598	23216
849.734	23155
849.869	23178
850.004	23010
850.14	23147
850.275	23022
850.41	22942
850.545	23044
850.68	23003
850.815	23014
850.95	22919
851.085	23239
851.22	23147
851.355	22957
851.49	22980
851.625	22968
851.76	23041
851.895	22942
852.03	22968
852.165	22953
852.299	23105
852.434	23037
852.569	23086
852.703	22892
852.838	23098
852.973	23067
853.107	23189
853.242	22919
853.376	22816
853.511	22691
853.645	22687
853.78	22961
853.914	22866
854.048	22782
854.183	22687
854.317	22873
854.451	23018
854.585	22900
854.72	22873
854.854	22835
854.988	22763
855.122	22729
855.256	22717
855.39	22675
855.524	22999
855.658	22801
855.792	22850
855.926	22877
856.06	22710
856.194	22904
856.327	22858
856.461	22767
856.595	22782
856.729	22740
856.862	22995
856.996	22790
857.13	22733
857.263	22847
857.397	22839
857.53	22828
857.664	22949
857.797	22927
857.931	23029
858.064	22725
858.197	22942
858.331	22900
858.464	22596
858.597	22717
858.731	22824
858.864	22767
858.997	22710
859.13	22694
859.263	22793
859.396	22831
859.529	22694
859.662	22755
859.795	22763
859.928	22816
860.061	23071
860.194	23014
860.327	22748
860.46	22816
860.592	22900
860.725	22984
860.858	23037
860.99	22717
861.123	22626
861.256	22733
861.388	22786
861.521	23551
861.653	22721
861.786	22538
861.918	22653
862.05	22626
862.183	22634
862.315	22641
862.447	22725
862.58	22706
862.712	22557
862.844	22565
862.976	22573
863.108	22645
863.24	22877
863.372	22432
863.504	22432
863.636	22493
863.768	22493
863.9	22421
864.032	22379
864.164	22417
864.296	22417
864.428	22645
864.559	22577
864.691	22481
864.823	22436
864.954	22497
865.086	22394
865.217	22459
865.349	22405
865.48	22322
865.612	22432
865.743	22519
865.875	22360
866.006	22478
866.137	22428
866.269	22375
866.4	22352
866.531	22306
866.662	22306
866.793	22394
866.924	22268
867.055	22268
867.186	22344
867.317	22394
867.448	22147
867.579	22272
867.71	22215
867.841	22211
867.972	22299
868.103	22322
868.233	22405
868.364	22333
868.495	22337
868.625	22523
868.756	22656
868.886	22557
869.017	22546
869.147	22630
869.278	22679
869.408	22504
869.539	22481
869.669	22637
869.799	22618
869.929	22641
870.06	22615
870.19	22797
870.32	22771
870.45	23006
870.58	22927
870.71	22999
870.84	23025
870.97	22915
871.1	22965
871.23	23147
871.36	23098
871.489	22999
871.619	23261
871.749	23079
871.879	23117
872.008	23189
872.138	23200
872.267	23170
872.397	22942
872.526	23044
872.656	22991
872.785	22991
872.915	23235
873.044	23193
873.173	23124
873.303	23258
873.432	23159
873.561	23311
873.69	23204
873.819	23132
873.948	23334
874.077	23166
874.206	23121
874.335	23143
874.464	23208
874.593	23501
874.722	23288
874.851	23353
874.979	23425
875.108	23482
875.237	23406
875.365	23261
875.494	23471
875.623	23471
875.751	23322
875.88	23376
876.008	23467
876.136	23547
876.265	23805
876.393	23805
876.521	23851
876.65	23908
876.778	23790
876.906	23703
877.034	23733
877.162	23752
877.29	23714
877.418	23737
877.546	23779
877.674	23775
877.802	23764
877.93	23729
878.058	23653
878.185	23684
878.313	23684
878.441	23589
878.568	23444
878.696	23722
878.824	23649
878.951	23756
879.079	23885
879.206	23999
879.333	23821
879.461	23665
879.588	23840
879.715	23843
879.842	24076
879.97	23760
880.097	23528
880.224	23478
880.351	23646
880.478	23505
880.605	23516
880.732	23604
880.859	23893
880.986	23417
881.112	23505
881.239	23307
881.366	23280
881.493	23242
881.619	23079
881.746	23098
881.872	23113
881.999	23067
882.125	22995
882.252	23151
882.378	23064
882.505	23185
882.631	22938
882.757	22721
882.883	22835
883.01	22736
883.136	22755
883.262	22588
883.388	22428
883.514	22736
883.64	22687
883.766	22702
883.892	22428
884.018	22443
884.143	22740
884.269	22717
884.395	22352
884.52	22352
884.646	22394
884.772	22402
884.897	22352
885.023	22375
885.148	22432
885.274	22478
885.399	22424
885.524	22287
885.65	22459
885.775	22417
885.9	22413
886.025	22504
886.15	22417
886.275	22318
886.4	22303
886.525	22280
886.65	22322
886.775	22314
886.9	22508
887.025	22584
887.149	22367
887.274	22181
887.399	21994
887.523	22131
887.648	22204
887.773	22135
887.897	22215
888.021	22242
888.146	21975
888.27	22265
888.395	22196
888.519	22188
888.643	22112
888.767	22280
888.891	22021
889.015	21907
889.139	22048
889.263	21827
889.387	22051
889.511	22185
889.635	22109
889.759	21911
889.883	21842
890.006	21953
890.13	22029
890.254	21842
890.377	21922
890.501	21705
890.624	21705
890.748	21785
890.871	21561
890.995	21401
891.118	21374
891.241	21424
891.364	21469
891.488	21595
891.611	21454
891.734	21572
891.857	21553
891.98	21420
892.103	21511
892.226	21428
892.349	21416
892.471	21294
892.594	21420
892.717	21462
892.839	21302
892.962	21359
893.085	21370
893.207	21256
893.33	21218
893.452	21306
893.575	21412
893.697	21260
893.819	21530
893.941	21530
894.064	21580
894.186	21275
894.308	21237
894.43	21466
894.552	21458
894.674	21393
894.796	21344
894.918	21287
895.04	21321
895.161	21393
895.283	21424
895.405	21401
895.526	21351
895.648	21340
895.769	21340
895.891	21382
896.012	21386
896.134	21340
896.255	21256
896.376	21325
896.498	21378
896.619	21317
896.74	21256
896.861	21386
896.982	21564
897.103	21747
897.224	21492
897.345	21568
897.466	21530
897.587	21481
897.708	21667
897.828	21481
897.949	21450
898.07	21313
898.19	21447
898.311	21564
898.431	21435
898.552	21397
898.672	21580
898.792	21648
898.913	21443
899.033	21397
899.153	21279
899.273	21173
899.393	21230
899.513	21325
899.633	21310
899.753	21298
899.873	21252
899.993	21298
900.113	21089
900.232	21222
900.352	21195
900.472	21024
900.591	20941
900.711	21043
900.83	21013
900.95	21062
901.069	21032
901.189	20937
901.308	20629
901.427	20655
901.546	20564
901.665	20606
901.784	20598
901.904	20469
902.023	20298
902.141	20145
902.26	20134
902.379	20115
902.498	19970
902.617	20050
902.735	20065
902.854	19936
902.973	19879
903.091	19795
903.21	19795
903.328	19712
903.446	19590
903.565	19590
903.683	19495
903.801	19521
903.919	19472
904.038	19430
904.156	19346
904.274	19388
904.392	19289
904.51	19278
904.627	19308
904.745	19282
904.863	19308
904.981	19072
905.098	18932
905.216	18985
905.334	18875
905.451	18916
905.569	18920
905.686	18985
905.803	18932
905.921	18738
906.038	18806
906.155	18677
906.272	18688
906.389	18703
906.506	18608
906.623	18536
906.74	18372
906.857	18323
906.974	18346
907.091	18555
907.208	18532
907.324	18429
907.441	18414
907.557	18273
907.674	18148
907.79	18167
907.907	18144
908.023	18205
908.139	18251
908.256	18178
908.372	18015
908.488	18095
908.604	17977
908.72	17920
908.836	17843
908.952	17946
909.068	17969
909.184	17965
909.3	17863
909.415	18072
909.531	17843
909.647	17684
909.762	17581
909.878	17535
909.993	17646
910.108	17486
910.224	17520
910.339	17535
910.454	17368
910.57	17406
910.685	17322
910.8	17623
910.915	17532
911.03	17376
911.145	17258
911.259	17170
911.374	17189
911.489	17143
911.604	17090
911.718	16873
911.833	16843
911.947	16839
912.062	16729
912.176	16911
912.291	16984
912.405	16873
912.519	17067
912.633	17124
912.748	16987
912.862	16816
912.976	16733
913.09	16630
913.204	16641
913.318	16691
913.431	16866
913.545	16725
913.659	16866
913.772	16664
913.886	16447
914	16432
914.113	16645
914.226	16634
914.34	16538
914.453	16379
914.566	16413
914.68	16272
914.793	16322
914.906	16116
915.019	16059
915.132	15949
915.245	16074
915.358	16006
915.47	16021
915.583	16063
915.696	16048
915.809	16143
915.921	16131
916.034	15994
916.146	15953
916.259	15991
916.371	16002
916.483	15983
916.595	15838
916.708	15892
916.82	15915
916.932	15819
917.044	15785
917.156	15823
917.268	15724
917.38	15679
917.491	15686
917.603	15732
917.715	15709
917.826	15747
917.938	15625
918.049	15507
918.161	15534
918.272	15819
918.384	15675
918.495	15610
918.606	15439
918.717	15370
918.828	15450
918.939	15401
919.05	15336
919.161	15443
919.272	15230
919.383	15275
919.494	15382
919.604	15568
919.715	15359
919.826	15348
919.936	15287
920.047	15344
920.157	15332
920.267	15572
920.378	15374
920.488	15317
920.598	15557
920.708	15671
920.818	15454
920.928	15515
921.038	15622
921.148	15485
921.258	15313
921.368	15218
921.477	15123
921.587	15051
921.697	15055
921.806	15135
921.916	14933
922.025	14842
922.134	14727
922.244	14644
922.353	14708
922.462	14590
922.571	14503
922.68	14419
922.789	14351
922.898	14366
923.007	14290
923.116	14408
923.224	14320
923.333	14309
923.442	14221
923.55	14172
923.659	14172
923.767	14180
923.876	14058
923.984	14252
924.092	13947
924.201	14115
924.309	14130
924.417	14043
924.525	13967
924.633	14005
924.741	14944
924.849	13890
924.956	13909
925.064	13750
925.172	13670
925.279	13700
925.387	13803
925.494	13719
925.602	13852
925.709	13780
925.816	13601
925.924	13628
926.031	13769
926.138	13677
926.245	13636
926.352	13582
926.459	13700
926.566	13715
926.673	13533
926.779	13468
926.886	13373
926.993	13225
927.099	13282
927.206	13263
927.312	13240
927.419	13259
927.525	13285
927.631	13312
927.737	13031
927.843	13129
927.95	12981
928.056	13076
928.162	13027
928.267	13156
928.373	13704
928.479	13156
928.585	12825
928.69	13000
928.796	13076
928.901	12875
929.007	12703
929.112	12951
929.218	12913
929.323	12757
929.428	12783
929.533	12943
929.638	12707
929.743	12772
929.848	12707
929.953	12646
930.058	12681
930.163	12433
930.267	12437
930.372	12547
930.477	12388
930.581	12593
930.685	12536
930.79	12296
930.894	12327
930.998	12235
931.103	12376
931.207	12064
931.311	11969
931.415	11817
931.519	11699
931.623	11718
