Data from test_V78500241_962.txt Node
Date: Fri Mar 25 15:48:27 CST 2022
User: usil
Spectrometer: V785-0024
Trigger mode: 0
Integration Time (sec): 4.000000E-1
Scans to average: 1
Nonlinearity correction enabled: false
Boxcar width: 0
Storing dark spectrum: false
XAxis mode: Wavelengths
Number of Pixels in Spectrum: 1024
>>>>>Begin Spectral Data<<<<<
801.071	28816
801.214	28618
801.356	28436
801.499	28356
801.641	28401
801.783	28310
801.926	28367
802.068	28169
802.211	28291
802.353	28124
802.496	27804
802.638	27850
802.78	28040
802.923	27873
803.065	27930
803.208	27994
803.35	28021
803.492	28135
803.635	28230
803.777	27979
803.919	28291
804.061	28493
804.204	28257
804.346	28177
804.488	28086
804.63	28147
804.773	28207
804.915	28101
805.057	28223
805.199	28257
805.341	28131
805.483	28341
805.626	28295
805.768	28318
805.91	28413
806.052	28432
806.194	28303
806.336	28611
806.478	28394
806.62	28443
806.762	28478
806.904	28607
807.046	28782
807.188	28759
807.33	28752
807.472	28930
807.614	28710
807.756	28782
807.898	28687
808.04	28679
808.182	28706
808.324	28664
808.465	28702
808.607	28801
808.749	29064
808.891	29136
809.033	29094
809.174	29083
809.316	29052
809.458	28949
809.6	28904
809.741	29166
809.883	29208
810.025	29318
810.166	29326
810.308	29288
810.45	29204
810.591	29185
810.733	28991
810.875	28999
811.016	28991
811.158	28976
811.299	29185
811.441	29375
811.582	29254
811.724	29113
811.865	29090
812.007	29105
812.148	29128
812.29	29220
812.431	29208
812.573	29429
812.714	29596
812.855	29585
812.997	29760
813.138	29794
813.279	29767
813.421	29680
813.562	29486
813.703	29444
813.845	29269
813.986	29025
814.127	28949
814.268	28763
814.41	28793
814.551	28797
814.692	28892
814.833	28687
814.974	28858
815.115	28854
815.256	28668
815.397	28603
815.539	28672
815.68	28447
815.821	28538
815.962	28641
816.103	28577
816.244	28535
816.385	28367
816.526	28230
816.666	28219
816.807	27975
816.948	28207
817.089	28333
817.23	28169
817.371	28192
817.512	28082
817.653	28040
817.793	27880
817.934	28143
818.075	28120
818.216	27960
818.356	28116
818.497	28090
818.638	27770
818.778	27838
818.919	27865
819.06	27876
819.2	28040
819.341	28090
819.481	28051
819.622	28352
819.762	28481
819.903	28246
820.043	28226
820.184	28059
820.324	28234
820.465	28318
820.605	28379
820.746	28192
820.886	28051
821.026	28185
821.167	28276
821.307	28268
821.447	28284
821.588	28090
821.728	27975
821.868	27808
822.008	27656
822.149	27652
822.289	27545
822.429	27393
822.569	27256
822.709	27241
822.849	27112
822.99	27230
823.13	27058
823.27	26975
823.41	26979
823.55	26746
823.69	26956
823.83	26975
823.97	26876
824.11	26750
824.25	26830
824.389	26754
824.529	26785
824.669	26769
824.809	26815
824.949	26975
825.089	26834
825.228	26758
825.368	26503
825.508	26644
825.648	26724
825.787	26735
825.927	26769
826.067	26678
826.206	26503
826.346	26716
826.485	26617
826.625	26560
826.765	26663
826.904	26701
827.044	26355
827.183	26408
827.323	26313
827.462	26328
827.601	26370
827.741	26336
827.88	26423
828.02	26244
828.159	26305
828.298	26396
828.437	26503
828.577	26275
828.716	26465
828.855	26434
828.994	26084
829.134	26130
829.273	26134
829.412	26096
829.551	25974
829.69	26039
829.829	26134
829.968	26084
830.107	26054
830.246	26111
830.385	25898
830.524	25944
830.663	25879
830.802	25864
830.941	25662
831.08	25689
831.219	25734
831.357	25776
831.496	25860
831.635	25537
831.774	25567
831.913	25491
832.051	25533
832.19	25483
832.329	25441
832.467	25381
832.606	25346
832.744	25183
832.883	25377
833.022	25312
833.16	25426
833.299	25244
833.437	25392
833.576	25449
833.714	25331
833.852	25453
833.991	25464
834.129	25384
834.267	25358
834.406	25320
834.544	25381
834.682	25407
834.821	25225
834.959	25510
835.097	25293
835.235	25365
835.373	25403
835.511	25422
835.65	25339
835.788	25301
835.926	25110
836.064	25023
836.202	25263
836.34	25301
836.478	25278
836.615	25057
836.753	25069
836.891	25301
837.029	25263
837.167	25164
837.305	25110
837.443	25107
837.58	25072
837.718	25076
837.856	25004
837.993	24962
838.131	24958
838.269	24852
838.406	24878
838.544	24916
838.681	24749
838.819	24601
838.956	24418
839.094	24486
839.231	24426
839.369	24639
839.506	24928
839.643	24616
839.781	24418
839.918	24372
840.055	24521
840.193	24395
840.33	24315
840.467	24502
840.604	24452
840.742	24574
840.879	24330
841.016	24121
841.153	24327
841.29	24498
841.427	24422
841.564	24418
841.701	24327
841.838	24410
841.975	24197
842.112	24338
842.249	24281
842.385	24273
842.522	24380
842.659	24140
842.796	24125
842.933	24258
843.069	24140
843.206	24235
843.343	24129
843.479	24079
843.616	24167
843.752	23878
843.889	23973
844.025	23965
844.162	23794
844.298	23992
844.435	23870
844.571	23935
844.708	24060
844.844	23996
844.98	24011
845.117	23912
845.253	23836
845.389	23798
845.525	23832
845.661	23805
845.798	23726
845.934	23714
846.07	23627
846.206	23623
846.342	23691
846.478	23638
846.614	23410
846.75	23360
846.886	23303
847.022	23505
847.158	23402
847.294	23303
847.429	23299
847.565	23318
847.701	23653
847.837	23109
847.972	23052
848.108	23132
848.244	23220
848.379	23048
848.515	22942
848.65	22957
848.786	22930
848.921	22869
849.057	23090
849.192	22957
849.328	22858
849.463	23098
849.598	22824
849.734	22850
849.869	22797
850.004	22793
850.14	22687
850.275	22786
850.41	22702
850.545	22679
850.68	22721
850.815	22774
850.95	22687
851.085	22930
851.22	22790
851.355	22691
851.49	22679
851.625	22584
851.76	22691
851.895	22626
852.03	22577
852.165	22717
852.299	22774
852.434	22774
852.569	22759
852.703	22771
852.838	22672
852.973	22820
853.107	22889
853.242	22717
853.376	22603
853.511	22398
853.645	22554
853.78	22607
853.914	22592
854.048	22550
854.183	22440
854.317	22535
854.451	22763
854.585	22417
854.72	22481
854.854	22778
854.988	22538
855.122	22626
855.256	22497
855.39	22478
855.524	22618
855.658	22599
855.792	22527
855.926	22588
856.06	22550
856.194	22698
856.327	22432
856.461	22470
856.595	22466
856.729	22519
856.862	22611
856.996	22523
857.13	22519
857.263	22592
857.397	22607
857.53	22459
857.664	22523
857.797	22710
857.931	22561
858.064	22611
858.197	22607
858.331	22489
858.464	22497
858.597	22459
858.731	22607
858.864	22504
858.997	22523
859.13	22565
859.263	22523
859.396	22611
859.529	22569
859.662	22516
859.795	22561
859.928	22584
860.061	22702
860.194	22759
860.327	22592
860.46	22466
860.592	22462
860.725	22660
860.858	22668
860.99	22580
861.123	22417
861.256	22413
861.388	22466
861.521	23318
861.653	22375
861.786	22432
861.918	22371
862.05	22322
862.183	22432
862.315	22565
862.447	22428
862.58	22466
862.712	22200
862.844	22196
862.976	22314
863.108	22276
863.24	22550
863.372	22173
863.504	22154
863.636	22265
863.768	22196
863.9	22314
864.032	22051
864.164	22147
864.296	22325
864.428	22287
864.559	22234
864.691	22253
864.823	22291
864.954	22059
865.086	22299
865.217	22124
865.349	21972
865.48	22055
865.612	22211
865.743	22063
865.875	22192
866.006	22025
866.137	22048
866.269	21979
866.4	22051
866.531	22063
866.662	22032
866.793	22036
866.924	22032
867.055	22097
867.186	22048
867.317	21968
867.448	22006
867.579	21998
867.71	21865
867.841	21922
867.972	22074
868.103	21949
868.233	22006
868.364	22074
868.495	22162
868.625	22226
868.756	22382
868.886	22188
869.017	22276
869.147	22287
869.278	22246
869.408	22295
869.539	22238
869.669	22341
869.799	22265
869.929	22341
870.06	22478
870.19	22523
870.32	22557
870.45	22660
870.58	22721
870.71	22786
870.84	22847
870.97	22596
871.1	22679
871.23	22820
871.36	22866
871.489	22793
871.619	22721
871.749	22858
871.879	22957
872.008	23003
872.138	22873
872.267	22896
872.397	22755
872.526	22611
872.656	22683
872.785	22683
872.915	22869
873.044	22953
873.173	22915
873.303	22885
873.432	22885
873.561	22953
873.69	22797
873.819	22877
873.948	22873
874.077	22946
874.206	22923
874.335	22854
874.464	22987
874.593	23121
874.722	22965
874.851	23033
874.979	23159
875.108	23105
875.237	23006
875.365	22938
875.494	23010
875.623	23067
875.751	22965
875.88	23132
876.008	23216
876.136	23128
876.265	23566
876.393	23543
876.521	23566
876.65	23414
876.778	23490
876.906	23303
877.034	23421
877.162	23436
877.29	23379
877.418	23471
877.546	23417
877.674	23406
877.802	23433
877.93	23425
878.058	23417
878.185	23284
878.313	23372
878.441	23368
878.568	23242
878.696	23349
878.824	23490
878.951	23455
879.079	23592
879.206	23691
879.333	23573
879.461	23402
879.588	23551
879.715	23512
879.842	23516
879.97	23592
880.097	23151
880.224	23254
880.351	23235
880.478	23353
880.605	23117
880.732	23254
880.859	23482
880.986	23231
881.112	23166
881.239	23147
881.366	22972
881.493	22862
881.619	22850
881.746	22847
881.872	22885
881.999	22866
882.125	22698
882.252	22694
882.378	22744
882.505	22869
882.631	22645
882.757	22603
882.883	22546
883.01	22641
883.136	22443
883.262	22421
883.388	22394
883.514	22478
883.64	22481
883.766	22371
883.892	22230
884.018	22333
884.143	22398
884.269	22481
884.395	22074
884.52	22101
884.646	22101
884.772	22051
884.897	22105
885.023	22063
885.148	22188
885.274	22234
885.399	22200
885.524	22101
885.65	22192
885.775	22029
885.9	22025
886.025	22257
886.15	22257
886.275	22059
886.4	21926
886.525	22013
886.65	21922
886.775	21968
886.9	22257
887.025	22242
887.149	22048
887.274	21911
887.399	21827
887.523	21918
887.648	21941
887.773	21831
887.897	21869
888.021	21922
888.146	21785
888.27	21892
888.395	21911
888.519	21945
888.643	21873
888.767	22025
888.891	21766
889.015	21610
889.139	21701
889.263	21583
889.387	21800
889.511	21850
889.635	21751
889.759	21675
889.883	21629
890.006	21663
890.13	21652
890.254	21660
890.377	21580
890.501	21355
890.624	21443
890.748	21412
890.871	21382
890.995	21272
891.118	21173
891.241	21127
891.364	21294
891.488	21367
891.611	21264
891.734	21294
891.857	21161
891.98	21207
892.103	21180
892.226	21100
892.349	21112
892.471	21043
892.594	21112
892.717	21249
892.839	21138
892.962	21017
893.085	21214
893.207	21077
893.33	21024
893.452	21024
893.575	21142
893.697	20956
893.819	21283
893.941	21332
894.064	21268
894.186	21081
894.308	20979
894.43	21180
894.552	21279
894.674	21275
894.796	21013
894.918	21066
895.04	21074
895.161	21096
895.283	21169
895.405	20952
895.526	21100
895.648	20948
895.769	21077
895.891	21108
896.012	21180
896.134	21135
896.255	21028
896.376	21074
896.498	20963
896.619	21127
896.74	21051
896.861	21218
896.982	21435
897.103	21553
897.224	21302
897.345	21275
897.466	21176
897.587	21344
897.708	21545
897.828	21355
897.949	21203
898.07	21108
898.19	21184
898.311	21310
898.431	21256
898.552	21252
898.672	21332
898.792	21260
898.913	21252
899.033	21154
899.153	21066
899.273	21013
899.393	20990
899.513	21074
899.633	20990
899.753	21013
899.873	20826
899.993	20994
900.113	20868
900.232	21020
900.352	20842
900.472	20735
900.591	20750
900.711	20792
900.83	20720
900.95	20781
901.069	20800
901.189	20644
901.308	20415
901.427	20282
901.546	20400
901.665	20385
901.784	20370
901.904	20286
902.023	20043
902.141	19959
902.26	19890
902.379	19856
902.498	19822
902.617	19795
902.735	19807
902.854	19723
902.973	19658
903.091	19601
903.21	19358
903.328	19453
903.446	19320
903.565	19274
903.683	19324
903.801	19187
903.919	19168
904.038	19228
904.156	19107
904.274	19145
904.392	19076
904.51	19061
904.627	19000
904.745	19110
904.863	19095
904.981	18787
905.098	18665
905.216	18650
905.334	18844
905.451	18791
905.569	18661
905.686	18696
905.803	18833
905.921	18559
906.038	18722
906.155	18574
906.272	18388
906.389	18357
906.506	18239
906.623	18308
906.74	18258
906.857	18095
906.974	18174
907.091	18315
907.208	18311
907.324	18251
907.441	18152
907.557	18098
907.674	17904
907.79	17836
907.907	18030
908.023	18015
908.139	17931
908.256	17836
908.372	17802
908.488	17866
908.604	17794
908.72	17737
908.836	17771
908.952	17699
909.068	17714
909.184	17672
909.3	17634
909.415	17680
909.531	17661
909.647	17440
909.762	17330
909.878	17353
909.993	17299
910.108	17353
910.224	17330
910.339	17395
910.454	17216
910.57	17204
910.685	17098
910.8	17398
910.915	17307
911.03	17181
911.145	17014
911.259	16991
911.374	16987
911.489	16809
911.604	16752
911.718	16713
911.833	16797
911.947	16634
912.062	16569
912.176	16694
912.291	16634
912.405	16694
912.519	16858
912.633	16881
912.748	16721
912.862	16672
912.976	16451
913.09	16348
913.204	16428
913.318	16428
913.431	16584
913.545	16664
913.659	16519
913.772	16451
913.886	16337
914	16265
914.113	16413
914.226	16386
914.34	16314
914.453	16147
914.566	16299
914.68	16226
914.793	16120
914.906	15892
915.019	15918
915.132	15854
915.245	15857
915.358	15949
915.47	15876
915.583	15835
915.696	15964
915.809	15953
915.921	15994
916.034	15732
916.146	15732
916.259	15724
916.371	15774
916.483	15835
916.595	15701
916.708	15736
916.82	15713
916.932	15618
917.044	15614
917.156	15622
917.268	15466
917.38	15557
917.491	15485
917.603	15515
917.715	15542
917.826	15682
917.938	15386
918.049	15279
918.161	15466
918.272	15564
918.384	15511
918.495	15428
918.606	15306
918.717	15161
918.828	15249
918.939	15211
919.05	15173
919.161	15180
919.272	15005
919.383	15108
919.494	15313
919.604	15416
919.715	15268
919.826	15116
919.936	15214
920.047	15237
920.157	15275
920.267	15336
920.378	15256
920.488	15127
920.598	15355
920.708	15458
920.818	15378
920.928	15245
921.038	15530
921.148	15389
921.258	15119
921.368	15055
921.477	14941
921.587	14887
921.697	14693
921.806	14921
921.916	14693
922.025	14613
922.134	14503
922.244	14556
922.353	14549
922.462	14419
922.571	14351
922.68	14252
922.789	14157
922.898	14149
923.007	14039
923.116	14191
923.224	14256
923.333	14065
923.442	13967
923.55	13963
923.659	14054
923.767	14058
923.876	13963
923.984	13883
924.092	13868
924.201	13951
924.309	13871
924.417	13913
924.525	13765
924.633	13837
924.741	14705
924.849	13559
924.956	13757
925.064	13601
925.172	13487
925.279	13597
925.387	13552
925.494	13476
925.602	13605
925.709	13556
925.816	13487
925.924	13468
926.031	13476
926.138	13518
926.245	13548
926.352	13381
926.459	13472
926.566	13571
926.673	13346
926.779	13247
926.886	13320
926.993	13110
927.099	13118
927.206	13046
927.312	13050
927.419	13122
927.525	13027
927.631	13133
927.737	13050
927.843	12970
927.95	12814
928.056	12867
928.162	12863
928.267	12901
928.373	13529
928.479	13031
928.585	12692
928.69	12954
928.796	12810
928.901	12669
929.007	12669
929.112	12795
929.218	12684
929.323	12665
929.428	12601
929.533	12795
929.638	12585
929.743	12509
929.848	12563
929.953	12715
930.058	12490
930.163	12353
930.267	12338
930.372	12437
930.477	12308
930.581	12437
930.685	12304
930.79	12239
930.894	12190
930.998	12110
931.103	12224
931.207	11908
931.311	11916
931.415	11748
931.519	11547
931.623	11520
