Data from test_V78500241_2334.txt Node
Date: Fri Mar 25 15:57:58 CST 2022
User: usil
Spectrometer: V785-0024
Trigger mode: 0
Integration Time (sec): 4.000000E-1
Scans to average: 1
Nonlinearity correction enabled: false
Boxcar width: 0
Storing dark spectrum: false
XAxis mode: Wavelengths
Number of Pixels in Spectrum: 1024
>>>>>Begin Spectral Data<<<<<
801.071	28329
801.214	28337
801.356	27956
801.499	27941
801.641	27884
801.783	27838
801.926	27914
802.068	27671
802.211	27698
802.353	27641
802.496	27603
802.638	27496
802.78	27454
802.923	27317
803.065	27344
803.208	27344
803.35	27526
803.492	27641
803.635	27705
803.777	27648
803.919	27713
804.061	28040
804.204	27759
804.346	27641
804.488	27713
804.63	27701
804.773	27595
804.915	27671
805.057	27793
805.199	27797
805.341	27736
805.483	27838
805.626	27728
805.768	27713
805.91	27835
806.052	27831
806.194	27816
806.336	27960
806.478	27895
806.62	27778
806.762	28090
806.904	28185
807.046	28356
807.188	28226
807.33	28337
807.472	28265
807.614	28188
807.756	28455
807.898	28310
808.04	28276
808.182	28192
808.324	28211
808.465	28097
808.607	28455
808.749	28504
808.891	28641
809.033	28527
809.174	28557
809.316	28504
809.458	28401
809.6	28493
809.741	28664
809.883	28653
810.025	28805
810.166	28850
810.308	28778
810.45	28828
810.591	28797
810.733	28497
810.875	28455
811.016	28314
811.158	28451
811.299	28626
811.441	28675
811.582	28706
811.724	28535
811.865	28645
812.007	28329
812.148	28592
812.29	28599
812.431	28710
812.573	29003
812.714	28866
812.855	29064
812.997	28999
813.138	29147
813.279	29162
813.421	29086
813.562	28881
813.703	28866
813.845	28668
813.986	28478
814.127	28223
814.268	28192
814.41	28382
814.551	28181
814.692	28360
814.833	28215
814.974	28265
815.115	28109
815.256	28082
815.397	28029
815.539	27987
815.68	28093
815.821	27861
815.962	28131
816.103	27949
816.244	27819
816.385	27865
816.526	27857
816.666	27629
816.807	27367
816.948	27507
817.089	27667
817.23	27443
817.371	27591
817.512	27526
817.653	27416
817.793	27348
817.934	27473
818.075	27447
818.216	27382
818.356	27408
818.497	27340
818.638	27165
818.778	27112
818.919	27340
819.06	27420
819.2	27279
819.341	27530
819.481	27458
819.622	27785
819.762	27804
819.903	27686
820.043	27667
820.184	27652
820.324	27644
820.465	27610
820.605	27523
820.746	27603
820.886	27523
821.026	27591
821.167	27599
821.307	27667
821.447	27431
821.588	27386
821.728	27264
821.868	27142
822.008	27013
822.149	26971
822.289	27001
822.429	26648
822.569	26629
822.709	26693
822.849	26549
822.99	26492
823.13	26419
823.27	26385
823.41	26336
823.55	26176
823.69	26385
823.83	26187
823.97	26244
824.11	26187
824.25	26081
824.389	26107
824.529	26180
824.669	26027
824.809	26134
824.949	26199
825.089	26290
825.228	26263
825.368	26100
825.508	26039
825.648	25986
825.787	26058
825.927	26020
826.067	26046
826.206	25997
826.346	26039
826.485	26134
826.625	26035
826.765	26012
826.904	26161
827.044	25639
827.183	25925
827.323	25605
827.462	25811
827.601	25761
827.741	25799
827.88	25658
828.02	25518
828.159	25639
828.298	25731
828.437	25852
828.577	25578
828.716	25658
828.855	25723
828.994	25327
829.134	25350
829.273	25354
829.412	25289
829.551	25434
829.69	25464
829.829	25445
829.968	25521
830.107	25438
830.246	25365
830.385	25324
830.524	25285
830.663	25160
830.802	25114
830.941	25053
831.08	24905
831.219	25084
831.357	25107
831.496	25213
831.635	24973
831.774	24825
831.913	24932
832.051	24840
832.19	24798
832.329	24848
832.467	24635
832.606	24517
832.744	24498
832.883	24620
833.022	24764
833.16	24753
833.299	24753
833.437	24764
833.576	24722
833.714	24681
833.852	24859
833.991	24833
834.129	24779
834.267	24886
834.406	24654
834.544	24764
834.682	24810
834.821	24684
834.959	24920
835.097	24623
835.235	24802
835.373	24772
835.511	24749
835.65	24528
835.788	24505
835.926	24525
836.064	24323
836.202	24437
836.34	24559
836.478	24688
836.615	24570
836.753	24544
836.891	24677
837.029	24505
837.167	24604
837.305	24578
837.443	24513
837.58	24391
837.718	24384
837.856	24437
837.993	24289
838.131	24441
838.269	24388
838.406	24315
838.544	24182
838.681	24060
838.819	24011
838.956	23893
839.094	23882
839.231	24022
839.369	24064
839.506	24216
839.643	24114
839.781	23889
839.918	23843
840.055	23847
840.193	23923
840.33	23836
840.467	23733
840.604	24038
840.742	24076
840.879	23627
841.016	23821
841.153	23630
841.29	23885
841.427	23748
841.564	23805
841.701	23783
841.838	23737
841.975	23665
842.112	23676
842.249	23680
842.385	23661
842.522	23771
842.659	23687
842.796	23490
842.933	23600
843.069	23440
843.206	23570
843.343	23566
843.479	23551
843.616	23531
843.752	23440
843.889	23360
844.025	23482
844.162	23356
844.298	23433
844.435	23337
844.571	23239
844.708	23307
844.844	23387
844.98	23414
845.117	23535
845.253	23242
845.389	23212
845.525	23254
845.661	23105
845.798	23102
845.934	23086
846.07	22881
846.206	23132
846.342	23151
846.478	23003
846.614	22824
846.75	22702
846.886	22729
847.022	22942
847.158	22767
847.294	22683
847.429	22812
847.565	22736
847.701	22957
847.837	22573
847.972	22557
848.108	22546
848.244	22519
848.379	22417
848.515	22363
848.65	22523
848.786	22306
848.921	22440
849.057	22580
849.192	22398
849.328	22386
849.463	22371
849.598	22265
849.734	22276
849.869	22211
850.004	22093
850.14	22101
850.275	22166
850.41	22120
850.545	22116
850.68	22158
850.815	22074
850.95	22082
851.085	22295
851.22	22200
851.355	22177
851.49	22040
851.625	22097
851.76	22036
851.895	21994
852.03	22143
852.165	22090
852.299	22238
852.434	22169
852.569	22154
852.703	22017
852.838	22162
852.973	22249
853.107	22181
853.242	21926
853.376	21842
853.511	21846
853.645	21800
853.78	21979
853.914	22059
854.048	21869
854.183	21937
854.317	21930
854.451	22238
854.585	22025
854.72	21876
854.854	21975
854.988	21884
855.122	21949
855.256	21755
855.39	21949
855.524	21949
855.658	22029
855.792	21880
855.926	21934
856.06	22086
856.194	21953
856.327	21838
856.461	22070
856.595	21823
856.729	21949
856.862	22051
856.996	21987
857.13	22044
857.263	22097
857.397	21937
857.53	21949
857.664	21907
857.797	22021
857.931	22044
858.064	22025
858.197	22120
858.331	21930
858.464	21888
858.597	21930
858.731	21899
858.864	21918
858.997	21934
859.13	22017
859.263	22036
859.396	22032
859.529	21964
859.662	21972
859.795	21964
859.928	21922
860.061	22074
860.194	22177
860.327	22090
860.46	21964
860.592	22128
860.725	22120
860.858	22143
860.99	21922
861.123	21892
861.256	21876
861.388	22025
861.521	22626
861.653	21747
861.786	21686
861.918	21762
862.05	21762
862.183	21888
862.315	21880
862.447	22059
862.58	21804
862.712	21751
862.844	21682
862.976	21755
863.108	21774
863.24	22173
863.372	21568
863.504	21686
863.636	21656
863.768	21698
863.9	21694
864.032	21534
864.164	21576
864.296	21762
864.428	21762
864.559	21705
864.691	21633
864.823	21629
864.954	21622
865.086	21652
865.217	21644
865.349	21618
865.48	21625
865.612	21553
865.743	21774
865.875	21603
866.006	21462
866.137	21523
866.269	21511
866.4	21576
866.531	21523
866.662	21507
866.793	21492
866.924	21443
867.055	21511
867.186	21557
867.317	21545
867.448	21340
867.579	21382
867.71	21386
867.841	21329
867.972	21359
868.103	21473
868.233	21545
868.364	21538
868.495	21622
868.625	21701
868.756	21831
868.886	21625
869.017	21644
869.147	21835
869.278	21808
869.408	21812
869.539	21823
869.669	21797
869.799	21751
869.929	21762
870.06	21709
870.19	21975
870.32	22010
870.45	22029
870.58	22097
870.71	22303
870.84	22268
870.97	22109
871.1	22109
871.23	22280
871.36	22310
871.489	22291
871.619	22249
871.749	22226
871.879	22325
872.008	22497
872.138	22318
872.267	22268
872.397	22196
872.526	22226
872.656	22093
872.785	22173
872.915	22261
873.044	22363
873.173	22398
873.303	22382
873.432	22440
873.561	22356
873.69	22363
873.819	22386
873.948	22462
874.077	22333
874.206	22223
874.335	22280
874.464	22497
874.593	22413
874.722	22588
874.851	22531
874.979	22561
875.108	22645
875.237	22455
875.365	22504
875.494	22523
875.623	22546
875.751	22394
875.88	22493
876.008	22641
876.136	22615
876.265	22892
876.393	23079
876.521	22987
876.65	22972
876.778	22999
876.906	22869
877.034	22949
877.162	22885
877.29	22793
877.418	23052
877.546	22949
877.674	22885
877.802	22774
877.93	22824
878.058	22892
878.185	22816
878.313	22889
878.441	22854
878.568	22649
878.696	22839
878.824	22892
878.951	22896
879.079	23064
879.206	23227
879.333	23033
879.461	22938
879.588	23048
879.715	22984
879.842	23189
879.97	22877
880.097	22691
880.224	22683
880.351	22748
880.478	22717
880.605	22596
880.732	22698
880.859	22991
880.986	22752
881.112	22637
881.239	22607
881.366	22371
881.493	22360
881.619	22295
881.746	22363
881.872	22398
881.999	22234
882.125	22147
882.252	22242
882.378	22318
882.505	22413
882.631	22207
882.757	22070
882.883	22078
883.01	22086
883.136	21968
883.262	21861
883.388	21717
883.514	21941
883.64	22025
883.766	21842
883.892	21865
884.018	21785
884.143	21953
884.269	21945
884.395	21728
884.52	21641
884.646	21557
884.772	21504
884.897	21610
885.023	21637
885.148	21762
885.274	21732
885.399	21717
885.524	21622
885.65	21720
885.775	21568
885.9	21568
886.025	21755
886.15	21778
886.275	21599
886.4	21583
886.525	21606
886.65	21542
886.775	21572
886.9	21694
887.025	21838
887.149	21545
887.274	21344
887.399	21321
887.523	21252
887.648	21340
887.773	21252
887.897	21386
888.021	21374
888.146	21321
888.27	21332
888.395	21507
888.519	21287
888.643	21355
888.767	21428
888.891	21291
889.015	21074
889.139	21055
889.263	21192
889.387	21237
889.511	21454
889.635	21378
889.759	21237
889.883	21100
890.006	21226
890.13	21249
890.254	21028
890.377	21074
890.501	20906
890.624	20948
890.748	20998
890.871	20781
890.995	20651
891.118	20613
891.241	20640
891.364	20781
891.488	20842
891.611	20792
891.734	20670
891.857	20754
891.98	20769
892.103	20891
892.226	20697
892.349	20785
892.471	20514
892.594	20750
892.717	20678
892.839	20568
892.962	20518
893.085	20724
893.207	20446
893.33	20560
893.452	20499
893.575	20621
893.697	20625
893.819	20800
893.941	20754
894.064	20689
894.186	20590
894.308	20499
894.43	20735
894.552	20826
894.674	20686
894.796	20545
894.918	20632
895.04	20503
895.161	20640
895.283	20712
895.405	20640
895.526	20621
895.648	20469
895.769	20686
895.891	20697
896.012	20693
896.134	20712
896.255	20594
896.376	20507
896.498	20651
896.619	20727
896.74	20663
896.861	20697
896.982	20815
897.103	21028
897.224	20872
897.345	20880
897.466	20705
897.587	20727
897.708	20902
897.828	20773
897.949	20838
898.07	20712
898.19	20663
898.311	20864
898.431	20785
898.552	20921
898.672	20937
898.792	20899
898.913	20823
899.033	20659
899.153	20560
899.273	20606
899.393	20659
899.513	20549
899.633	20613
899.753	20545
899.873	20461
899.993	20594
900.113	20469
900.232	20469
900.352	20514
900.472	20393
900.591	20286
900.711	20259
900.83	20168
900.95	20404
901.069	20320
901.189	20347
901.308	20111
901.427	19936
901.546	19887
901.665	19982
901.784	19944
901.904	19814
902.023	19635
902.141	19419
902.26	19358
902.379	19407
902.498	19472
902.617	19362
902.735	19476
902.854	19464
902.973	19293
903.091	19183
903.21	19160
903.328	19061
903.446	19023
903.565	18806
903.683	18951
903.801	18795
903.919	18814
904.038	18833
904.156	18665
904.274	18734
904.392	18483
904.51	18589
904.627	18616
904.745	18711
904.863	18776
904.981	18486
905.098	18361
905.216	18429
905.334	18224
905.451	18380
905.569	18304
905.686	18346
905.803	18323
905.921	17984
906.038	18232
906.155	18159
906.272	17973
906.389	18041
906.506	17824
906.623	17904
906.74	17840
906.857	17642
906.974	17680
907.091	17885
907.208	17931
907.324	17904
907.441	17794
907.557	17512
907.674	17547
907.79	17448
907.907	17528
908.023	17509
908.139	17589
908.256	17547
908.372	17410
908.488	17376
908.604	17227
908.72	17231
908.836	17292
908.952	17250
909.068	17322
909.184	17417
909.3	17239
909.415	17269
909.531	17189
909.647	17003
909.762	16946
909.878	16984
909.993	17052
910.108	16869
910.224	16831
910.339	16885
910.454	16862
910.57	16702
910.685	16683
910.8	16953
910.915	16987
911.03	16752
911.145	16599
911.259	16550
911.374	16645
911.489	16531
911.604	16405
911.718	16295
911.833	16295
911.947	16318
912.062	16173
912.176	16287
912.291	16394
912.405	16386
912.519	16405
912.633	16489
912.748	16451
912.862	16177
912.976	16093
913.09	16071
913.204	16044
913.318	16219
913.431	16246
913.545	16128
913.659	16238
913.772	16173
913.886	15934
914	15968
914.113	16059
914.226	16006
914.34	16105
914.453	15823
914.566	15926
914.68	15724
914.793	15770
914.906	15572
915.019	15549
915.132	15469
915.245	15488
915.358	15500
915.47	15526
915.583	15466
915.696	15523
915.809	15637
915.921	15553
916.034	15405
916.146	15389
916.259	15344
916.371	15435
916.483	15382
916.595	15367
916.708	15389
916.82	15291
916.932	15279
917.044	15260
917.156	15245
917.268	15192
917.38	15112
917.491	15051
917.603	15173
917.715	15279
917.826	15142
917.938	15043
918.049	14876
918.161	15070
918.272	15195
918.384	15180
918.495	15028
918.606	14944
918.717	14834
918.828	14986
918.939	14895
919.05	14765
919.161	14899
919.272	14667
919.383	14739
919.494	14823
919.604	15074
919.715	14895
919.826	14765
919.936	14807
920.047	14895
920.157	14861
920.267	14971
920.378	14933
920.488	14868
920.598	14941
920.708	15074
920.818	14849
920.928	14990
921.038	15074
921.148	14975
921.258	14716
921.368	14678
921.477	14583
921.587	14594
921.697	14404
921.806	14583
921.916	14442
922.025	14218
922.134	14191
922.244	14191
922.353	14138
922.462	14126
922.571	13940
922.68	13856
922.789	13799
922.898	13909
923.007	13841
923.116	13925
923.224	13932
923.333	13788
923.442	13734
923.55	13681
923.659	13753
923.767	13689
923.876	13586
923.984	13685
924.092	13582
924.201	13601
924.309	13578
924.417	13624
924.525	13506
924.633	13468
924.741	14461
924.849	13293
924.956	13400
925.064	13225
925.172	13228
925.279	13213
925.387	13247
925.494	13190
925.602	13346
925.709	13251
925.816	13133
925.924	13251
926.031	13331
926.138	13145
926.245	13194
926.352	13099
926.459	13217
926.566	13282
926.673	13164
926.779	12894
926.886	12958
926.993	12939
927.099	12787
927.206	12772
927.312	12760
927.419	12745
927.525	12829
927.631	12829
927.737	12760
927.843	12673
927.95	12589
928.056	12639
928.162	12692
928.267	12665
928.373	13266
928.479	12715
928.585	12445
928.69	12597
928.796	12589
928.901	12509
929.007	12342
929.112	12536
929.218	12395
929.323	12330
929.428	12251
929.533	12502
929.638	12296
929.743	12285
929.848	12350
929.953	12323
930.058	12190
930.163	12007
930.267	12011
930.372	12114
930.477	11961
930.581	12216
930.685	12011
930.79	11878
930.894	11923
930.998	11859
931.103	12015
931.207	11680
931.311	11558
931.415	11398
931.519	11376
931.623	11383
