Data from test_V78500241_3555.txt Node
Date: Fri Mar 25 16:06:25 CST 2022
User: usil
Spectrometer: V785-0024
Trigger mode: 0
Integration Time (sec): 4.000000E-1
Scans to average: 1
Nonlinearity correction enabled: false
Boxcar width: 0
Storing dark spectrum: false
XAxis mode: Wavelengths
Number of Pixels in Spectrum: 1024
>>>>>Begin Spectral Data<<<<<
801.071	29022
801.214	28965
801.356	28782
801.499	28634
801.641	28500
801.783	28500
801.926	28542
802.068	28481
802.211	28504
802.353	28569
802.496	28238
802.638	28337
802.78	28284
802.923	28150
803.065	28192
803.208	28211
803.35	28314
803.492	28356
803.635	28375
803.777	28466
803.919	28462
804.061	28793
804.204	28459
804.346	28580
804.488	28367
804.63	28489
804.773	28462
804.915	28679
805.057	28790
805.199	28462
805.341	28569
805.483	28713
805.626	28713
805.768	28577
805.91	28599
806.052	28725
806.194	28428
806.336	28782
806.478	28733
806.62	28660
806.762	28892
806.904	29029
807.046	29094
807.188	29140
807.33	29067
807.472	29277
807.614	29044
807.756	29033
807.898	29006
808.04	28869
808.182	28995
808.324	29113
808.465	29056
808.607	29181
808.749	29395
808.891	29417
809.033	29566
809.174	29398
809.316	29235
809.458	29395
809.6	29334
809.741	29395
809.883	29429
810.025	29752
810.166	29619
810.308	29680
810.45	29509
810.591	29611
810.733	29478
810.875	29512
811.016	29334
811.158	29265
811.299	29478
811.441	29649
811.582	29543
811.724	29455
811.865	29353
812.007	29288
812.148	29368
812.29	29516
812.431	29680
812.573	29695
812.714	29847
812.855	29824
812.997	29958
813.138	30155
813.279	30049
813.421	30083
813.562	29992
813.703	29684
813.845	29665
813.986	29258
814.127	29025
814.268	29124
814.41	29197
814.551	29140
814.692	29060
814.833	28984
814.974	29094
815.115	29067
815.256	28923
815.397	28980
815.539	28831
815.68	28957
815.821	28873
815.962	28866
816.103	28854
816.244	28748
816.385	28565
816.526	28812
816.666	28592
816.807	28360
816.948	28546
817.089	28519
817.23	28401
817.371	28314
817.512	28478
817.653	28390
817.793	28424
817.934	28394
818.075	28447
818.216	28443
818.356	28276
818.497	28356
818.638	28158
818.778	28128
818.919	28253
819.06	28318
819.2	28226
819.341	28386
819.481	28379
819.622	28557
819.762	28664
819.903	28683
820.043	28557
820.184	28592
820.324	28462
820.465	28561
820.605	28535
820.746	28615
820.886	28459
821.026	28405
821.167	28550
821.307	28504
821.447	28398
821.588	28401
821.728	28295
821.868	27991
822.008	27907
822.149	27907
822.289	27861
822.429	27572
822.569	27530
822.709	27591
822.849	27447
822.99	27534
823.13	27332
823.27	27348
823.41	27169
823.55	27074
823.69	27294
823.83	27138
823.97	27165
824.11	27062
824.25	26979
824.389	27058
824.529	27104
824.669	27036
824.809	27195
824.949	27161
825.089	27081
825.228	27028
825.368	26880
825.508	26998
825.648	27028
825.787	26971
825.927	26971
826.067	26887
826.206	26948
826.346	27043
826.485	27043
826.625	27028
826.765	26986
826.904	27055
827.044	26804
827.183	26800
827.323	26830
827.462	26807
827.601	26800
827.741	26632
827.88	26693
828.02	26503
828.159	26750
828.298	26769
828.437	26830
828.577	26617
828.716	26864
828.855	26583
828.994	26408
829.134	26191
829.273	26381
829.412	26313
829.551	26328
829.69	26438
829.829	26324
829.968	26473
830.107	26385
830.246	26336
830.385	26290
830.524	26263
830.663	26202
830.802	26058
830.941	26012
831.08	25997
831.219	26058
831.357	26020
831.496	26324
831.635	25986
831.774	25883
831.913	25887
832.051	25689
832.19	25795
832.329	25742
832.467	25731
832.606	25529
832.744	25537
832.883	25613
833.022	25616
833.16	25628
833.299	25715
833.437	25746
833.576	25830
833.714	25685
833.852	25765
833.991	25731
834.129	25890
834.267	25689
834.406	25651
834.544	25830
834.682	25628
834.821	25666
834.959	25795
835.097	25609
835.235	25757
835.373	25700
835.511	25643
835.65	25556
835.788	25613
835.926	25407
836.064	25430
836.202	25259
836.34	25582
836.478	25689
836.615	25479
836.753	25472
836.891	25616
837.029	25495
837.167	25426
837.305	25483
837.443	25392
837.58	25327
837.718	25426
837.856	25346
837.993	25244
838.131	25369
838.269	25316
838.406	25350
838.544	25358
838.681	25012
838.819	25023
838.956	24882
839.094	24951
839.231	24859
839.369	25015
839.506	25236
839.643	25164
839.781	24829
839.918	24665
840.055	24806
840.193	24783
840.33	24753
840.467	24764
840.604	24787
840.742	24878
840.879	24494
841.016	24593
841.153	24582
841.29	24696
841.427	24585
841.564	24821
841.701	24601
841.838	24566
841.975	24597
842.112	24559
842.249	24426
842.385	24513
842.522	24654
842.659	24597
842.796	24494
842.933	24452
843.069	24338
843.206	24384
843.343	24502
843.479	24471
843.616	24494
843.752	24300
843.889	24216
844.025	24380
844.162	24311
844.298	24361
844.435	24228
844.571	24117
844.708	24410
844.844	24445
844.98	24334
845.117	24342
845.253	24281
845.389	24068
845.525	24243
845.661	24201
845.798	24018
845.934	24186
846.07	23984
846.206	24049
846.342	24114
846.478	23992
846.614	23642
846.75	23638
846.886	23805
847.022	23764
847.158	23649
847.294	23802
847.429	23630
847.565	23764
847.701	23992
847.837	23566
847.972	23455
848.108	23440
848.244	23490
848.379	23303
848.515	23307
848.65	23280
848.786	23242
848.921	23246
849.057	23452
849.192	23421
849.328	23318
849.463	23284
849.598	23307
849.734	23227
849.869	23220
850.004	22968
850.14	23075
850.275	23052
850.41	22987
850.545	22968
850.68	22995
850.815	23079
850.95	22919
851.085	23204
851.22	23231
851.355	23037
851.49	23006
851.625	22991
851.76	23048
851.895	23010
852.03	22984
852.165	22953
852.299	23105
852.434	23193
852.569	23102
852.703	23044
852.838	23155
852.973	23334
853.107	23216
853.242	22946
853.376	22961
853.511	22755
853.645	22843
853.78	22980
853.914	22885
854.048	22767
854.183	22896
854.317	22904
854.451	23117
854.585	22881
854.72	22809
854.854	23044
854.988	22759
855.122	22946
855.256	22835
855.39	23006
855.524	23048
855.658	22820
855.792	22904
855.926	22843
856.06	23006
856.194	22972
856.327	22828
856.461	22881
856.595	22850
856.729	22946
856.862	23048
856.996	22809
857.13	22927
857.263	22919
857.397	22911
857.53	22869
857.664	22900
857.797	22949
857.931	23003
858.064	22938
858.197	23022
858.331	22873
858.464	22801
858.597	22809
858.731	22812
858.864	22843
858.997	22839
859.13	22790
859.263	22816
859.396	22862
859.529	22748
859.662	22641
859.795	22835
859.928	22805
860.061	23010
860.194	23079
860.327	22927
860.46	22805
860.592	23037
860.725	23003
860.858	22984
860.99	22961
861.123	22729
861.256	22839
861.388	22831
861.521	23589
861.653	22759
861.786	22710
861.918	22733
862.05	22771
862.183	22782
862.315	22733
862.447	22782
862.58	22721
862.712	22565
862.844	22512
862.976	22687
863.108	22687
863.24	23006
863.372	22436
863.504	22519
863.636	22569
863.768	22729
863.9	22504
864.032	22481
864.164	22527
864.296	22664
864.428	22687
864.559	22596
864.691	22546
864.823	22645
864.954	22421
865.086	22519
865.217	22500
865.349	22314
865.48	22497
865.612	22344
865.743	22531
865.875	22451
866.006	22398
866.137	22443
866.269	22432
866.4	22348
866.531	22394
866.662	22234
866.793	22417
866.924	22421
867.055	22268
867.186	22276
867.317	22204
867.448	22265
867.579	22314
867.71	22253
867.841	22253
867.972	22443
868.103	22325
868.233	22360
868.364	22394
868.495	22546
868.625	22626
868.756	22702
868.886	22569
869.017	22675
869.147	22557
869.278	22698
869.408	22725
869.539	22523
869.669	22793
869.799	22611
869.929	22683
870.06	22713
870.19	23006
870.32	22873
870.45	22934
870.58	22995
870.71	23060
870.84	23296
870.97	23113
871.1	23162
871.23	23136
871.36	23220
871.489	23151
871.619	23185
871.749	23231
871.879	23261
872.008	23250
872.138	23220
872.267	23269
872.397	23083
872.526	23056
872.656	23003
872.785	23098
872.915	23193
873.044	23334
873.173	23250
873.303	23307
873.432	23299
873.561	23307
873.69	23140
873.819	23315
873.948	23322
874.077	23315
874.206	23227
874.335	23231
874.464	23341
874.593	23379
874.722	23486
874.851	23528
874.979	23463
875.108	23528
875.237	23417
875.365	23406
875.494	23349
875.623	23531
875.751	23425
875.88	23414
876.008	23501
876.136	23604
876.265	23847
876.393	23855
876.521	23939
876.65	23961
876.778	23767
876.906	23859
877.034	23847
877.162	23916
877.29	23665
877.418	23817
877.546	23771
877.674	23699
877.802	23718
877.93	23794
878.058	23733
878.185	23710
878.313	23786
878.441	23748
878.568	23608
878.696	23699
878.824	23695
878.951	23882
879.079	23878
879.206	24022
879.333	24015
879.461	23809
879.588	23916
879.715	23912
879.842	24057
879.97	23828
880.097	23661
880.224	23589
880.351	23627
880.478	23642
880.605	23486
880.732	23573
880.859	23824
880.986	23581
881.112	23558
881.239	23421
881.366	23265
881.493	23128
881.619	23307
881.746	23151
881.872	23193
881.999	23083
882.125	23041
882.252	23223
882.378	23140
882.505	23292
882.631	23128
882.757	22911
882.883	23003
883.01	22748
883.136	22809
883.262	22664
883.388	22618
883.514	22801
883.64	22858
883.766	22812
883.892	22656
884.018	22698
884.143	22740
884.269	22862
884.395	22634
884.52	22561
884.646	22504
884.772	22443
884.897	22398
885.023	22432
885.148	22516
885.274	22615
885.399	22428
885.524	22344
885.65	22462
885.775	22390
885.9	22481
886.025	22424
886.15	22573
886.275	22402
886.4	22344
886.525	22405
886.65	22246
886.775	22329
886.9	22527
887.025	22668
887.149	22443
887.274	22287
887.399	22204
887.523	22219
887.648	22177
887.773	22082
887.897	22284
888.021	22242
888.146	22169
888.27	22280
888.395	22246
888.519	22333
888.643	22306
888.767	22306
888.891	22093
889.015	22055
889.139	22139
889.263	21994
889.387	22074
889.511	22158
889.635	21983
889.759	21964
889.883	21941
890.006	21918
890.13	22063
890.254	21930
890.377	21850
890.501	21660
890.624	21724
890.748	21698
890.871	21648
890.995	21606
891.118	21534
891.241	21629
891.364	21530
891.488	21629
891.611	21724
891.734	21500
891.857	21553
891.98	21428
892.103	21485
892.226	21526
892.349	21435
892.471	21317
892.594	21500
892.717	21553
892.839	21393
892.962	21454
893.085	21500
893.207	21481
893.33	21348
893.452	21317
893.575	21447
893.697	21405
893.819	21454
893.941	21618
894.064	21595
894.186	21386
894.308	21348
894.43	21367
894.552	21561
894.674	21485
894.796	21412
894.918	21378
895.04	21363
895.161	21393
895.283	21439
895.405	21233
895.526	21428
895.648	21439
895.769	21469
895.891	21466
896.012	21428
896.134	21466
896.255	21439
896.376	21405
896.498	21466
896.619	21439
896.74	21306
896.861	21428
896.982	21656
897.103	21838
897.224	21789
897.345	21591
897.466	21507
897.587	21610
897.708	21690
897.828	21679
897.949	21443
898.07	21389
898.19	21466
898.311	21717
898.431	21397
898.552	21583
898.672	21682
898.792	21599
898.913	21561
899.033	21454
899.153	21397
899.273	21226
899.393	21355
899.513	21264
899.633	21310
899.753	21268
899.873	21329
899.993	21431
900.113	21161
900.232	21351
900.352	21112
900.472	21169
900.591	21123
900.711	21047
900.83	21119
900.95	21192
901.069	21127
901.189	20979
901.308	20716
901.427	20708
901.546	20571
901.665	20758
901.784	20594
901.904	20484
902.023	20454
902.141	20206
902.26	20259
902.379	20149
902.498	20134
902.617	20088
902.735	20221
902.854	20035
902.973	19936
903.091	19811
903.21	19799
903.328	19875
903.446	19639
903.565	19502
903.683	19510
903.801	19685
903.919	19567
904.038	19499
904.156	19266
904.274	19407
904.392	19266
904.51	19251
904.627	19354
904.745	19377
904.863	19377
904.981	19110
905.098	18905
905.216	19034
905.334	19164
905.451	19053
905.569	18985
905.686	19042
905.803	18913
905.921	18840
906.038	19046
906.155	18810
906.272	18745
906.389	18654
906.506	18601
906.623	18589
906.74	18437
906.857	18262
906.974	18376
907.091	18517
907.208	18650
907.324	18502
907.441	18327
907.557	18277
907.674	18152
907.79	18171
907.907	18152
908.023	18228
908.139	18182
908.256	18201
908.372	17980
908.488	18079
908.604	17927
908.72	17893
908.836	17973
908.952	17935
909.068	17950
909.184	18034
909.3	17958
909.415	17961
909.531	17920
909.647	17741
909.762	17589
909.878	17566
909.993	17646
910.108	17695
910.224	17672
910.339	17646
910.454	17482
910.57	17448
910.685	17372
910.8	17653
910.915	17570
911.03	17398
911.145	17307
911.259	17105
911.374	17143
911.489	17109
911.604	17136
911.718	16892
911.833	17018
911.947	16930
912.062	16885
912.176	16930
912.291	17075
912.405	16984
912.519	17170
912.633	17090
912.748	17003
912.862	16919
912.976	16744
913.09	16691
913.204	16835
913.318	16752
913.431	16801
913.545	16843
913.659	16850
913.772	16691
913.886	16607
914	16592
914.113	16656
914.226	16580
914.34	16546
914.453	16459
914.566	16577
914.68	16382
914.793	16344
914.906	16173
915.019	16086
915.132	16025
915.245	16078
915.358	16143
915.47	16128
915.583	16078
915.696	16154
915.809	16211
915.921	16261
916.034	16044
916.146	16006
916.259	16021
916.371	16051
916.483	15953
916.595	15960
916.708	15983
916.82	15895
916.932	15804
917.044	15816
917.156	15789
917.268	15713
917.38	15793
917.491	15823
917.603	15720
917.715	15812
917.826	15816
917.938	15644
918.049	15648
918.161	15599
918.272	15816
918.384	15614
918.495	15652
918.606	15500
918.717	15382
918.828	15473
918.939	15500
919.05	15332
919.161	15405
919.272	15245
919.383	15279
919.494	15511
919.604	15595
919.715	15340
919.826	15298
919.936	15374
920.047	15450
920.157	15412
920.267	15561
920.378	15412
920.488	15435
920.598	15584
920.708	15713
920.818	15618
920.928	15492
921.038	15709
921.148	15603
921.258	15325
921.368	15260
921.477	15123
921.587	15081
921.697	15055
921.806	15195
921.916	14937
922.025	14796
922.134	14804
922.244	14792
922.353	14887
922.462	14697
922.571	14632
922.68	14480
922.789	14389
922.898	14320
923.007	14347
923.116	14454
923.224	14336
923.333	14431
923.442	14290
923.55	14176
923.659	14225
923.767	14149
923.876	14218
923.984	14267
924.092	14111
924.201	14183
924.309	14123
924.417	14111
924.525	14012
924.633	14065
924.741	14853
924.849	13784
924.956	13986
925.064	13841
925.172	13715
925.279	13681
925.387	13742
925.494	13753
925.602	13890
925.709	13849
925.816	13681
925.924	13784
926.031	13734
926.138	13666
926.245	13723
926.352	13582
926.459	13696
926.566	13757
926.673	13613
926.779	13540
926.886	13575
926.993	13411
927.099	13365
927.206	13285
927.312	13255
927.419	13301
927.525	13282
927.631	13320
927.737	13202
927.843	13183
927.95	12985
928.056	13114
928.162	13023
928.267	13213
928.373	13704
928.479	13110
928.585	12817
928.69	13107
928.796	13084
928.901	12859
929.007	12878
929.112	12951
929.218	12920
929.323	12833
929.428	12806
929.533	12852
929.638	12696
929.743	12821
929.848	12753
929.953	12692
930.058	12627
930.163	12574
930.267	12475
930.372	12730
930.477	12445
930.581	12631
930.685	12502
930.79	12346
930.894	12399
930.998	12216
931.103	12513
931.207	12155
931.311	11942
931.415	11904
931.519	11714
931.623	11676
