Data from test_V78500241_692.txt Node
Date: Fri Mar 25 15:46:35 CST 2022
User: usil
Spectrometer: V785-0024
Trigger mode: 0
Integration Time (sec): 4.000000E-1
Scans to average: 1
Nonlinearity correction enabled: false
Boxcar width: 0
Storing dark spectrum: false
XAxis mode: Wavelengths
Number of Pixels in Spectrum: 1024
>>>>>Begin Spectral Data<<<<<
801.071	27842
801.214	27755
801.356	27500
801.499	27485
801.641	27268
801.783	27249
801.926	27374
802.068	27378
802.211	27131
802.353	27096
802.496	27055
802.638	26891
802.78	26842
802.923	26982
803.065	26910
803.208	27112
803.35	26891
803.492	27036
803.635	27298
803.777	26994
803.919	27199
804.061	27374
804.204	27252
804.346	27013
804.488	27062
804.63	27039
804.773	26960
804.915	27233
805.057	27241
805.199	27310
805.341	27272
805.483	27222
805.626	27161
805.768	27131
805.91	27408
806.052	27408
806.194	27142
806.336	27458
806.478	27332
806.62	27275
806.762	27325
806.904	27561
807.046	27804
807.188	27629
807.33	27698
807.472	27698
807.614	27591
807.756	27675
807.898	27363
808.04	27538
808.182	27420
808.324	27523
808.465	27732
808.607	27686
808.749	27945
808.891	27926
809.033	28105
809.174	28059
809.316	27934
809.458	27895
809.6	27880
809.741	28036
809.883	28017
810.025	28303
810.166	28226
810.308	28192
810.45	28322
810.591	28173
810.733	27994
810.875	27907
811.016	27861
811.158	27876
811.299	27998
811.441	28253
811.582	27960
811.724	28036
811.865	27979
812.007	27945
812.148	27937
812.29	27968
812.431	28143
812.573	28314
812.714	28394
812.855	28451
812.997	28531
813.138	28668
813.279	28675
813.421	28546
813.562	28447
813.703	28249
813.845	28154
813.986	27899
814.127	27644
814.268	27663
814.41	27603
814.551	27595
814.692	27679
814.833	27660
814.974	27553
815.115	27667
815.256	27488
815.397	27386
815.539	27534
815.68	27401
815.821	27150
815.962	27389
816.103	27344
816.244	27291
816.385	27188
816.526	27138
816.666	27074
816.807	26807
816.948	26914
817.089	27089
817.23	27001
817.371	26914
817.512	26876
817.653	26815
817.793	26880
817.934	27028
818.075	26982
818.216	26979
818.356	26823
818.497	26594
818.638	26705
818.778	26609
818.919	26705
819.06	26648
819.2	26686
819.341	26914
819.481	26853
819.622	27009
819.762	27165
819.903	27169
820.043	27135
820.184	27123
820.324	27055
820.465	27112
820.605	26967
820.746	27020
820.886	26872
821.026	27077
821.167	27032
821.307	27123
821.447	26940
821.588	26861
821.728	26826
821.868	26499
822.008	26579
822.149	26408
822.289	26305
822.429	26126
822.569	26107
822.709	25966
822.849	25852
822.99	25932
823.13	25826
823.27	25849
823.41	25700
823.55	25597
823.69	25799
823.83	25696
823.97	25704
824.11	25479
824.25	25411
824.389	25483
824.529	25605
824.669	25613
824.809	25590
824.949	25632
825.089	25635
825.228	25552
825.368	25525
825.508	25415
825.648	25403
825.787	25384
825.927	25460
826.067	25403
826.206	25403
826.346	25479
826.485	25377
826.625	25407
826.765	25487
826.904	25468
827.044	25183
827.183	25110
827.323	25095
827.462	25034
827.601	25114
827.741	25023
827.88	25129
828.02	25038
828.159	25046
828.298	25122
828.437	25114
828.577	25008
828.716	25126
828.855	25065
828.994	24920
829.134	24821
829.273	24886
829.412	24791
829.551	24852
829.69	24734
829.829	24738
829.968	24905
830.107	24856
830.246	24783
830.385	24768
830.524	24692
830.663	24665
830.802	24475
830.941	24361
831.08	24380
831.219	24464
831.357	24525
831.496	24669
831.635	24498
831.774	24300
831.913	24346
832.051	24228
832.19	24178
832.329	24258
832.467	24106
832.606	24076
832.744	24049
832.883	24064
833.022	24121
833.16	24076
833.299	24091
833.437	24194
833.576	24190
833.714	24220
833.852	24243
833.991	24266
834.129	24235
834.267	24209
834.406	24129
834.544	24114
834.682	24171
834.821	24152
834.959	24292
835.097	24144
835.235	24159
835.373	24098
835.511	24167
835.65	23946
835.788	24110
835.926	23824
836.064	23726
836.202	23855
836.34	23965
836.478	23988
836.615	23973
836.753	23912
836.891	24076
837.029	24038
837.167	23980
837.305	23958
837.443	23973
837.58	23836
837.718	24011
837.856	23904
837.993	23668
838.131	23805
838.269	23775
838.406	23684
838.544	23558
838.681	23398
838.819	23589
838.956	23322
839.094	23296
839.231	23353
839.369	23398
839.506	23528
839.643	23501
839.781	23185
839.918	23299
840.055	23288
840.193	23334
840.33	23299
840.467	23216
840.604	23113
840.742	23398
840.879	23094
841.016	23181
841.153	23166
841.29	23334
841.427	23258
841.564	23258
841.701	23162
841.838	23121
841.975	23044
842.112	23079
842.249	23064
842.385	22949
842.522	23159
842.659	23029
842.796	22965
842.933	22923
843.069	22889
843.206	22900
843.343	23025
843.479	22866
843.616	23048
843.752	22713
843.889	22679
844.025	22839
844.162	22653
844.298	22873
844.435	22725
844.571	22653
844.708	22725
844.844	22835
844.98	22816
845.117	22881
845.253	22698
845.389	22516
845.525	22698
845.661	22641
845.798	22531
845.934	22653
846.07	22493
846.206	22497
846.342	22607
846.478	22497
846.614	22325
846.75	22207
846.886	22169
847.022	22284
847.158	22325
847.294	22219
847.429	22295
847.565	22211
847.701	22409
847.837	21915
847.972	21926
848.108	22051
848.244	21998
848.379	21819
848.515	21857
848.65	21770
848.786	21861
848.921	21690
849.057	21892
849.192	21816
849.328	21827
849.463	21850
849.598	21694
849.734	21564
849.869	21816
850.004	21652
850.14	21641
850.275	21587
850.41	21412
850.545	21553
850.68	21481
850.815	21603
850.95	21625
851.085	21743
851.22	21671
851.355	21553
851.49	21542
851.625	21534
851.76	21485
851.895	21488
852.03	21420
852.165	21641
852.299	21564
852.434	21549
852.569	21561
852.703	21473
852.838	21717
852.973	21724
853.107	21747
853.242	21561
853.376	21412
853.511	21252
853.645	21306
853.78	21591
853.914	21473
854.048	21260
854.183	21462
854.317	21424
854.451	21515
854.585	21428
854.72	21408
854.854	21595
854.988	21302
855.122	21431
855.256	21294
855.39	21325
855.524	21496
855.658	21412
855.792	21401
855.926	21348
856.06	21435
856.194	21481
856.327	21344
856.461	21351
856.595	21294
856.729	21405
856.862	21435
856.996	21401
857.13	21298
857.263	21439
857.397	21340
857.53	21435
857.664	21344
857.797	21454
857.931	21389
858.064	21344
858.197	21500
858.331	21283
858.464	21393
858.597	21230
858.731	21447
858.864	21325
858.997	21386
859.13	21355
859.263	21424
859.396	21386
859.529	21367
859.662	21291
859.795	21188
859.928	21454
860.061	21553
860.194	21724
860.327	21374
860.46	21306
860.592	21538
860.725	21496
860.858	21515
860.99	21351
861.123	21272
861.256	21367
861.388	21321
861.521	22101
861.653	21211
861.786	21085
861.918	21127
862.05	21264
862.183	21203
862.315	21336
862.447	21462
862.58	21359
862.712	21062
862.844	21131
862.976	21233
863.108	21138
863.24	21545
863.372	21036
863.504	21074
863.636	20960
863.768	20986
863.9	20963
864.032	20990
864.164	21131
864.296	21135
864.428	21157
864.559	21135
864.691	21218
864.823	21055
864.954	21135
865.086	21066
865.217	21070
865.349	20941
865.48	21085
865.612	21047
865.743	21142
865.875	21039
866.006	21013
866.137	20994
866.269	20967
866.4	20982
866.531	21066
866.662	20872
866.793	20895
866.924	20887
867.055	20990
867.186	20929
867.317	20811
867.448	20842
867.579	20849
867.71	20849
867.841	20838
867.972	20925
868.103	20887
868.233	20967
868.364	20952
868.495	21051
868.625	21135
868.756	21256
868.886	20979
869.017	21055
869.147	21214
869.278	21298
869.408	21203
869.539	21131
869.669	21207
869.799	21188
869.929	21363
870.06	21222
870.19	21591
870.32	21500
870.45	21473
870.58	21526
870.71	21606
870.84	21682
870.97	21526
871.1	21519
871.23	21633
871.36	21728
871.489	21606
871.619	21633
871.749	21709
871.879	21804
872.008	21865
872.138	21663
872.267	21709
872.397	21709
872.526	21606
872.656	21663
872.785	21561
872.915	21854
873.044	21899
873.173	21751
873.303	21778
873.432	21873
873.561	22017
873.69	21846
873.819	21774
873.948	21846
874.077	21762
874.206	21838
874.335	21766
874.464	21960
874.593	21998
874.722	22116
874.851	22021
874.979	21998
875.108	22063
875.237	21876
875.365	21956
875.494	21903
875.623	22025
875.751	22029
875.88	22029
876.008	22143
876.136	22188
876.265	22474
876.393	22618
876.521	22341
876.65	22451
876.778	22432
876.906	22238
877.034	22386
877.162	22318
877.29	22329
877.418	22272
877.546	22489
877.674	22382
877.802	22367
877.93	22329
878.058	22390
878.185	22249
878.313	22249
878.441	22276
878.568	22154
878.696	22280
878.824	22344
878.951	22542
879.079	22622
879.206	22618
879.333	22405
879.461	22314
879.588	22424
879.715	22459
879.842	22455
879.97	22504
880.097	22238
880.224	22162
880.351	22200
880.478	22143
880.605	22128
880.732	22139
880.859	22527
880.986	22120
881.112	22150
881.239	21953
881.366	21892
881.493	21861
881.619	21869
881.746	21736
881.872	21751
881.999	21736
882.125	21709
882.252	21827
882.378	21804
882.505	21804
882.631	21587
882.757	21462
882.883	21519
883.01	21466
883.136	21389
883.262	21359
883.388	21272
883.514	21466
883.64	21469
883.766	21416
883.892	21275
884.018	21302
884.143	21454
884.269	21488
884.395	21146
884.52	21089
884.646	21119
884.772	20982
884.897	20982
885.023	21077
885.148	21272
885.274	21218
885.399	21154
885.524	21077
885.65	21161
885.775	21173
885.9	21165
886.025	21161
886.15	21142
886.275	21024
886.4	21001
886.525	21036
886.65	20990
886.775	21138
886.9	21169
887.025	21302
887.149	21100
887.274	20956
887.399	20941
887.523	20899
887.648	20830
887.773	20750
887.897	20979
888.021	20891
888.146	20845
888.27	20918
888.395	20963
888.519	20845
888.643	20906
888.767	21009
888.891	20682
889.015	20659
889.139	20708
889.263	20537
889.387	20857
889.511	20811
889.635	20792
889.759	20754
889.883	20689
890.006	20712
890.13	20746
890.254	20492
890.377	20613
890.501	20358
890.624	20294
890.748	20431
890.871	20339
890.995	20259
891.118	20153
891.241	20240
891.364	20225
891.488	20248
891.611	20233
891.734	20115
891.857	20229
891.98	20157
892.103	20305
892.226	20267
892.349	20172
892.471	20031
892.594	20046
892.717	20100
892.839	20168
892.962	20259
893.085	20077
893.207	20031
893.33	20031
893.452	19955
893.575	20183
893.697	20054
893.819	20355
893.941	20396
894.064	20164
894.186	19913
894.308	20050
894.43	20187
894.552	20336
894.674	20096
894.796	20058
894.918	20088
895.04	20043
895.161	20187
895.283	20176
895.405	20069
895.526	20122
895.648	19974
895.769	20229
895.891	20126
896.012	20218
896.134	20237
896.255	20069
896.376	20206
896.498	20172
896.619	20191
896.74	20180
896.861	20187
896.982	20446
897.103	20518
897.224	20457
897.345	20294
897.466	20313
897.587	20370
897.708	20480
897.828	20396
897.949	20362
898.07	20233
898.19	20180
898.311	20499
898.431	20309
898.552	20233
898.672	20507
898.792	20313
898.913	20431
899.033	20199
899.153	20069
899.273	20107
899.393	20142
899.513	20115
899.633	20237
899.753	20035
899.873	20069
899.993	20157
900.113	20058
900.232	20065
900.352	20058
900.472	19967
900.591	19989
900.711	19871
900.83	19845
900.95	19947
901.069	19944
901.189	19860
901.308	19628
901.427	19422
901.546	19525
901.665	19597
901.784	19346
901.904	19449
902.023	19282
902.141	19190
902.26	19019
902.379	19034
902.498	18913
902.617	18947
902.735	19004
902.854	18875
902.973	18928
903.091	18608
903.21	18604
903.328	18597
903.446	18551
903.565	18426
903.683	18521
903.801	18315
903.919	18441
904.038	18384
904.156	18273
904.274	18300
904.392	18167
904.51	18235
904.627	18182
904.745	18205
904.863	18292
904.981	18007
905.098	17927
905.216	17977
905.334	17992
905.451	17882
905.569	17817
905.686	17885
905.803	18007
905.921	17779
906.038	17695
906.155	17676
906.272	17547
906.389	17653
906.506	17573
906.623	17444
906.74	17410
906.857	17223
906.974	17398
907.091	17436
907.208	17566
907.324	17478
907.441	17318
907.557	17143
907.674	17220
907.79	16987
907.907	17151
908.023	17140
908.139	17052
908.256	17060
908.372	17033
908.488	16980
908.604	16968
908.72	16782
908.836	16862
908.952	16843
909.068	16767
909.184	17003
909.3	16843
909.415	16942
909.531	16778
909.647	16645
909.762	16519
909.878	16596
909.993	16523
910.108	16561
910.224	16512
910.339	16497
910.454	16508
910.57	16356
910.685	16367
910.8	16580
910.915	16409
911.03	16325
911.145	16261
911.259	16181
911.374	16200
911.489	16071
911.604	16051
911.718	15968
911.833	15945
911.947	15854
912.062	15899
912.176	15979
912.291	15934
912.405	15915
912.519	16162
912.633	16017
912.748	15876
912.862	15884
912.976	15770
913.09	15633
913.204	15690
913.318	15656
913.431	15884
913.545	15831
913.659	15762
913.772	15675
913.886	15553
914	15576
914.113	15580
914.226	15724
914.34	15591
914.453	15397
914.566	15545
914.68	15492
914.793	15439
914.906	15218
915.019	15184
915.132	15047
915.245	15157
915.358	15119
915.47	15260
915.583	15195
915.696	15199
915.809	15279
915.921	15256
916.034	15093
916.146	14971
916.259	14982
916.371	15169
916.483	15055
916.595	14891
916.708	14910
916.82	14914
916.932	14944
917.044	14914
917.156	14876
917.268	14849
917.38	14838
917.491	14739
917.603	14716
917.715	14834
917.826	14880
917.938	14682
918.049	14640
918.161	14731
918.272	14952
918.384	14800
918.495	14746
918.606	14545
918.717	14469
918.828	14530
918.939	14678
919.05	14412
919.161	14454
919.272	14408
919.383	14328
919.494	14587
919.604	14735
919.715	14526
919.826	14454
919.936	14533
920.047	14587
920.157	14556
920.267	14705
920.378	14568
920.488	14541
920.598	14735
920.708	14811
920.818	14537
920.928	14758
921.038	14845
921.148	14785
921.258	14503
921.368	14408
921.477	14301
921.587	14233
921.697	14077
921.806	14298
921.916	14077
922.025	13913
922.134	13925
922.244	13731
922.353	13932
922.462	13776
922.571	13719
922.68	13586
922.789	13521
922.898	13529
923.007	13460
923.116	13552
923.224	13506
923.333	13495
923.442	13415
923.55	13369
923.659	13331
923.767	13468
923.876	13289
923.984	13430
924.092	13240
924.201	13384
924.309	13274
924.417	13274
924.525	13133
924.633	13183
924.741	14115
924.849	13046
924.956	13122
925.064	13027
925.172	12954
925.279	12837
925.387	12989
925.494	12993
925.602	13141
925.709	13031
925.816	12814
925.924	12970
926.031	12993
926.138	12825
926.245	12966
926.352	12768
926.459	12920
926.566	13038
926.673	12798
926.779	12726
926.886	12700
926.993	12601
927.099	12547
927.206	12467
927.312	12441
927.419	12627
927.525	12574
927.631	12540
927.737	12441
927.843	12376
927.95	12369
928.056	12334
928.162	12300
928.267	12395
928.373	12985
928.479	12384
928.585	12171
928.69	12308
928.796	12296
928.901	12201
929.007	12117
929.112	12148
929.218	12091
929.323	12087
929.428	12049
929.533	12155
929.638	11927
929.743	11939
929.848	12072
929.953	11965
930.058	11950
930.163	11767
930.267	11824
930.372	11874
930.477	11646
930.581	11866
930.685	11809
930.79	11646
930.894	11676
930.998	11573
931.103	11729
931.207	11398
931.311	11353
931.415	11197
931.519	10987
931.623	11029
