Data from test_V78500241_3431.txt Node
Date: Fri Mar 25 16:05:34 CST 2022
User: usil
Spectrometer: V785-0024
Trigger mode: 0
Integration Time (sec): 4.000000E-1
Scans to average: 1
Nonlinearity correction enabled: false
Boxcar width: 0
Storing dark spectrum: false
XAxis mode: Wavelengths
Number of Pixels in Spectrum: 1024
>>>>>Begin Spectral Data<<<<<
801.071	28797
801.214	28668
801.356	28550
801.499	28512
801.641	28371
801.783	28341
801.926	28413
802.068	28470
802.211	28310
802.353	28360
802.496	28101
802.638	28078
802.78	28147
802.923	27937
803.065	28032
803.208	27998
803.35	28032
803.492	28196
803.635	28074
803.777	28276
803.919	28371
804.061	28554
804.204	28401
804.346	28185
804.488	28249
804.63	28276
804.773	28223
804.915	28318
805.057	28405
805.199	28379
805.341	28432
805.483	28573
805.626	28459
805.768	28447
805.91	28424
806.052	28596
806.194	28443
806.336	28660
806.478	28649
806.62	28455
806.762	28736
806.904	28888
807.046	28805
807.188	28831
807.33	28896
807.472	29071
807.614	28866
807.756	28862
807.898	28698
808.04	28565
808.182	28706
808.324	28850
808.465	28790
808.607	28946
808.749	29197
808.891	29269
809.033	29258
809.174	29231
809.316	29227
809.458	29098
809.6	29121
809.741	29254
809.883	29307
810.025	29410
810.166	29490
810.308	29383
810.45	29417
810.591	29429
810.733	29132
810.875	29166
811.016	29086
811.158	29090
811.299	29368
811.441	29326
811.582	29356
811.724	29174
811.865	29216
812.007	29121
812.148	29345
812.29	29265
812.431	29292
812.573	29520
812.714	29623
812.855	29752
812.997	29760
813.138	29954
813.279	29935
813.421	29855
813.562	29608
813.703	29433
813.845	29433
813.986	29254
814.127	29006
814.268	28873
814.41	28938
814.551	28816
814.692	29037
814.833	28854
814.974	28752
815.115	28900
815.256	28717
815.397	28759
815.539	28790
815.68	28736
815.821	28512
815.962	28771
816.103	28664
816.244	28519
816.385	28535
816.526	28489
816.666	28234
816.807	28257
816.948	28242
817.089	28204
817.23	28150
817.371	28120
817.512	28329
817.653	28169
817.793	28147
817.934	28280
818.075	28261
818.216	28177
818.356	28124
818.497	28002
818.638	27991
818.778	28032
818.919	27964
819.06	28036
819.2	28147
819.341	28124
819.481	28200
819.622	28310
819.762	28626
819.903	28447
820.043	28519
820.184	28462
820.324	28196
820.465	28485
820.605	28436
820.746	28394
820.886	28143
821.026	28341
821.167	28371
821.307	28390
821.447	28333
821.588	28211
821.728	27994
821.868	27930
822.008	27698
822.149	27701
822.289	27625
822.429	27580
822.569	27283
822.709	27370
822.849	27218
822.99	27233
823.13	27214
823.27	27116
823.41	26925
823.55	26948
823.69	26948
823.83	27123
823.97	26842
824.11	26986
824.25	26826
824.389	26910
824.529	27108
824.669	26925
824.809	26960
824.949	26796
825.089	26963
825.228	26880
825.368	26644
825.508	26655
825.648	26887
825.787	26750
825.927	26864
826.067	26693
826.206	26743
826.346	26849
826.485	26876
826.625	26720
826.765	26788
826.904	26918
827.044	26564
827.183	26457
827.323	26492
827.462	26530
827.601	26488
827.741	26415
827.88	26408
828.02	26396
828.159	26317
828.298	26412
828.437	26450
828.577	26446
828.716	26552
828.855	26396
828.994	26180
829.134	26115
829.273	26168
829.412	26145
829.551	25951
829.69	26126
829.829	26244
829.968	26084
830.107	26195
830.246	26031
830.385	25974
830.524	25986
830.663	25940
830.802	25852
830.941	25795
831.08	25704
831.219	25753
831.357	25841
831.496	25890
831.635	25769
831.774	25723
831.913	25674
832.051	25635
832.19	25655
832.329	25506
832.467	25487
832.606	25403
832.744	25403
832.883	25495
833.022	25266
833.16	25373
833.299	25472
833.437	25483
833.576	25556
833.714	25601
833.852	25453
833.991	25472
834.129	25662
834.267	25605
834.406	25590
834.544	25670
834.682	25464
834.821	25559
834.959	25670
835.097	25502
835.235	25445
835.373	25567
835.511	25586
835.65	25384
835.788	25324
835.926	25168
836.064	25099
836.202	25251
836.34	25270
836.478	25457
836.615	25320
836.753	25247
836.891	25502
837.029	25293
837.167	25255
837.305	25320
837.443	25308
837.58	25122
837.718	25164
837.856	25183
837.993	25095
838.131	25266
838.269	25076
838.406	25019
838.544	24935
838.681	24901
838.819	24787
838.956	24582
839.094	24509
839.231	24604
839.369	24791
839.506	25004
839.643	24909
839.781	24589
839.918	24429
840.055	24574
840.193	24521
840.33	24445
840.467	24540
840.604	24597
840.742	24837
840.879	24486
841.016	24441
841.153	24384
841.29	24441
841.427	24464
841.564	24498
841.701	24456
841.838	24403
841.975	24403
842.112	24414
842.249	24281
842.385	24353
842.522	24414
842.659	24445
842.796	24281
842.933	24281
843.069	24213
843.206	24171
843.343	24418
843.479	24277
843.616	24323
843.752	24011
843.889	24194
844.025	24163
844.162	23965
844.298	24171
844.435	23916
844.571	24030
844.708	24152
844.844	24266
844.98	24117
845.117	24140
845.253	23988
845.389	23965
845.525	24091
845.661	24015
845.798	23870
845.934	23897
846.07	23843
846.206	23923
846.342	23916
846.478	23775
846.614	23642
846.75	23353
846.886	23524
847.022	23497
847.158	23520
847.294	23490
847.429	23440
847.565	23334
847.701	23695
847.837	23143
847.972	23090
848.108	23307
848.244	23273
848.379	23003
848.515	23048
848.65	23071
848.786	23124
848.921	23113
849.057	23170
849.192	23147
849.328	22991
849.463	23147
849.598	22942
849.734	23018
849.869	22892
850.004	22839
850.14	22877
850.275	22927
850.41	22721
850.545	22713
850.68	22820
850.815	22987
850.95	22801
851.085	23018
851.22	23041
851.355	22850
851.49	22892
851.625	22767
851.76	22812
851.895	22725
852.03	22706
852.165	22831
852.299	22908
852.434	22919
852.569	22873
852.703	22889
852.838	22892
852.973	23022
853.107	23006
853.242	22752
853.376	22748
853.511	22554
853.645	22573
853.78	22850
853.914	22694
854.048	22831
854.183	22611
854.317	22653
854.451	22908
854.585	22786
854.72	22683
854.854	22744
854.988	22645
855.122	22710
855.256	22550
855.39	22637
855.524	22839
855.658	22748
855.792	22599
855.926	22713
856.06	22774
856.194	22782
856.327	22649
856.461	22664
856.595	22679
856.729	22573
856.862	22843
856.996	22763
857.13	22774
857.263	22717
857.397	22748
857.53	22615
857.664	22698
857.797	22767
857.931	22744
858.064	22717
858.197	22812
858.331	22641
858.464	22626
858.597	22546
858.731	22725
858.864	22713
858.997	22573
859.13	22683
859.263	22698
859.396	22790
859.529	22603
859.662	22782
859.795	22535
859.928	22744
860.061	22778
860.194	22892
860.327	22687
860.46	22752
860.592	22721
860.725	22759
860.858	22733
860.99	22698
861.123	22550
861.256	22565
861.388	22478
861.521	23414
861.653	22451
861.786	22421
861.918	22474
862.05	22504
862.183	22592
862.315	22538
862.447	22668
862.58	22664
862.712	22466
862.844	22318
862.976	22470
863.108	22440
863.24	22675
863.372	22295
863.504	22249
863.636	22310
863.768	22371
863.9	22493
864.032	22226
864.164	22451
864.296	22443
864.428	22443
864.559	22474
864.691	22478
864.823	22485
864.954	22333
865.086	22424
865.217	22234
865.349	22211
865.48	22124
865.612	22185
865.743	22360
865.875	22337
866.006	22249
866.137	22253
866.269	22219
866.4	22280
866.531	22200
866.662	22131
866.793	22131
866.924	22257
867.055	22272
867.186	22230
867.317	22154
867.448	22082
867.579	22150
867.71	22067
867.841	22074
867.972	22143
868.103	22226
868.233	22162
868.364	22082
868.495	22284
868.625	22470
868.756	22527
868.886	22360
869.017	22432
869.147	22569
869.278	22546
869.408	22554
869.539	22462
869.669	22542
869.799	22493
869.929	22497
870.06	22580
870.19	22675
870.32	22672
870.45	22763
870.58	22778
870.71	22957
870.84	22862
870.97	22839
871.1	22866
871.23	23064
871.36	23010
871.489	22930
871.619	22987
871.749	23113
871.879	23052
872.008	23162
872.138	22972
872.267	22987
872.397	22938
872.526	22885
872.656	22934
872.785	22782
872.915	23098
873.044	23140
873.173	23064
873.303	23064
873.432	23060
873.561	23162
873.69	23143
873.819	23018
873.948	23121
874.077	23136
874.206	22934
874.335	23178
874.464	23174
874.593	23193
874.722	23280
874.851	23330
874.979	23193
875.108	23277
875.237	23181
875.365	23136
875.494	23197
875.623	23360
875.751	23223
875.88	23258
876.008	23383
876.136	23547
876.265	23707
876.393	23767
876.521	23649
876.65	23657
876.778	23676
876.906	23581
877.034	23600
877.162	23630
877.29	23611
877.418	23699
877.546	23608
877.674	23551
877.802	23649
877.93	23531
878.058	23577
878.185	23448
878.313	23703
878.441	23672
878.568	23216
878.696	23558
878.824	23608
878.951	23714
879.079	23783
879.206	23866
879.333	23737
879.461	23630
879.588	23756
879.715	23851
879.842	23893
879.97	23710
880.097	23414
880.224	23318
880.351	23619
880.478	23356
880.605	23417
880.732	23391
880.859	23672
880.986	23391
881.112	23444
881.239	23181
881.366	23220
881.493	23029
881.619	22900
881.746	23048
881.872	23010
881.999	22995
882.125	22858
882.252	23018
882.378	22908
882.505	23014
882.631	22774
882.757	22740
882.883	22637
883.01	22706
883.136	22527
883.262	22573
883.388	22565
883.514	22713
883.64	22774
883.766	22538
883.892	22432
884.018	22379
884.143	22588
884.269	22550
884.395	22405
884.52	22246
884.646	22409
884.772	22192
884.897	22268
885.023	22211
885.148	22303
885.274	22405
885.399	22356
885.524	22196
885.65	22230
885.775	22257
885.9	22329
886.025	22310
886.15	22394
886.275	22219
886.4	22139
886.525	22284
886.65	22223
886.775	22253
886.9	22299
887.025	22398
887.149	22276
887.274	22059
887.399	22135
887.523	22036
887.648	21899
887.773	21975
887.897	22173
888.021	22006
888.146	21998
888.27	22120
888.395	22093
888.519	21968
888.643	22055
888.767	22059
888.891	21945
889.015	21690
889.139	21918
889.263	21850
889.387	21998
889.511	21987
889.635	21926
889.759	21808
889.883	21728
890.006	21778
890.13	21941
890.254	21793
890.377	21793
890.501	21633
890.624	21530
890.748	21648
890.871	21477
890.995	21302
891.118	21389
891.241	21428
891.364	21340
891.488	21416
891.611	21458
891.734	21374
891.857	21473
891.98	21397
892.103	21401
892.226	21355
892.349	21374
892.471	21211
892.594	21386
892.717	21230
892.839	21336
892.962	21287
893.085	21256
893.207	21169
893.33	21192
893.452	21157
893.575	21313
893.697	21249
893.819	21370
893.941	21454
894.064	21435
894.186	21226
894.308	21222
894.43	21245
894.552	21485
894.674	21340
894.796	21169
894.918	21211
895.04	21264
895.161	21264
895.283	21176
895.405	21298
895.526	21272
895.648	21363
895.769	21169
895.891	21222
896.012	21485
896.134	21233
896.255	21272
896.376	21176
896.498	21184
896.619	21142
896.74	21184
896.861	21192
896.982	21564
897.103	21701
897.224	21378
897.345	21462
897.466	21363
897.587	21458
897.708	21583
897.828	21420
897.949	21329
898.07	21325
898.19	21291
898.311	21458
898.431	21374
898.552	21412
898.672	21511
898.792	21401
898.913	21420
899.033	21317
899.153	21252
899.273	21192
899.393	21165
899.513	21119
899.633	21157
899.753	21138
899.873	21104
899.993	21180
900.113	21100
900.232	21104
900.352	20994
900.472	20971
900.591	20891
900.711	20986
900.83	20883
900.95	20956
901.069	21047
901.189	20895
901.308	20533
901.427	20503
901.546	20495
901.665	20625
901.784	20545
901.904	20309
902.023	20328
902.141	19989
902.26	19989
902.379	20119
902.498	20065
902.617	20027
902.735	19986
902.854	20001
902.973	19845
903.091	19742
903.21	19689
903.328	19635
903.446	19563
903.565	19453
903.683	19480
903.801	19521
903.919	19335
904.038	19449
904.156	19304
904.274	19263
904.392	19240
904.51	19228
904.627	19088
904.745	19350
904.863	19206
904.981	18947
905.098	18817
905.216	18798
905.334	18939
905.451	18905
905.569	18837
905.686	18897
905.803	18951
905.921	18677
906.038	18669
906.155	18627
906.272	18639
906.389	18532
906.506	18353
906.623	18475
906.74	18369
906.857	18300
906.974	18266
907.091	18426
907.208	18471
907.324	18365
907.441	18270
907.557	18072
907.674	18106
907.79	17969
907.907	18041
908.023	18178
908.139	18140
908.256	18083
908.372	18007
908.488	17946
908.604	17935
908.72	17790
908.836	17775
908.952	17745
909.068	17786
909.184	17923
909.3	17714
909.415	17805
909.531	17779
909.647	17577
909.762	17554
909.878	17440
909.993	17509
910.108	17505
910.224	17478
910.339	17486
910.454	17433
910.57	17299
910.685	17341
910.8	17543
910.915	17524
911.03	17299
911.145	17124
911.259	17117
911.374	17037
911.489	16984
911.604	16987
911.718	16790
911.833	16782
911.947	16702
912.062	16649
912.176	16843
912.291	16885
912.405	16805
912.519	17079
912.633	17025
912.748	16949
912.862	16805
912.976	16672
913.09	16432
913.204	16523
913.318	16653
913.431	16755
913.545	16641
913.659	16645
913.772	16550
913.886	16508
914	16421
914.113	16535
914.226	16592
914.34	16500
914.453	16306
914.566	16394
914.68	16226
914.793	16306
914.906	15983
915.019	16002
915.132	15964
915.245	15991
915.358	16002
915.47	15987
915.583	15884
915.696	16025
915.809	16055
915.921	16131
916.034	15983
916.146	15884
916.259	15888
916.371	15850
916.483	15831
916.595	15793
916.708	15804
916.82	15785
916.932	15789
917.044	15720
917.156	15694
917.268	15599
917.38	15679
917.491	15561
917.603	15660
917.715	15701
917.826	15675
917.938	15652
918.049	15401
918.161	15469
918.272	15618
918.384	15682
918.495	15599
918.606	15382
918.717	15336
918.828	15291
918.939	15332
919.05	15298
919.161	15252
919.272	15112
919.383	15241
919.494	15344
919.604	15526
919.715	15294
919.826	15233
919.936	15363
920.047	15424
920.157	15233
920.267	15458
920.378	15321
920.488	15252
920.598	15386
920.708	15519
920.818	15408
920.928	15428
921.038	15606
921.148	15485
921.258	15230
921.368	15157
921.477	15070
921.587	15020
921.697	14914
921.806	15043
921.916	14842
922.025	14758
922.134	14731
922.244	14560
922.353	14651
922.462	14499
922.571	14419
922.68	14324
922.789	14332
922.898	14294
923.007	14248
923.116	14240
923.224	14248
923.333	14290
923.442	14138
923.55	13993
923.659	14149
923.767	14218
923.876	14050
923.984	14115
924.092	13967
924.201	14005
924.309	13955
924.417	13974
924.525	13837
924.633	13902
924.741	14872
924.849	13731
924.956	13917
925.064	13719
925.172	13666
925.279	13590
925.387	13799
925.494	13590
925.602	13746
925.709	13681
925.816	13578
925.924	13677
926.031	13658
926.138	13552
926.245	13601
926.352	13499
926.459	13620
926.566	13681
926.673	13518
926.779	13449
926.886	13460
926.993	13327
927.099	13240
927.206	13095
927.312	13175
927.419	13240
927.525	13209
927.631	13118
927.737	13152
927.843	13053
927.95	12947
928.056	12996
928.162	13057
928.267	13046
928.373	13780
928.479	13050
928.585	12905
928.69	13061
928.796	12951
928.901	12871
929.007	12745
929.112	12844
929.218	12779
929.323	12821
929.428	12719
929.533	12913
929.638	12684
929.743	12631
929.848	12673
929.953	12631
930.058	12616
930.163	12357
930.267	12471
930.372	12525
930.477	12361
930.581	12547
930.685	12429
930.79	12289
930.894	12369
930.998	12197
931.103	12441
931.207	12098
931.311	11984
931.415	11916
931.519	11649
931.623	11649
