Data from test_V78500241_2616.txt Node
Date: Fri Mar 25 15:59:55 CST 2022
User: usil
Spectrometer: V785-0024
Trigger mode: 0
Integration Time (sec): 4.000000E-1
Scans to average: 1
Nonlinearity correction enabled: false
Boxcar width: 0
Storing dark spectrum: false
XAxis mode: Wavelengths
Number of Pixels in Spectrum: 1024
>>>>>Begin Spectral Data<<<<<
801.071	28885
801.214	28767
801.356	28596
801.499	28599
801.641	28462
801.783	28382
801.926	28596
802.068	28500
802.211	28436
802.353	28257
802.496	28200
802.638	28211
802.78	28017
802.923	27892
803.065	27869
803.208	28006
803.35	28166
803.492	28257
803.635	28382
803.777	28265
803.919	28382
804.061	28717
804.204	28363
804.346	28394
804.488	28268
804.63	28390
804.773	28158
804.915	28500
805.057	28443
805.199	28470
805.341	28436
805.483	28531
805.626	28577
805.768	28367
805.91	28531
806.052	28519
806.194	28512
806.336	28774
806.478	28557
806.62	28440
806.762	28694
806.904	28839
807.046	29037
807.188	29067
807.33	29056
807.472	29162
807.614	29071
807.756	28862
807.898	28824
808.04	28721
808.182	28615
808.324	28820
808.465	28809
808.607	29140
808.749	29280
808.891	29311
809.033	29414
809.174	29284
809.316	29227
809.458	29143
809.6	29284
809.741	29315
809.883	29364
810.025	29566
810.166	29463
810.308	29642
810.45	29486
810.591	29391
810.733	29334
810.875	29200
811.016	29204
811.158	29162
811.299	29067
811.441	29410
811.582	29410
811.724	29372
811.865	29261
812.007	29254
812.148	29280
812.29	29433
812.431	29364
812.573	29748
812.714	29615
812.855	29756
812.997	29999
813.138	30041
813.279	29996
813.421	29786
813.562	29703
813.703	29722
813.845	29516
813.986	29140
814.127	29147
814.268	29025
814.41	29044
814.551	28984
814.692	29143
814.833	28972
814.974	28919
815.115	29006
815.256	28843
815.397	28854
815.539	28847
815.68	28839
815.821	28630
815.962	28717
816.103	28892
816.244	28675
816.385	28523
816.526	28580
816.666	28382
816.807	28246
816.948	28329
817.089	28538
817.23	28291
817.371	28131
817.512	28306
817.653	28284
817.793	28287
817.934	28223
818.075	28401
818.216	28341
818.356	28219
818.497	27972
818.638	28112
818.778	28070
818.919	28158
819.06	28162
819.2	28363
819.341	28382
819.481	28173
819.622	28557
819.762	28767
819.903	28630
820.043	28550
820.184	28371
820.324	28417
820.465	28516
820.605	28440
820.746	28390
820.886	28242
821.026	28306
821.167	28325
821.307	28512
821.447	28337
821.588	28280
821.728	28097
821.868	27914
822.008	27854
822.149	27804
822.289	27709
822.429	27519
822.569	27462
822.709	27405
822.849	27207
822.99	27291
823.13	27260
823.27	27214
823.41	27154
823.55	26910
823.69	27081
823.83	27108
823.97	26967
824.11	27085
824.25	26804
824.389	26918
824.529	27093
824.669	27001
824.809	26982
824.949	27093
825.089	26975
825.228	27047
825.368	26834
825.508	26815
825.648	26952
825.787	26697
825.927	26792
826.067	26769
826.206	26731
826.346	26796
826.485	27013
826.625	26815
826.765	26819
826.904	26792
827.044	26648
827.183	26682
827.323	26564
827.462	26659
827.601	26617
827.741	26423
827.88	26549
828.02	26602
828.159	26651
828.298	26511
828.437	26632
828.577	26564
828.716	26537
828.855	26537
828.994	26282
829.134	26294
829.273	26225
829.412	26259
829.551	26229
829.69	26286
829.829	26214
829.968	26294
830.107	26187
830.246	26248
830.385	26180
830.524	26176
830.663	26096
830.802	26012
830.941	25909
831.08	25738
831.219	25841
831.357	26077
831.496	26073
831.635	25776
831.774	25772
831.913	25746
832.051	25609
832.19	25601
832.329	25624
832.467	25548
832.606	25468
832.744	25460
832.883	25472
833.022	25415
833.16	25384
833.299	25578
833.437	25597
833.576	25632
833.714	25616
833.852	25563
833.991	25605
834.129	25708
834.267	25750
834.406	25487
834.544	25525
834.682	25723
834.821	25601
834.959	25757
835.097	25529
835.235	25582
835.373	25651
835.511	25510
835.65	25407
835.788	25483
835.926	25206
836.064	25240
836.202	25282
836.34	25403
836.478	25422
836.615	25396
836.753	25495
836.891	25613
837.029	25343
837.167	25388
837.305	25354
837.443	25419
837.58	25107
837.718	25308
837.856	25274
837.993	25198
838.131	25244
838.269	25129
838.406	25107
838.544	25061
838.681	24859
838.819	24863
838.956	24658
839.094	24677
839.231	24681
839.369	24875
839.506	25160
839.643	24970
839.781	24544
839.918	24566
840.055	24768
840.193	24688
840.33	24692
840.467	24658
840.604	24521
840.742	24738
840.879	24486
841.016	24593
841.153	24513
841.29	24677
841.427	24665
841.564	24604
841.701	24460
841.838	24494
841.975	24395
842.112	24448
842.249	24418
842.385	24315
842.522	24578
842.659	24395
842.796	24330
842.933	24273
843.069	24334
843.206	24365
843.343	24384
843.479	24456
843.616	24292
843.752	24136
843.889	24224
844.025	24232
844.162	24114
844.298	24178
844.435	24213
844.571	24076
844.708	24247
844.844	24270
844.98	24178
845.117	24254
845.253	24083
845.389	24038
845.525	24182
845.661	23916
845.798	23794
845.934	23999
846.07	23889
846.206	23908
846.342	23988
846.478	23779
846.614	23554
846.75	23482
846.886	23585
847.022	23687
847.158	23551
847.294	23490
847.429	23668
847.565	23417
847.701	23798
847.837	23330
847.972	23242
848.108	23353
848.244	23440
848.379	23250
848.515	23109
848.65	23025
848.786	23250
848.921	23227
849.057	23220
849.192	23204
849.328	23185
849.463	23178
849.598	23147
849.734	22968
849.869	22984
850.004	22991
850.14	22972
850.275	22896
850.41	22915
850.545	22942
850.68	22919
850.815	22930
850.95	22877
851.085	23037
851.22	23014
851.355	22957
851.49	22904
851.625	22869
851.76	22805
851.895	22824
852.03	22744
852.165	22934
852.299	22930
852.434	22972
852.569	22942
852.703	22938
852.838	23056
852.973	23022
853.107	22984
853.242	22892
853.376	22713
853.511	22596
853.645	22580
853.78	22778
853.914	22736
854.048	22683
854.183	22668
854.317	22831
854.451	22873
854.585	22687
854.72	22653
854.854	22782
854.988	22641
855.122	22717
855.256	22618
855.39	22774
855.524	22869
855.658	22774
855.792	22793
855.926	22748
856.06	22771
856.194	22873
856.327	22687
856.461	22733
856.595	22618
856.729	22774
856.862	22820
856.996	22752
857.13	22805
857.263	22824
857.397	22729
857.53	22778
857.664	22793
857.797	22687
857.931	22934
858.064	22755
858.197	22721
858.331	22675
858.464	22649
858.597	22592
858.731	22820
858.864	22755
858.997	22660
859.13	22687
859.263	22748
859.396	22809
859.529	22679
859.662	22675
859.795	22634
859.928	22733
860.061	22892
860.194	22881
860.327	22843
860.46	22706
860.592	22927
860.725	22771
860.858	22961
860.99	22763
861.123	22713
861.256	22656
861.388	22717
861.521	23433
861.653	22580
861.786	22535
861.918	22622
862.05	22599
862.183	22698
862.315	22637
862.447	22793
862.58	22603
862.712	22478
862.844	22542
862.976	22459
863.108	22519
863.24	22725
863.372	22287
863.504	22360
863.636	22356
863.768	22386
863.9	22447
864.032	22413
864.164	22485
864.296	22519
864.428	22485
864.559	22470
864.691	22512
864.823	22382
864.954	22508
865.086	22382
865.217	22363
865.349	22207
865.48	22303
865.612	22291
865.743	22382
865.875	22440
866.006	22299
866.137	22318
866.269	22154
866.4	22303
866.531	22246
866.662	22162
866.793	22120
866.924	22363
867.055	22215
867.186	22246
867.317	22143
867.448	22051
867.579	22204
867.71	22078
867.841	22128
867.972	22295
868.103	22207
868.233	22226
868.364	22188
868.495	22325
868.625	22341
868.756	22504
868.886	22424
869.017	22489
869.147	22565
869.278	22577
869.408	22466
869.539	22512
869.669	22527
869.799	22523
869.929	22550
870.06	22557
870.19	22694
870.32	22713
870.45	22793
870.58	22748
870.71	23071
870.84	22938
870.97	22904
871.1	22805
871.23	23060
871.36	23037
871.489	22995
871.619	23056
871.749	23033
871.879	22976
872.008	23140
872.138	23003
872.267	23189
872.397	22938
872.526	22934
872.656	22934
872.785	22934
872.915	22976
873.044	23105
873.173	23185
873.303	23143
873.432	23151
873.561	23200
873.69	23121
873.819	23094
873.948	23189
874.077	23143
874.206	22980
874.335	23147
874.464	23162
874.593	23349
874.722	23277
874.851	23395
874.979	23425
875.108	23448
875.237	23197
875.365	23166
875.494	23239
875.623	23410
875.751	23303
875.88	23326
876.008	23398
876.136	23497
876.265	23581
876.393	23809
876.521	23726
876.65	23832
876.778	23646
876.906	23649
877.034	23657
877.162	23573
877.29	23608
877.418	23726
877.546	23596
877.674	23623
877.802	23638
877.93	23619
878.058	23699
878.185	23524
878.313	23741
878.441	23638
878.568	23539
878.696	23608
878.824	23638
878.951	23771
879.079	23805
879.206	23908
879.333	23840
879.461	23653
879.588	23794
879.715	23821
879.842	23901
879.97	23733
880.097	23433
880.224	23455
880.351	23474
880.478	23581
880.605	23455
880.732	23356
880.859	23653
880.986	23440
881.112	23570
881.239	23417
881.366	23166
881.493	23155
881.619	23109
881.746	23029
881.872	23231
881.999	22976
882.125	22991
882.252	23064
882.378	23010
882.505	23246
882.631	22797
882.757	22668
882.883	22801
883.01	22801
883.136	22767
883.262	22569
883.388	22588
883.514	22702
883.64	22771
883.766	22599
883.892	22474
884.018	22599
884.143	22637
884.269	22710
884.395	22367
884.52	22272
884.646	22394
884.772	22310
884.897	22295
885.023	22268
885.148	22440
885.274	22398
885.399	22531
885.524	22287
885.65	22371
885.775	22398
885.9	22322
886.025	22367
886.15	22390
886.275	22314
886.4	22257
886.525	22299
886.65	22166
886.775	22177
886.9	22375
887.025	22516
887.149	22284
887.274	22147
887.399	22086
887.523	22006
887.648	22112
887.773	22055
887.897	22139
888.021	22200
888.146	21987
888.27	22158
888.395	22185
888.519	22124
888.643	22158
888.767	22093
888.891	21983
889.015	21869
889.139	21930
889.263	21781
889.387	21956
889.511	21991
889.635	21964
889.759	21968
889.883	21911
890.006	21915
890.13	21937
890.254	21876
890.377	21876
890.501	21500
890.624	21641
890.748	21724
890.871	21431
890.995	21420
891.118	21230
891.241	21412
891.364	21367
891.488	21549
891.611	21344
891.734	21344
891.857	21397
891.98	21412
892.103	21515
892.226	21412
892.349	21310
892.471	21157
892.594	21359
892.717	21321
892.839	21241
892.962	21310
893.085	21348
893.207	21252
893.33	21283
893.452	21112
893.575	21264
893.697	21283
893.819	21443
893.941	21462
894.064	21477
894.186	21252
894.308	21359
894.43	21416
894.552	21412
894.674	21329
894.796	21093
894.918	21268
895.04	21283
895.161	21382
895.283	21408
895.405	21249
895.526	21336
895.648	21294
895.769	21275
895.891	21332
896.012	21370
896.134	21283
896.255	21264
896.376	21222
896.498	21306
896.619	21386
896.74	21310
896.861	21275
896.982	21667
897.103	21800
897.224	21542
897.345	21542
897.466	21507
897.587	21564
897.708	21614
897.828	21583
897.949	21443
898.07	21226
898.19	21382
898.311	21595
898.431	21466
898.552	21488
898.672	21488
898.792	21591
898.913	21435
899.033	21340
899.153	21272
899.273	21283
899.393	21241
899.513	21211
899.633	21142
899.753	21173
899.873	21131
899.993	21283
900.113	21157
900.232	21173
900.352	21077
900.472	21074
900.591	21013
900.711	21093
900.83	20960
900.95	20994
901.069	21032
901.189	20887
901.308	20746
901.427	20583
901.546	20602
901.665	20530
901.784	20545
901.904	20240
902.023	20271
902.141	20161
902.26	20031
902.379	20077
902.498	20081
902.617	20024
902.735	20145
902.854	20005
902.973	19913
903.091	19742
903.21	19624
903.328	19616
903.446	19651
903.565	19548
903.683	19483
903.801	19457
903.919	19514
904.038	19411
904.156	19232
904.274	19430
904.392	19289
904.51	19259
904.627	19304
904.745	19270
904.863	19259
904.981	19019
905.098	18913
905.216	18981
905.334	18913
905.451	18932
905.569	18852
905.686	18913
905.803	18878
905.921	18669
906.038	18833
906.155	18684
906.272	18700
906.389	18639
906.506	18372
906.623	18498
906.74	18334
906.857	18300
906.974	18410
907.091	18456
907.208	18597
907.324	18433
907.441	18289
907.557	18152
907.674	18159
907.79	18087
907.907	17958
908.023	18095
908.139	18015
908.256	18121
908.372	17999
908.488	17954
908.604	17866
908.72	17748
908.836	17901
908.952	17771
909.068	17927
909.184	17927
909.3	17870
909.415	17672
909.531	17752
909.647	17630
909.762	17566
909.878	17585
909.993	17543
910.108	17383
910.224	17634
910.339	17566
910.454	17417
910.57	17315
910.685	17250
910.8	17528
910.915	17532
911.03	17311
911.145	17208
911.259	17143
911.374	17079
911.489	16980
911.604	17003
911.718	16877
911.833	16877
911.947	16733
912.062	16721
912.176	16774
912.291	16820
912.405	16869
912.519	17022
912.633	17022
912.748	16869
912.862	16786
912.976	16645
913.09	16577
913.204	16687
913.318	16706
913.431	16721
913.545	16755
913.659	16774
913.772	16573
913.886	16462
914	16379
914.113	16573
914.226	16504
914.34	16497
914.453	16291
914.566	16485
914.68	16322
914.793	16211
914.906	16044
915.019	16097
915.132	16036
915.245	15972
915.358	16071
915.47	16036
915.583	15930
915.696	16109
915.809	16120
915.921	16249
916.034	15968
916.146	15888
916.259	16006
916.371	16051
916.483	15903
916.595	15903
916.708	15774
916.82	15816
916.932	15667
917.044	15709
917.156	15770
917.268	15679
917.38	15663
917.491	15587
917.603	15698
917.715	15701
917.826	15774
917.938	15553
918.049	15462
918.161	15644
918.272	15652
918.384	15595
918.495	15667
918.606	15424
918.717	15313
918.828	15447
918.939	15507
919.05	15325
919.161	15389
919.272	15135
919.383	15138
919.494	15412
919.604	15599
919.715	15370
919.826	15169
919.936	15275
920.047	15462
920.157	15310
920.267	15416
920.378	15317
920.488	15336
920.598	15564
920.708	15580
920.818	15485
920.928	15454
921.038	15568
921.148	15614
921.258	15310
921.368	15161
921.477	15032
921.587	15062
921.697	14956
921.806	15028
921.916	14918
922.025	14716
922.134	14716
922.244	14724
922.353	14640
922.462	14575
922.571	14442
922.68	14374
922.789	14275
922.898	14286
923.007	14240
923.116	14412
923.224	14275
923.333	14301
923.442	14149
923.55	14081
923.659	14168
923.767	14206
923.876	14065
923.984	14252
924.092	14016
924.201	14084
924.309	14054
924.417	13997
924.525	13951
924.633	13959
924.741	14864
924.849	13807
924.956	13856
925.064	13723
925.172	13594
925.279	13696
925.387	13715
925.494	13681
925.602	13788
925.709	13742
925.816	13601
925.924	13590
926.031	13765
926.138	13636
926.245	13753
926.352	13476
926.459	13696
926.566	13643
926.673	13556
926.779	13362
926.886	13373
926.993	13228
927.099	13202
927.206	13225
927.312	13133
927.419	13278
927.525	13103
927.631	13244
927.737	13114
927.843	13084
927.95	12966
928.056	13118
928.162	13129
928.267	13046
928.373	13601
928.479	13114
928.585	12840
928.69	12996
928.796	12951
928.901	12890
929.007	12776
929.112	12905
929.218	12833
929.323	12776
929.428	12745
929.533	12848
929.638	12623
929.743	12772
929.848	12726
929.953	12662
930.058	12593
930.163	12391
930.267	12475
930.372	12509
930.477	12437
930.581	12642
930.685	12456
930.79	12330
930.894	12266
930.998	12239
931.103	12441
931.207	12041
931.311	11969
931.415	11866
931.519	11676
931.623	11627
