Data from test_V78500241_2454.txt Node
Date: Fri Mar 25 15:58:48 CST 2022
User: usil
Spectrometer: V785-0024
Trigger mode: 0
Integration Time (sec): 4.000000E-1
Scans to average: 1
Nonlinearity correction enabled: false
Boxcar width: 0
Storing dark spectrum: false
XAxis mode: Wavelengths
Number of Pixels in Spectrum: 1024
>>>>>Begin Spectral Data<<<<<
801.071	28987
801.214	28812
801.356	28679
801.499	28801
801.641	28675
801.783	28660
801.926	28649
802.068	28691
802.211	28740
802.353	28390
802.496	28352
802.638	28348
802.78	28219
802.923	28173
803.065	28192
803.208	28276
803.35	28333
803.492	28497
803.635	28512
803.777	28314
803.919	28592
804.061	28877
804.204	28733
804.346	28554
804.488	28474
804.63	28736
804.773	28493
804.915	28580
805.057	28698
805.199	28592
805.341	28729
805.483	28774
805.626	28854
805.768	28641
805.91	28702
806.052	28675
806.194	28683
806.336	28946
806.478	28793
806.62	28809
806.762	28816
806.904	29098
807.046	29273
807.188	29277
807.33	29128
807.472	29368
807.614	29132
807.756	29242
807.898	28965
808.04	29003
808.182	29003
808.324	29159
808.465	29094
808.607	29311
808.749	29497
808.891	29531
809.033	29642
809.174	29589
809.316	29337
809.458	29379
809.6	29337
809.741	29562
809.883	29509
810.025	29676
810.166	29703
810.308	29882
810.45	29847
810.591	29726
810.733	29512
810.875	29509
811.016	29337
811.158	29455
811.299	29528
811.441	29649
811.582	29440
811.724	29421
811.865	29421
812.007	29463
812.148	29497
812.29	29467
812.431	29634
812.573	29809
812.714	29965
812.855	29988
812.997	29988
813.138	30224
813.279	30140
813.421	29885
813.562	30041
813.703	29798
813.845	29611
813.986	29414
814.127	29307
814.268	29162
814.41	29269
814.551	29151
814.692	29185
814.833	29132
814.974	29098
815.115	29277
815.256	29128
815.397	29048
815.539	29003
815.68	28984
815.821	28812
815.962	29079
816.103	28923
816.244	28850
816.385	28866
816.526	28771
816.666	28607
816.807	28409
816.948	28459
817.089	28584
817.23	28561
817.371	28489
817.512	28459
817.653	28554
817.793	28557
817.934	28379
818.075	28485
818.216	28523
818.356	28535
818.497	28337
818.638	28226
818.778	28253
818.919	28230
819.06	28303
819.2	28489
819.341	28443
819.481	28626
819.622	28603
819.762	28843
819.903	28888
820.043	28698
820.184	28618
820.324	28649
820.465	28653
820.605	28698
820.746	28565
820.886	28596
821.026	28592
821.167	28504
821.307	28538
821.447	28660
821.588	28481
821.728	28318
821.868	28257
822.008	27983
822.149	28002
822.289	28029
822.429	27743
822.569	27762
822.709	27675
822.849	27443
822.99	27386
823.13	27564
823.27	27344
823.41	27203
823.55	27104
823.69	27420
823.83	27226
823.97	27264
824.11	27321
824.25	27051
824.389	27108
824.529	27173
824.669	27138
824.809	27287
824.949	27256
825.089	27279
825.228	27123
825.368	27024
825.508	27043
825.648	27047
825.787	26998
825.927	27070
826.067	27135
826.206	26971
826.346	27009
826.485	27135
826.625	27085
826.765	27096
826.904	26979
827.044	26830
827.183	26788
827.323	26716
827.462	26842
827.601	26861
827.741	26609
827.88	26788
828.02	26674
828.159	26750
828.298	26739
828.437	26800
828.577	26587
828.716	26876
828.855	26674
828.994	26533
829.134	26499
829.273	26389
829.412	26556
829.551	26358
829.69	26324
829.829	26469
829.968	26560
830.107	26518
830.246	26480
830.385	26355
830.524	26320
830.663	26317
830.802	26065
830.941	26069
831.08	25959
831.219	25986
831.357	26164
831.496	26244
831.635	26073
831.774	26043
831.913	25913
832.051	25761
832.19	25632
832.329	25811
832.467	25753
832.606	25689
832.744	25712
832.883	25635
833.022	25567
833.16	25712
833.299	25639
833.437	25788
833.576	25723
833.714	25852
833.852	25795
833.991	25681
834.129	25841
834.267	25955
834.406	25875
834.544	25791
834.682	25894
834.821	25822
834.959	25925
835.097	25696
835.235	25731
835.373	25750
835.511	25715
835.65	25685
835.788	25616
835.926	25441
836.064	25392
836.202	25499
836.34	25639
836.478	25693
836.615	25457
836.753	25681
836.891	25616
837.029	25575
837.167	25468
837.305	25388
837.443	25487
837.58	25407
837.718	25487
837.856	25377
837.993	25297
838.131	25430
838.269	25270
838.406	25339
838.544	25129
838.681	25069
838.819	25000
838.956	24985
839.094	24871
839.231	25015
839.369	25061
839.506	25251
839.643	25145
839.781	24867
839.918	24734
840.055	24844
840.193	24757
840.33	24821
840.467	24821
840.604	24760
840.742	24954
840.879	24570
841.016	24665
841.153	24673
841.29	24791
841.427	24563
841.564	24700
841.701	24821
841.838	24760
841.975	24734
842.112	24722
842.249	24681
842.385	24578
842.522	24787
842.659	24566
842.796	24422
842.933	24532
843.069	24483
843.206	24441
843.343	24532
843.479	24505
843.616	24384
843.752	24327
843.889	24289
844.025	24471
844.162	24262
844.298	24418
844.435	24330
844.571	24262
844.708	24311
844.844	24395
844.98	24547
845.117	24525
845.253	24129
845.389	24213
845.525	24232
845.661	24095
845.798	23954
845.934	24079
846.07	23992
846.206	24083
846.342	24106
846.478	23969
846.614	23733
846.75	23661
846.886	23714
847.022	23775
847.158	23756
847.294	23836
847.429	23794
847.565	23726
847.701	23996
847.837	23490
847.972	23452
848.108	23505
848.244	23486
848.379	23410
848.515	23311
848.65	23334
848.786	23383
848.921	23311
849.057	23524
849.192	23387
849.328	23467
849.463	23337
849.598	23246
849.734	23227
849.869	23178
850.004	23010
850.14	23105
850.275	23086
850.41	23105
850.545	22965
850.68	22987
850.815	23086
850.95	23025
851.085	23185
851.22	23083
851.355	23098
851.49	23090
851.625	22995
851.76	23067
851.895	22972
852.03	22995
852.165	23143
852.299	23250
852.434	23121
852.569	23143
852.703	23071
852.838	23216
852.973	23223
853.107	23261
853.242	23090
853.376	22923
853.511	22873
853.645	22858
853.78	23064
853.914	22980
854.048	22843
854.183	22713
854.317	23025
854.451	23121
854.585	22934
854.72	22934
854.854	23075
854.988	22885
855.122	22927
855.256	22866
855.39	22824
855.524	22995
855.658	22828
855.792	22976
855.926	22820
856.06	23033
856.194	23025
856.327	22961
856.461	22915
856.595	22919
856.729	22961
856.862	22942
856.996	22961
857.13	22957
857.263	22995
857.397	23136
857.53	22877
857.664	22900
857.797	22877
857.931	23029
858.064	22896
858.197	22972
858.331	22881
858.464	22839
858.597	22767
858.731	22869
858.864	22991
858.997	22824
859.13	22911
859.263	22919
859.396	22881
859.529	22843
859.662	22858
859.795	22942
859.928	22911
860.061	23109
860.194	23109
860.327	22877
860.46	23033
860.592	23044
860.725	23037
860.858	23022
860.99	22869
861.123	22740
861.256	22904
861.388	22984
861.521	23676
861.653	22869
861.786	22634
861.918	22713
862.05	22691
862.183	22873
862.315	22820
862.447	22805
862.58	22778
862.712	22588
862.844	22519
862.976	22706
863.108	22603
863.24	22984
863.372	22611
863.504	22683
863.636	22649
863.768	22634
863.9	22546
864.032	22546
864.164	22554
864.296	22641
864.428	22672
864.559	22767
864.691	22702
864.823	22706
864.954	22641
865.086	22531
865.217	22493
865.349	22246
865.48	22497
865.612	22462
865.743	22557
865.875	22485
866.006	22481
866.137	22565
866.269	22485
866.4	22497
866.531	22333
866.662	22371
866.793	22325
866.924	22459
867.055	22375
867.186	22310
867.317	22394
867.448	22322
867.579	22386
867.71	22405
867.841	22428
867.972	22405
868.103	22348
868.233	22314
868.364	22329
868.495	22489
868.625	22497
868.756	22717
868.886	22634
869.017	22577
869.147	22755
869.278	22820
869.408	22683
869.539	22706
869.669	22778
869.799	22725
869.929	22793
870.06	22771
870.19	22961
870.32	22850
870.45	23113
870.58	23037
870.71	23159
870.84	23067
870.97	22984
871.1	23071
871.23	23223
871.36	23170
871.489	23117
871.619	23193
871.749	23242
871.879	23212
872.008	23277
872.138	23261
872.267	23227
872.397	23083
872.526	23056
872.656	23155
872.785	23136
872.915	23292
873.044	23414
873.173	23178
873.303	23414
873.432	23330
873.561	23406
873.69	23280
873.819	23299
873.948	23395
874.077	23383
874.206	23109
874.335	23307
874.464	23284
874.593	23402
874.722	23433
874.851	23509
874.979	23440
875.108	23551
875.237	23531
875.365	23318
875.494	23516
875.623	23547
875.751	23448
875.88	23554
876.008	23551
876.136	23627
876.265	23882
876.393	23954
876.521	23961
876.65	23901
876.778	23988
876.906	23813
877.034	23813
877.162	23866
877.29	23703
877.418	23760
877.546	23821
877.674	23821
877.802	23771
877.93	23726
878.058	23570
878.185	23611
878.313	23775
878.441	23729
878.568	23554
878.696	23767
878.824	23828
878.951	23965
879.079	24003
879.206	24129
879.333	23958
879.461	23855
879.588	23771
879.715	23904
879.842	23984
879.97	23878
880.097	23490
880.224	23604
880.351	23562
880.478	23604
880.605	23627
880.732	23657
880.859	23828
880.986	23737
881.112	23589
881.239	23436
881.366	23273
881.493	23269
881.619	23181
881.746	23155
881.872	23166
881.999	23220
882.125	23124
882.252	23269
882.378	23166
882.505	23136
882.631	22957
882.757	22793
882.883	22961
883.01	22748
883.136	22733
883.262	22710
883.388	22653
883.514	22869
883.64	22911
883.766	22755
883.892	22554
884.018	22668
884.143	22641
884.269	22889
884.395	22527
884.52	22478
884.646	22474
884.772	22459
884.897	22402
885.023	22440
885.148	22546
885.274	22546
885.399	22542
885.524	22504
885.65	22542
885.775	22599
885.9	22360
886.025	22588
886.15	22630
886.275	22417
886.4	22352
886.525	22466
886.65	22421
886.775	22272
886.9	22618
887.025	22611
887.149	22474
887.274	22284
887.399	22280
887.523	22158
887.648	22128
887.773	22181
887.897	22284
888.021	22261
888.146	22120
888.27	22257
888.395	22234
888.519	22348
888.643	22272
888.767	22348
888.891	22036
889.015	22021
889.139	22090
889.263	21968
889.387	22120
889.511	22284
889.635	22166
889.759	21979
889.883	22044
890.006	21941
890.13	22059
890.254	21964
890.377	21899
890.501	21789
890.624	21660
890.748	21778
890.871	21644
890.995	21542
891.118	21519
891.241	21603
891.364	21576
891.488	21720
891.611	21618
891.734	21439
891.857	21622
891.98	21606
892.103	21542
892.226	21633
892.349	21553
892.471	21340
892.594	21485
892.717	21485
892.839	21469
892.962	21374
893.085	21424
893.207	21530
893.33	21363
893.452	21481
893.575	21488
893.697	21367
893.819	21500
893.941	21576
894.064	21591
894.186	21431
894.308	21302
894.43	21412
894.552	21583
894.674	21534
894.796	21291
894.918	21378
895.04	21279
895.161	21428
895.283	21469
895.405	21313
895.526	21511
895.648	21382
895.769	21561
895.891	21435
896.012	21553
896.134	21473
896.255	21363
896.376	21336
896.498	21485
896.619	21523
896.74	21500
896.861	21538
896.982	21709
897.103	21857
897.224	21633
897.345	21618
897.466	21561
897.587	21633
897.708	21755
897.828	21652
897.949	21599
898.07	21504
898.19	21606
898.311	21610
898.431	21614
898.552	21622
898.672	21728
898.792	21709
898.913	21686
899.033	21458
899.153	21397
899.273	21291
899.393	21428
899.513	21447
899.633	21310
899.753	21382
899.873	21310
899.993	21359
900.113	21291
900.232	21321
900.352	21245
900.472	21169
900.591	21093
900.711	21108
900.83	21116
900.95	21173
901.069	21154
901.189	20982
901.308	20712
901.427	20670
901.546	20651
901.665	20716
901.784	20674
901.904	20374
902.023	20469
902.141	20271
902.26	20153
902.379	20229
902.498	20180
902.617	20210
902.735	20134
902.854	20050
902.973	20001
903.091	19845
903.21	19822
903.328	19784
903.446	19746
903.565	19613
903.683	19605
903.801	19514
903.919	19491
904.038	19556
904.156	19236
904.274	19384
904.392	19388
904.51	19339
904.627	19339
904.745	19422
904.863	19362
904.981	19110
905.098	19069
905.216	19103
905.334	19091
905.451	19065
905.569	18966
905.686	19126
905.803	19103
905.921	18886
906.038	18966
906.155	18795
906.272	18673
906.389	18635
906.506	18616
906.623	18589
906.74	18471
906.857	18418
906.974	18433
907.091	18646
907.208	18654
907.324	18597
907.441	18471
907.557	18353
907.674	18251
907.79	18220
907.907	18144
908.023	18213
908.139	18155
908.256	18163
908.372	18163
908.488	18152
908.604	18022
908.72	17893
908.836	17927
908.952	17912
909.068	18026
909.184	17999
909.3	17980
909.415	18076
909.531	17973
909.647	17718
909.762	17589
909.878	17718
909.993	17703
910.108	17570
910.224	17570
910.339	17596
910.454	17474
910.57	17429
910.685	17242
910.8	17657
910.915	17668
911.03	17452
911.145	17341
911.259	17220
911.374	17269
911.489	17117
911.604	17060
911.718	16999
911.833	17010
911.947	16911
912.062	16839
912.176	16968
912.291	17014
912.405	16995
912.519	17037
912.633	17204
912.748	17102
912.862	16847
912.976	16828
913.09	16630
913.204	16763
913.318	16824
913.431	16972
913.545	16908
913.659	16885
913.772	16805
913.886	16565
914	16455
914.113	16599
914.226	16611
914.34	16626
914.453	16542
914.566	16641
914.68	16443
914.793	16322
914.906	16219
915.019	16169
915.132	16021
915.245	16090
915.358	16234
915.47	16112
915.583	16154
915.696	16173
915.809	16280
915.921	16234
916.034	16150
916.146	15934
916.259	16044
916.371	16116
916.483	15998
916.595	15915
916.708	15857
916.82	15861
916.932	15781
917.044	15895
917.156	15762
917.268	15682
917.38	15880
917.491	15663
917.603	15781
917.715	15816
917.826	15876
917.938	15660
918.049	15591
918.161	15694
918.272	15778
918.384	15766
918.495	15675
918.606	15485
918.717	15481
918.828	15526
918.939	15485
919.05	15291
919.161	15485
919.272	15188
919.383	15397
919.494	15462
919.604	15633
919.715	15408
919.826	15401
919.936	15397
920.047	15545
920.157	15428
920.267	15610
920.378	15348
920.488	15374
920.598	15625
920.708	15800
920.818	15492
920.928	15530
921.038	15720
921.148	15606
921.258	15363
921.368	15291
921.477	15165
921.587	15131
921.697	15043
921.806	15116
921.916	14971
922.025	14864
922.134	14758
922.244	14670
922.353	14773
922.462	14724
922.571	14533
922.68	14408
922.789	14446
922.898	14469
923.007	14438
923.116	14408
923.224	14454
923.333	14320
923.442	14263
923.55	14282
923.659	14195
923.767	14244
923.876	14145
923.984	14271
924.092	14100
924.201	14069
924.309	14123
924.417	14157
924.525	14012
924.633	14069
924.741	14811
924.849	13906
924.956	13947
925.064	13887
925.172	13784
925.279	13715
925.387	13830
925.494	13803
925.602	13894
925.709	13883
925.816	13670
925.924	13746
926.031	13753
926.138	13734
926.245	13723
926.352	13533
926.459	13753
926.566	13757
926.673	13552
926.779	13518
926.886	13521
926.993	13365
927.099	13346
927.206	13251
927.312	13331
927.419	13293
927.525	13312
927.631	13278
927.737	13091
927.843	13190
927.95	13050
928.056	13107
928.162	13122
928.267	13160
928.373	13822
928.479	13061
928.585	12890
928.69	12943
928.796	13065
928.901	12920
929.007	12817
929.112	12966
929.218	12973
929.323	12859
929.428	12715
929.533	13012
929.638	12753
929.743	12730
929.848	12787
929.953	12703
930.058	12677
930.163	12372
930.267	12528
930.372	12673
930.477	12369
930.581	12635
930.685	12486
930.79	12346
930.894	12365
930.998	12319
931.103	12467
931.207	12136
931.311	12041
931.415	11908
931.519	11748
931.623	11710
