Data from test_V78500241_2957.txt Node
Date: Fri Mar 25 16:02:17 CST 2022
User: usil
Spectrometer: V785-0024
Trigger mode: 0
Integration Time (sec): 4.000000E-1
Scans to average: 1
Nonlinearity correction enabled: false
Boxcar width: 0
Storing dark spectrum: false
XAxis mode: Wavelengths
Number of Pixels in Spectrum: 1024
>>>>>Begin Spectral Data<<<<<
801.071	28946
801.214	28752
801.356	28497
801.499	28489
801.641	28401
801.783	28341
801.926	28447
802.068	28223
802.211	28329
802.353	28169
802.496	28215
802.638	28051
802.78	28086
802.923	27899
803.065	27987
803.208	28029
803.35	27975
803.492	28139
803.635	28329
803.777	28246
803.919	28356
804.061	28577
804.204	28314
804.346	28166
804.488	28177
804.63	28382
804.773	28295
804.915	28535
805.057	28314
805.199	28215
805.341	28363
805.483	28409
805.626	28443
805.768	28284
805.91	28413
806.052	28584
806.194	28504
806.336	28660
806.478	28504
806.62	28519
806.762	28755
806.904	28710
807.046	28968
807.188	28946
807.33	28927
807.472	28850
807.614	28786
807.756	28850
807.898	28683
808.04	28759
808.182	28611
808.324	28843
808.465	28862
808.607	28995
808.749	29227
808.891	29284
809.033	29383
809.174	29250
809.316	29075
809.458	29162
809.6	29185
809.741	29326
809.883	29303
810.025	29433
810.166	29478
810.308	29433
810.45	29429
810.591	29318
810.733	29254
810.875	29227
811.016	29067
811.158	29025
811.299	29280
811.441	29410
811.582	29269
811.724	29208
811.865	29048
812.007	29269
812.148	29189
812.29	29311
812.431	29387
812.573	29630
812.714	29600
812.855	29684
812.997	29817
813.138	29916
813.279	29843
813.421	29737
813.562	29592
813.703	29524
813.845	29429
813.986	29094
814.127	29075
814.268	28839
814.41	28999
814.551	28949
814.692	28965
814.833	28873
814.974	28927
815.115	28961
815.256	28748
815.397	28748
815.539	28744
815.68	28790
815.821	28713
815.962	28896
816.103	28744
816.244	28653
816.385	28630
816.526	28561
816.666	28352
816.807	28253
816.948	28284
817.089	28352
817.23	28295
817.371	28177
817.512	28329
817.653	28177
817.793	28162
817.934	28143
818.075	28128
818.216	28249
818.356	28192
818.497	27998
818.638	27998
818.778	27831
818.919	27941
819.06	28006
819.2	28101
819.341	28093
819.481	28265
819.622	28318
819.762	28569
819.903	28508
820.043	28436
820.184	28352
820.324	28356
820.465	28348
820.605	28322
820.746	28291
820.886	28112
821.026	28196
821.167	28325
821.307	28318
821.447	28325
821.588	28234
821.728	28097
821.868	27827
822.008	27698
822.149	27690
822.289	27629
822.429	27466
822.569	27329
822.709	27542
822.849	27237
822.99	27241
823.13	27093
823.27	27150
823.41	27036
823.55	26967
823.69	27142
823.83	26986
823.97	26906
824.11	26796
824.25	26815
824.389	26849
824.529	26921
824.669	26883
824.809	27013
824.949	26834
825.089	27001
825.228	26838
825.368	26579
825.508	26727
825.648	26743
825.787	26804
825.927	26868
826.067	26648
826.206	26785
826.346	26906
826.485	26834
826.625	26651
826.765	26796
826.904	26735
827.044	26560
827.183	26427
827.323	26450
827.462	26484
827.601	26408
827.741	26518
827.88	26488
828.02	26286
828.159	26427
828.298	26434
828.437	26651
828.577	26450
828.716	26541
828.855	26362
828.994	26183
829.134	26084
829.273	26206
829.412	26168
829.551	26031
829.69	26115
829.829	26183
829.968	26172
830.107	26187
830.246	26092
830.385	26008
830.524	26073
830.663	25989
830.802	25826
830.941	25795
831.08	25700
831.219	25791
831.357	25875
831.496	26031
831.635	25803
831.774	25803
831.913	25571
832.051	25476
832.19	25552
832.329	25639
832.467	25586
832.606	25415
832.744	25476
832.883	25407
833.022	25278
833.16	25400
833.299	25525
833.437	25487
833.576	25567
833.714	25438
833.852	25495
833.991	25639
834.129	25658
834.267	25639
834.406	25449
834.544	25479
834.682	25521
834.821	25495
834.959	25632
835.097	25464
835.235	25495
835.373	25529
835.511	25441
835.65	25392
835.788	25400
835.926	25236
836.064	25110
836.202	25259
836.34	25270
836.478	25438
836.615	25236
836.753	25373
836.891	25400
837.029	25419
837.167	25282
837.305	25320
837.443	25126
837.58	25137
837.718	25206
837.856	25255
837.993	24943
838.131	25152
838.269	25107
838.406	25126
838.544	25076
838.681	24905
838.819	24833
838.956	24700
839.094	24551
839.231	24772
839.369	24753
839.506	25057
839.643	24859
839.781	24593
839.918	24650
840.055	24703
840.193	24608
840.33	24547
840.467	24601
840.604	24760
840.742	24757
840.879	24361
841.016	24403
841.153	24361
841.29	24677
841.427	24486
841.564	24525
841.701	24635
841.838	24513
841.975	24384
842.112	24452
842.249	24270
842.385	24243
842.522	24566
842.659	24327
842.796	24228
842.933	24350
843.069	24281
843.206	24251
843.343	24403
843.479	24308
843.616	24308
843.752	24003
843.889	24220
844.025	24209
844.162	24060
844.298	24182
844.435	24140
844.571	24015
844.708	24060
844.844	24182
844.98	24209
845.117	24213
845.253	24076
845.389	23996
845.525	24049
845.661	23813
845.798	23802
845.934	23969
846.07	23726
846.206	23760
846.342	23874
846.478	23821
846.614	23493
846.75	23455
846.886	23486
847.022	23581
847.158	23554
847.294	23490
847.429	23543
847.565	23448
847.701	23771
847.837	23261
847.972	23239
848.108	23299
848.244	23334
848.379	23086
848.515	23132
848.65	23090
848.786	23105
848.921	23147
849.057	23261
849.192	23223
849.328	23197
849.463	23098
849.598	23029
849.734	22972
849.869	22999
850.004	22778
850.14	22877
850.275	22919
850.41	22809
850.545	22759
850.68	22774
850.815	22881
850.95	22885
851.085	22987
851.22	23037
851.355	22790
851.49	22843
851.625	22847
851.76	22961
851.895	22733
852.03	22706
852.165	22843
852.299	22934
852.434	22869
852.569	22763
852.703	22820
852.838	22896
852.973	23083
853.107	22892
853.242	22911
853.376	22748
853.511	22607
853.645	22622
853.78	22717
853.914	22725
854.048	22683
854.183	22729
854.317	22755
854.451	22862
854.585	22725
854.72	22752
854.854	22641
854.988	22607
855.122	22710
855.256	22531
855.39	22694
855.524	22637
855.658	22752
855.792	22710
855.926	22664
856.06	22748
856.194	22694
856.327	22618
856.461	22721
856.595	22668
856.729	22755
856.862	22839
856.996	22710
857.13	22801
857.263	22691
857.397	22805
857.53	22622
857.664	22702
857.797	22782
857.931	22805
858.064	22717
858.197	22748
858.331	22672
858.464	22561
858.597	22466
858.731	22668
858.864	22683
858.997	22736
859.13	22577
859.263	22786
859.396	22729
859.529	22740
859.662	22573
859.795	22622
859.928	22656
860.061	22782
860.194	22923
860.327	22767
860.46	22782
860.592	22843
860.725	22801
860.858	22892
860.99	22797
861.123	22687
861.256	22675
861.388	22687
861.521	23474
861.653	22550
861.786	22535
861.918	22497
862.05	22694
862.183	22656
862.315	22588
862.447	22622
862.58	22577
862.712	22287
862.844	22276
862.976	22455
863.108	22394
863.24	22915
863.372	22337
863.504	22394
863.636	22310
863.768	22398
863.9	22360
864.032	22246
864.164	22363
864.296	22451
864.428	22421
864.559	22360
864.691	22508
864.823	22325
864.954	22417
865.086	22341
865.217	22257
865.349	22188
865.48	22234
865.612	22314
865.743	22333
865.875	22314
866.006	22196
866.137	22325
866.269	22291
866.4	22238
866.531	22162
866.662	22059
866.793	22116
866.924	22204
867.055	22185
867.186	22162
867.317	22074
867.448	22036
867.579	22207
867.71	22211
867.841	22025
867.972	22192
868.103	22150
868.233	22154
868.364	22207
868.495	22284
868.625	22337
868.756	22512
868.886	22398
869.017	22344
869.147	22554
869.278	22535
869.408	22424
869.539	22508
869.669	22550
869.799	22428
869.929	22599
870.06	22550
870.19	22721
870.32	22694
870.45	22725
870.58	22736
870.71	22919
870.84	22915
870.97	22763
871.1	22869
871.23	23025
871.36	23105
871.489	22923
871.619	23102
871.749	23029
871.879	23006
872.008	23109
872.138	23025
872.267	23006
872.397	23018
872.526	22843
872.656	22938
872.785	22869
872.915	23003
873.044	23189
873.173	22995
873.303	23033
873.432	23212
873.561	23220
873.69	23022
873.819	23140
873.948	23022
874.077	23155
874.206	22984
874.335	23041
874.464	23124
874.593	23189
874.722	23299
874.851	23250
874.979	23292
875.108	23239
875.237	23337
875.365	23181
875.494	23269
875.623	23334
875.751	23235
875.88	23208
876.008	23307
876.136	23440
876.265	23615
876.393	23779
876.521	23840
876.65	23775
876.778	23627
876.906	23589
877.034	23558
877.162	23592
877.29	23558
877.418	23627
877.546	23661
877.674	23630
877.802	23615
877.93	23786
878.058	23596
878.185	23524
878.313	23452
878.441	23539
878.568	23315
878.696	23535
878.824	23676
878.951	23695
879.079	23779
879.206	23954
879.333	23680
879.461	23642
879.588	23779
879.715	23798
879.842	23889
879.97	23577
880.097	23334
880.224	23501
880.351	23516
880.478	23478
880.605	23391
880.732	23341
880.859	23710
880.986	23383
881.112	23387
881.239	23353
881.366	23067
881.493	23003
881.619	22953
881.746	23044
881.872	22949
881.999	22889
882.125	22877
882.252	23185
882.378	22915
882.505	23124
882.631	22820
882.757	22744
882.883	22615
883.01	22542
883.136	22493
883.262	22428
883.388	22493
883.514	22660
883.64	22835
883.766	22611
883.892	22474
884.018	22352
884.143	22630
884.269	22675
884.395	22333
884.52	22230
884.646	22390
884.772	22139
884.897	22147
885.023	22356
885.148	22443
885.274	22424
885.399	22188
885.524	22181
885.65	22276
885.775	22303
885.9	22128
886.025	22360
886.15	22249
886.275	22261
886.4	22246
886.525	22230
886.65	22219
886.775	22109
886.9	22440
887.025	22386
887.149	22135
887.274	22112
887.399	22090
887.523	22010
887.648	21911
887.773	21888
887.897	22166
888.021	22093
888.146	22002
888.27	22097
888.395	22090
888.519	22226
888.643	22055
888.767	22120
888.891	21991
889.015	21785
889.139	21785
889.263	21869
889.387	21846
889.511	22021
889.635	21975
889.759	21838
889.883	21793
890.006	21686
890.13	21766
890.254	21759
890.377	21713
890.501	21526
890.624	21553
890.748	21648
890.871	21321
890.995	21359
891.118	21233
891.241	21450
891.364	21458
891.488	21564
891.611	21386
891.734	21481
891.857	21370
891.98	21397
892.103	21401
892.226	21374
892.349	21291
892.471	21211
892.594	21313
892.717	21344
892.839	21241
892.962	21233
893.085	21416
893.207	21218
893.33	21161
893.452	21188
893.575	21397
893.697	21340
893.819	21424
893.941	21378
894.064	21443
894.186	21237
894.308	21260
894.43	21340
894.552	21359
894.674	21405
894.796	21108
894.918	21176
895.04	21241
895.161	21306
895.283	21252
895.405	21013
895.526	21233
895.648	21195
895.769	21241
895.891	21211
896.012	21370
896.134	21325
896.255	21199
896.376	21241
896.498	21272
896.619	21173
896.74	21123
896.861	21096
896.982	21496
897.103	21614
897.224	21469
897.345	21420
897.466	21397
897.587	21614
897.708	21557
897.828	21458
897.949	21431
898.07	21203
898.19	21363
898.311	21500
898.431	21332
898.552	21363
898.672	21500
898.792	21580
898.913	21389
899.033	21374
899.153	21222
899.273	21184
899.393	21100
899.513	21157
899.633	21226
899.753	21104
899.873	21017
899.993	21131
900.113	21127
900.232	21169
900.352	21036
900.472	20937
900.591	20857
900.711	20872
900.83	20826
900.95	20902
901.069	20990
901.189	20872
901.308	20560
901.427	20522
901.546	20381
901.665	20533
901.784	20587
901.904	20381
902.023	20225
902.141	19947
902.26	20065
902.379	20077
902.498	20001
902.617	19959
902.735	20039
902.854	19970
902.973	19890
903.091	19655
903.21	19666
903.328	19693
903.446	19559
903.565	19521
903.683	19445
903.801	19312
903.919	19377
904.038	19270
904.156	19278
904.274	19324
904.392	19213
904.51	19110
904.627	19175
904.745	19141
904.863	19175
904.981	18962
905.098	18856
905.216	18966
905.334	18840
905.451	18932
905.569	18833
905.686	18913
905.803	18875
905.921	18601
906.038	18654
906.155	18665
906.272	18593
906.389	18467
906.506	18513
906.623	18452
906.74	18418
906.857	18281
906.974	18304
907.091	18456
907.208	18471
907.324	18410
907.441	18357
907.557	18114
907.674	18163
907.79	18057
907.907	18072
908.023	18167
908.139	18072
908.256	18091
908.372	18015
908.488	17977
908.604	17805
908.72	17699
908.836	17859
908.952	17695
909.068	17855
909.184	17863
909.3	17741
909.415	17859
909.531	17805
909.647	17509
909.762	17474
909.878	17414
909.993	17570
910.108	17463
910.224	17452
910.339	17448
910.454	17463
910.57	17330
910.685	17349
910.8	17547
910.915	17433
911.03	17417
911.145	17117
911.259	17151
911.374	17117
911.489	17022
911.604	16919
911.718	16896
911.833	16843
911.947	16771
912.062	16698
912.176	16809
912.291	16896
912.405	16831
912.519	17029
912.633	16999
912.748	16866
912.862	16896
912.976	16740
913.09	16489
913.204	16592
913.318	16683
913.431	16706
913.545	16782
913.659	16668
913.772	16588
913.886	16428
914	16523
914.113	16489
914.226	16561
914.34	16432
914.453	16375
914.566	16497
914.68	16394
914.793	16246
914.906	16086
915.019	15998
915.132	15922
915.245	15979
915.358	16051
915.47	15972
915.583	15991
915.696	15994
915.809	16101
915.921	16097
916.034	15880
916.146	15892
916.259	15884
916.371	16040
916.483	15998
916.595	15835
916.708	15911
916.82	15835
916.932	15747
917.044	15762
917.156	15785
917.268	15572
917.38	15595
917.491	15606
917.603	15629
917.715	15724
917.826	15739
917.938	15545
918.049	15450
918.161	15568
918.272	15766
918.384	15838
918.495	15496
918.606	15378
918.717	15344
918.828	15344
918.939	15439
919.05	15336
919.161	15233
919.272	15100
919.383	15218
919.494	15454
919.604	15466
919.715	15466
919.826	15279
919.936	15332
920.047	15325
920.157	15321
920.267	15572
920.378	15382
920.488	15294
920.598	15500
920.708	15675
920.818	15424
920.928	15374
921.038	15561
921.148	15534
921.258	15351
921.368	15256
921.477	15104
921.587	15047
921.697	14944
921.806	15028
921.916	14834
922.025	14788
922.134	14670
922.244	14655
922.353	14606
922.462	14556
922.571	14522
922.68	14294
922.789	14328
922.898	14263
923.007	14271
923.116	14248
923.224	14275
923.333	14298
923.442	14142
923.55	14153
923.659	14176
923.767	14244
923.876	14016
923.984	14195
924.092	13963
924.201	14058
924.309	13944
924.417	14062
924.525	13959
924.633	13925
924.741	14667
924.849	13658
924.956	13917
925.064	13753
925.172	13681
925.279	13689
925.387	13776
925.494	13681
925.602	13852
925.709	13765
925.816	13647
925.924	13601
926.031	13712
926.138	13590
926.245	13586
926.352	13620
926.459	13616
926.566	13636
926.673	13480
926.779	13476
926.886	13453
926.993	13274
927.099	13255
927.206	13228
927.312	13179
927.419	13225
927.525	13202
927.631	13232
927.737	13141
927.843	13046
927.95	12875
928.056	13076
928.162	13061
928.267	13076
928.373	13734
928.479	13091
928.585	12806
928.69	12947
928.796	12996
928.901	12951
929.007	12719
929.112	12932
929.218	12844
929.323	12791
929.428	12684
929.533	12882
929.638	12681
929.743	12635
929.848	12859
929.953	12700
930.058	12578
930.163	12418
930.267	12513
930.372	12589
930.477	12388
930.581	12570
930.685	12464
930.79	12308
930.894	12414
930.998	12323
931.103	12391
931.207	12022
931.311	11973
931.415	11866
931.519	11596
931.623	11623
