Data from test_V78500241_3507.txt Node
Date: Fri Mar 25 16:06:05 CST 2022
User: usil
Spectrometer: V785-0024
Trigger mode: 0
Integration Time (sec): 4.000000E-1
Scans to average: 1
Nonlinearity correction enabled: false
Boxcar width: 0
Storing dark spectrum: false
XAxis mode: Wavelengths
Number of Pixels in Spectrum: 1024
>>>>>Begin Spectral Data<<<<<
801.071	28908
801.214	28854
801.356	28790
801.499	28554
801.641	28592
801.783	28557
801.926	28713
802.068	28596
802.211	28371
802.353	28405
802.496	28223
802.638	28333
802.78	28257
802.923	28154
803.065	28162
803.208	28200
803.35	28150
803.492	28421
803.635	28390
803.777	28367
803.919	28519
804.061	28672
804.204	28360
804.346	28500
804.488	28424
804.63	28409
804.773	28409
804.915	28554
805.057	28740
805.199	28523
805.341	28683
805.483	28474
805.626	28740
805.768	28573
805.91	28725
806.052	28744
806.194	28565
806.336	28877
806.478	28634
806.62	28763
806.762	28675
806.904	29018
807.046	29166
807.188	29041
807.33	29113
807.472	29037
807.614	28953
807.756	29124
807.898	28904
808.04	28984
808.182	28869
808.324	29105
808.465	29064
808.607	29166
808.749	29444
808.891	29547
809.033	29478
809.174	29604
809.316	29330
809.458	29311
809.6	29258
809.741	29429
809.883	29471
810.025	29653
810.166	29665
810.308	29642
810.45	29520
810.591	29630
810.733	29315
810.875	29474
811.016	29208
811.158	29212
811.299	29433
811.441	29562
811.582	29482
811.724	29448
811.865	29417
812.007	29349
812.148	29539
812.29	29398
812.431	29596
812.573	29687
812.714	29699
812.855	29866
812.997	30007
813.138	30121
813.279	30057
813.421	29965
813.562	29916
813.703	29623
813.845	29570
813.986	29303
814.127	29337
814.268	28938
814.41	29102
814.551	29071
814.692	29216
814.833	28923
814.974	28984
815.115	29166
815.256	28976
815.397	28976
815.539	28976
815.68	29048
815.821	28847
815.962	28942
816.103	28858
816.244	28729
816.385	28710
816.526	28599
816.666	28455
816.807	28421
816.948	28428
817.089	28500
817.23	28329
817.371	28234
817.512	28306
817.653	28436
817.793	28386
817.934	28519
818.075	28287
818.216	28455
818.356	28474
818.497	28284
818.638	28249
818.778	28067
818.919	28291
819.06	28219
819.2	28337
819.341	28405
819.481	28424
819.622	28493
819.762	28831
819.903	28801
820.043	28691
820.184	28542
820.324	28607
820.465	28569
820.605	28611
820.746	28516
820.886	28341
821.026	28535
821.167	28557
821.307	28550
821.447	28531
821.588	28436
821.728	28173
821.868	28040
822.008	27998
822.149	27873
822.289	27861
822.429	27808
822.569	27561
822.709	27648
822.849	27386
822.99	27462
823.13	27439
823.27	27553
823.41	27226
823.55	27112
823.69	27165
823.83	27154
823.97	27195
824.11	27055
824.25	26998
824.389	27055
824.529	27203
824.669	27123
824.809	27131
824.949	27055
825.089	27058
825.228	27207
825.368	26921
825.508	26857
825.648	26982
825.787	27089
825.927	26967
826.067	26963
826.206	26998
826.346	27074
826.485	27024
826.625	26921
826.765	27070
826.904	26940
827.044	26765
827.183	26640
827.323	26640
827.462	26629
827.601	26670
827.741	26636
827.88	26731
828.02	26465
828.159	26617
828.298	26724
828.437	26644
828.577	26613
828.716	26598
828.855	26514
828.994	26473
829.134	26446
829.273	26545
829.412	26305
829.551	26218
829.69	26488
829.829	26282
829.968	26301
830.107	26613
830.246	26389
830.385	26294
830.524	26309
830.663	26088
830.802	26062
830.941	26035
831.08	25978
831.219	26088
831.357	26092
831.496	26252
831.635	25997
831.774	25959
831.913	25982
832.051	25731
832.19	25696
832.329	25693
832.467	25776
832.606	25582
832.744	25499
832.883	25712
833.022	25643
833.16	25571
833.299	25693
833.437	25609
833.576	25765
833.714	25712
833.852	25685
833.991	25746
834.129	25719
834.267	25780
834.406	25693
834.544	25712
834.682	25788
834.821	25700
834.959	25807
835.097	25502
835.235	25712
835.373	25723
835.511	25696
835.65	25594
835.788	25537
835.926	25441
836.064	25316
836.202	25483
836.34	25685
836.478	25525
836.615	25514
836.753	25712
836.891	25738
837.029	25460
837.167	25552
837.305	25362
837.443	25510
837.58	25403
837.718	25419
837.856	25453
837.993	25282
838.131	25255
838.269	25236
838.406	25438
838.544	25198
838.681	25027
838.819	24973
838.956	24776
839.094	24913
839.231	24810
839.369	24935
839.506	25225
839.643	24992
839.781	24776
839.918	24681
840.055	24776
840.193	24760
840.33	24726
840.467	24837
840.604	24783
840.742	24924
840.879	24528
841.016	24669
841.153	24570
841.29	24768
841.427	24715
841.564	24795
841.701	24627
841.838	24821
841.975	24566
842.112	24540
842.249	24471
842.385	24410
842.522	24692
842.659	24464
842.796	24460
842.933	24410
843.069	24338
843.206	24380
843.343	24452
843.479	24445
843.616	24490
843.752	24232
843.889	24289
844.025	24483
844.162	24125
844.298	24365
844.435	24197
844.571	24159
844.708	24232
844.844	24403
844.98	24475
845.117	24357
845.253	24190
845.389	24171
845.525	24152
845.661	24049
845.798	23980
845.934	24152
846.07	24068
846.206	24114
846.342	24098
846.478	23965
846.614	23634
846.75	23680
846.886	23676
847.022	23756
847.158	23805
847.294	23661
847.429	23684
847.565	23615
847.701	24045
847.837	23383
847.972	23444
848.108	23467
848.244	23600
848.379	23318
848.515	23162
848.65	23277
848.786	23299
848.921	23280
849.057	23345
849.192	23421
849.328	23402
849.463	23162
849.598	23296
849.734	23216
849.869	23136
850.004	23128
850.14	23113
850.275	23041
850.41	22995
850.545	23006
850.68	22999
850.815	23022
850.95	23109
851.085	23307
851.22	23083
851.355	23071
851.49	23037
851.625	22885
851.76	23102
851.895	22927
852.03	22980
852.165	23029
852.299	22919
852.434	23121
852.569	23166
852.703	23189
852.838	23132
852.973	23200
853.107	23197
853.242	22946
853.376	22980
853.511	22828
853.645	22961
853.78	22961
853.914	22892
854.048	22908
854.183	22904
854.317	22968
854.451	23109
854.585	22900
854.72	22949
854.854	22980
854.988	22877
855.122	22919
855.256	22744
855.39	22881
855.524	22892
855.658	22961
855.792	22835
855.926	23029
856.06	22866
856.194	22991
856.327	22797
856.461	22908
856.595	22923
856.729	22904
856.862	22927
856.996	22949
857.13	22987
857.263	22908
857.397	22904
857.53	22733
857.664	22854
857.797	22892
857.931	23048
858.064	22885
858.197	23079
858.331	22835
858.464	22771
858.597	22839
858.731	22816
858.864	22748
858.997	22927
859.13	22908
859.263	22755
859.396	22919
859.529	22866
859.662	22877
859.795	22782
859.928	22881
860.061	23117
860.194	23041
860.327	22919
860.46	22866
860.592	22972
860.725	23010
860.858	23094
860.99	22911
861.123	22729
861.256	22755
861.388	22942
861.521	23615
861.653	22580
861.786	22702
861.918	22850
862.05	22862
862.183	22877
862.315	22736
862.447	22847
862.58	22771
862.712	22569
862.844	22580
862.976	22683
863.108	22713
863.24	22999
863.372	22565
863.504	22519
863.636	22554
863.768	22542
863.9	22538
864.032	22546
864.164	22535
864.296	22592
864.428	22634
864.559	22668
864.691	22615
864.823	22523
864.954	22493
865.086	22603
865.217	22538
865.349	22287
865.48	22447
865.612	22451
865.743	22489
865.875	22557
866.006	22432
866.137	22443
866.269	22363
866.4	22508
866.531	22462
866.662	22310
866.793	22386
866.924	22402
867.055	22478
867.186	22478
867.317	22413
867.448	22234
867.579	22413
867.71	22257
867.841	22299
867.972	22363
868.103	22432
868.233	22337
868.364	22424
868.495	22493
868.625	22516
868.756	22691
868.886	22607
869.017	22554
869.147	22717
869.278	22778
869.408	22721
869.539	22584
869.669	22786
869.799	22599
869.929	22668
870.06	22725
870.19	22949
870.32	22889
870.45	23109
870.58	22938
870.71	23067
870.84	23151
870.97	22942
871.1	23010
871.23	23292
871.36	23258
871.489	23178
871.619	23162
871.749	23197
871.879	23246
872.008	23391
872.138	23159
872.267	23178
872.397	23174
872.526	23102
872.656	23003
872.785	22873
872.915	23334
873.044	23334
873.173	23204
873.303	23254
873.432	23181
873.561	23345
873.69	23311
873.819	23227
873.948	23326
874.077	23189
874.206	23227
874.335	23273
874.464	23421
874.593	23539
874.722	23509
874.851	23535
874.979	23638
875.108	23493
875.237	23478
875.365	23299
875.494	23417
875.623	23592
875.751	23482
875.88	23474
876.008	23539
876.136	23760
876.265	23950
876.393	23893
876.521	23840
876.65	23798
876.778	23859
876.906	23687
877.034	23840
877.162	23843
877.29	23779
877.418	23745
877.546	23779
877.674	23741
877.802	23851
877.93	23805
878.058	23764
878.185	23729
878.313	23668
878.441	23817
878.568	23638
878.696	23687
878.824	23821
878.951	23977
879.079	24030
879.206	24053
879.333	23874
879.461	23920
879.588	23961
879.715	23961
879.842	24034
879.97	23737
880.097	23718
880.224	23634
880.351	23668
880.478	23600
880.605	23547
880.732	23482
880.859	23870
880.986	23642
881.112	23695
881.239	23554
881.366	23345
881.493	23227
881.619	23212
881.746	23250
881.872	23162
881.999	23060
882.125	23208
882.252	23174
882.378	23216
882.505	23265
882.631	22987
882.757	22812
882.883	22915
883.01	22877
883.136	22656
883.262	22668
883.388	22713
883.514	22828
883.64	22858
883.766	22782
883.892	22683
884.018	22641
884.143	22733
884.269	22873
884.395	22584
884.52	22413
884.646	22531
884.772	22276
884.897	22417
885.023	22478
885.148	22516
885.274	22664
885.399	22546
885.524	22379
885.65	22470
885.775	22447
885.9	22443
886.025	22683
886.15	22611
886.275	22386
886.4	22348
886.525	22485
886.65	22318
886.775	22382
886.9	22519
887.025	22634
887.149	22478
887.274	22246
887.399	22280
887.523	22276
887.648	22219
887.773	22097
887.897	22291
888.021	22284
888.146	22086
888.27	22367
888.395	22253
888.519	22238
888.643	22253
888.767	22310
888.891	22074
889.015	22032
889.139	22093
889.263	21934
889.387	22112
889.511	22242
889.635	22063
889.759	22070
889.883	22002
890.006	22010
890.13	22048
890.254	21972
890.377	21899
890.501	21739
890.624	21701
890.748	21888
890.871	21633
890.995	21545
891.118	21587
891.241	21561
891.364	21549
891.488	21713
891.611	21644
891.734	21603
891.857	21587
891.98	21622
892.103	21576
892.226	21576
892.349	21454
892.471	21306
892.594	21530
892.717	21397
892.839	21431
892.962	21485
893.085	21496
893.207	21511
893.33	21382
893.452	21405
893.575	21447
893.697	21469
893.819	21576
893.941	21648
894.064	21534
894.186	21473
894.308	21389
894.43	21519
894.552	21606
894.674	21386
894.796	21329
894.918	21367
895.04	21382
895.161	21355
895.283	21443
895.405	21424
895.526	21393
895.648	21359
895.769	21382
895.891	21317
896.012	21450
896.134	21412
896.255	21287
896.376	21386
896.498	21405
896.619	21443
896.74	21412
896.861	21420
896.982	21618
897.103	21892
897.224	21671
897.345	21591
897.466	21549
897.587	21603
897.708	21743
897.828	21622
897.949	21591
898.07	21458
898.19	21595
898.311	21622
898.431	21462
898.552	21606
898.672	21553
898.792	21511
898.913	21542
899.033	21481
899.153	21329
899.273	21260
899.393	21241
899.513	21401
899.633	21264
899.753	21367
899.873	21272
899.993	21374
900.113	21370
900.232	21275
900.352	21188
900.472	21154
900.591	21039
900.711	21096
900.83	21005
900.95	21146
901.069	21310
901.189	21024
901.308	20625
901.427	20598
901.546	20727
901.665	20568
901.784	20629
901.904	20476
902.023	20358
902.141	20278
902.26	20134
902.379	20195
902.498	20081
902.617	19989
902.735	20206
902.854	19921
902.973	19944
903.091	19849
903.21	19833
903.328	19822
903.446	19715
903.565	19525
903.683	19681
903.801	19434
903.919	19639
904.038	19567
904.156	19426
904.274	19460
904.392	19297
904.51	19346
904.627	19289
904.745	19445
904.863	19301
904.981	19091
905.098	18962
905.216	19038
905.334	18985
905.451	19034
905.569	18951
905.686	19175
905.803	18928
905.921	18840
906.038	18935
906.155	18802
906.272	18635
906.389	18745
906.506	18517
906.623	18631
906.74	18608
906.857	18429
906.974	18608
907.091	18506
907.208	18700
907.324	18513
907.441	18506
907.557	18262
907.674	18308
907.79	18330
907.907	18205
908.023	18342
908.139	18281
908.256	18216
908.372	18155
908.488	18148
908.604	18053
908.72	18049
908.836	17882
908.952	17912
909.068	17855
909.184	18015
909.3	17893
909.415	17980
909.531	17878
909.647	17722
909.762	17680
909.878	17649
909.993	17558
910.108	17687
910.224	17539
910.339	17608
910.454	17566
910.57	17520
910.685	17452
910.8	17699
910.915	17547
911.03	17360
911.145	17181
911.259	17220
911.374	17223
911.489	17162
911.604	17045
911.718	17006
911.833	16953
911.947	16915
912.062	16797
912.176	16980
912.291	16965
912.405	17022
912.519	17216
912.633	17086
912.748	16934
912.862	17014
912.976	16801
913.09	16664
913.204	16752
913.318	16824
913.431	16713
913.545	16892
913.659	16923
913.772	16653
913.886	16504
914	16554
914.113	16687
914.226	16630
914.34	16554
914.453	16337
914.566	16512
914.68	16447
914.793	16344
914.906	16169
915.019	16238
915.132	16120
915.245	16124
915.358	16147
915.47	16238
915.583	16112
915.696	16200
915.809	16200
915.921	16249
916.034	16131
916.146	16010
916.259	16048
916.371	16169
916.483	16082
916.595	16059
916.708	15979
916.82	15987
916.932	15945
917.044	16040
917.156	15934
917.268	15926
917.38	15827
917.491	15766
917.603	15888
917.715	15850
917.826	15911
917.938	15641
918.049	15599
918.161	15625
918.272	15736
918.384	15804
918.495	15739
918.606	15564
918.717	15538
918.828	15557
918.939	15557
919.05	15553
919.161	15534
919.272	15291
919.383	15332
919.494	15523
919.604	15736
919.715	15466
919.826	15389
919.936	15469
920.047	15530
920.157	15458
920.267	15652
920.378	15412
920.488	15538
920.598	15564
920.708	15812
920.818	15603
920.928	15534
921.038	15766
921.148	15743
921.258	15401
921.368	15359
921.477	15256
921.587	15203
921.697	15085
921.806	15146
921.916	14963
922.025	14895
922.134	14910
922.244	14788
922.353	14861
922.462	14746
922.571	14644
922.68	14564
922.789	14366
922.898	14484
923.007	14446
923.116	14594
923.224	14377
923.333	14389
923.442	14275
923.55	14278
923.659	14214
923.767	14396
923.876	14221
923.984	14278
924.092	14134
924.201	14180
924.309	14142
924.417	14123
924.525	14081
924.633	14134
924.741	14967
924.849	13837
924.956	14005
925.064	13822
925.172	13791
925.279	13852
925.387	13841
925.494	13780
925.602	13871
925.709	13837
925.816	13658
925.924	13670
926.031	13845
926.138	13738
926.245	13753
926.352	13632
926.459	13791
926.566	13712
926.673	13632
926.779	13502
926.886	13544
926.993	13415
927.099	13335
927.206	13259
927.312	13240
927.419	13415
927.525	13335
927.631	13324
927.737	13228
927.843	13179
927.95	12973
928.056	13221
928.162	13110
928.267	13110
928.373	13803
928.479	13213
928.585	12989
928.69	13122
928.796	13084
928.901	13027
929.007	12897
929.112	13061
929.218	12966
929.323	12928
929.428	12768
929.533	12954
929.638	12760
929.743	12837
929.848	12852
929.953	12802
930.058	12726
930.163	12513
930.267	12441
930.372	12662
930.477	12464
930.581	12669
930.685	12483
930.79	12353
930.894	12407
930.998	12391
931.103	12559
931.207	12125
931.311	12098
931.415	11980
931.519	11775
931.623	11809
