Data from test_V78500241_1964.txt Node
Date: Fri Mar 25 15:55:24 CST 2022
User: usil
Spectrometer: V785-0024
Trigger mode: 0
Integration Time (sec): 4.000000E-1
Scans to average: 1
Nonlinearity correction enabled: false
Boxcar width: 0
Storing dark spectrum: false
XAxis mode: Wavelengths
Number of Pixels in Spectrum: 1024
>>>>>Begin Spectral Data<<<<<
801.071	28645
801.214	28679
801.356	28417
801.499	28485
801.641	28177
801.783	28215
801.926	28379
802.068	28272
802.211	28295
802.353	28188
802.496	27880
802.638	28120
802.78	27956
802.923	27941
803.065	27892
803.208	27922
803.35	28044
803.492	28067
803.635	28158
803.777	28192
803.919	28280
804.061	28538
804.204	28211
804.346	28234
804.488	28147
804.63	28344
804.773	28211
804.915	28352
805.057	28375
805.199	28333
805.341	28379
805.483	28322
805.626	28303
805.768	28287
805.91	28481
806.052	28409
806.194	28478
806.336	28668
806.478	28337
806.62	28417
806.762	28489
806.904	28588
807.046	29003
807.188	28847
807.33	28854
807.472	28809
807.614	28820
807.756	28733
807.898	28668
808.04	28565
808.182	28596
808.324	28717
808.465	28820
808.607	28862
808.749	29060
808.891	29185
809.033	29292
809.174	29121
809.316	28999
809.458	29033
809.6	28999
809.741	29117
809.883	29212
810.025	29372
810.166	29299
810.308	29349
810.45	29296
810.591	29277
810.733	29105
810.875	29025
811.016	28862
811.158	28984
811.299	29121
811.441	29277
811.582	29261
811.724	29212
811.865	29083
812.007	29025
812.148	29033
812.29	29060
812.431	29166
812.573	29421
812.714	29585
812.855	29554
812.997	29726
813.138	29824
813.279	29813
813.421	29672
813.562	29558
813.703	29440
813.845	29288
813.986	28995
814.127	28763
814.268	28809
814.41	28786
814.551	28759
814.692	28843
814.833	28862
814.974	28702
815.115	28858
815.256	28573
815.397	28664
815.539	28729
815.68	28752
815.821	28527
815.962	28607
816.103	28599
816.244	28356
816.385	28390
816.526	28276
816.666	28204
816.807	28078
816.948	28051
817.089	28204
817.23	28120
817.371	28116
817.512	28074
817.653	28105
817.793	28017
817.934	28135
818.075	28067
818.216	28067
818.356	28116
818.497	27975
818.638	27827
818.778	27629
818.919	27736
819.06	27960
819.2	27987
819.341	28185
819.481	28207
819.622	28417
819.762	28401
819.903	28333
820.043	28322
820.184	28207
820.324	28177
820.465	28246
820.605	28128
820.746	28230
820.886	27972
821.026	28265
821.167	28074
821.307	28257
821.447	28135
821.588	28006
821.728	27892
821.868	27732
822.008	27462
822.149	27644
822.289	27644
822.429	27450
822.569	27176
822.709	27252
822.849	26994
822.99	26994
823.13	27089
823.27	26914
823.41	26857
823.55	26667
823.69	27017
823.83	26925
823.97	26933
824.11	26804
824.25	26769
824.389	26838
824.529	26986
824.669	26663
824.809	26876
824.949	26876
825.089	26682
825.228	26823
825.368	26488
825.508	26579
825.648	26590
825.787	26587
825.927	26735
826.067	26484
826.206	26484
826.346	26549
826.485	26720
826.625	26629
826.765	26697
826.904	26632
827.044	26419
827.183	26465
827.323	26286
827.462	26484
827.601	26476
827.741	26290
827.88	26370
828.02	26161
828.159	26267
828.298	26336
828.437	26450
828.577	26153
828.716	26290
828.855	26301
828.994	26001
829.134	26107
829.273	26046
829.412	25940
829.551	25864
829.69	26088
829.829	25909
829.968	26183
830.107	26016
830.246	25974
830.385	26031
830.524	25970
830.663	25845
830.802	25776
830.941	25559
831.08	25594
831.219	25681
831.357	25632
831.496	25776
831.635	25567
831.774	25510
831.913	25495
832.051	25445
832.19	25327
832.329	25438
832.467	25320
832.606	25228
832.744	25133
832.883	25240
833.022	25160
833.16	25217
833.299	25358
833.437	25343
833.576	25388
833.714	25346
833.852	25373
833.991	25445
834.129	25343
834.267	25434
834.406	25225
834.544	25365
834.682	25441
834.821	25358
834.959	25521
835.097	25285
835.235	25441
835.373	25339
835.511	25293
835.65	25129
835.788	25209
835.926	25057
836.064	25034
836.202	25012
836.34	25164
836.478	25156
836.615	25312
836.753	25179
836.891	25282
837.029	25046
837.167	25103
837.305	25027
837.443	24966
837.58	25088
837.718	25023
837.856	25091
837.993	24909
838.131	25000
838.269	24772
838.406	24840
838.544	24829
838.681	24684
838.819	24646
838.956	24486
839.094	24414
839.231	24479
839.369	24604
839.506	24783
839.643	24726
839.781	24376
839.918	24486
840.055	24346
840.193	24300
840.33	24384
840.467	24384
840.604	24418
840.742	24707
840.879	24258
841.016	24327
841.153	24277
841.29	24418
841.427	24334
841.564	24342
841.701	24388
841.838	24289
841.975	24266
842.112	24205
842.249	24167
842.385	24072
842.522	24213
842.659	24163
842.796	24171
842.933	24095
843.069	24102
843.206	23988
843.343	24178
843.479	24216
843.616	24064
843.752	23916
843.889	23885
844.025	24133
844.162	23874
844.298	24034
844.435	23882
844.571	23756
844.708	23851
844.844	24011
844.98	24133
845.117	24076
845.253	23821
845.389	23726
845.525	23729
845.661	23847
845.798	23604
845.934	23718
846.07	23665
846.206	23600
846.342	23805
846.478	23619
846.614	23318
846.75	23337
846.886	23265
847.022	23459
847.158	23421
847.294	23330
847.429	23436
847.565	23307
847.701	23531
847.837	23033
847.972	23086
848.108	23048
848.244	23064
848.379	22805
848.515	22908
848.65	22824
848.786	22942
848.921	22873
849.057	23048
849.192	23090
849.328	22927
849.463	22843
849.598	22816
849.734	22850
849.869	22744
850.004	22500
850.14	22599
850.275	22710
850.41	22550
850.545	22561
850.68	22634
850.815	22649
850.95	22668
851.085	22812
851.22	22755
851.355	22679
851.49	22717
851.625	22554
851.76	22660
851.895	22641
852.03	22607
852.165	22615
852.299	22717
852.434	22812
852.569	22721
852.703	22649
852.838	22694
852.973	22801
853.107	22786
853.242	22634
853.376	22546
853.511	22394
853.645	22493
853.78	22592
853.914	22573
854.048	22360
854.183	22329
854.317	22459
854.451	22679
854.585	22470
854.72	22516
854.854	22710
854.988	22466
855.122	22611
855.256	22261
855.39	22508
855.524	22637
855.658	22497
855.792	22561
855.926	22637
856.06	22611
856.194	22478
856.327	22466
856.461	22333
856.595	22470
856.729	22470
856.862	22698
856.996	22550
857.13	22611
857.263	22546
857.397	22698
857.53	22394
857.664	22630
857.797	22626
857.931	22698
858.064	22519
858.197	22557
858.331	22493
858.464	22379
858.597	22466
858.731	22478
858.864	22367
858.997	22481
859.13	22519
859.263	22542
859.396	22500
859.529	22352
859.662	22523
859.795	22424
859.928	22588
860.061	22592
860.194	22713
860.327	22493
860.46	22554
860.592	22550
860.725	22675
860.858	22725
860.99	22440
861.123	22394
861.256	22424
861.388	22459
861.521	23239
861.653	22390
861.786	22333
861.918	22329
862.05	22500
862.183	22394
862.315	22481
862.447	22512
862.58	22363
862.712	22196
862.844	22177
862.976	22215
863.108	22215
863.24	22618
863.372	22211
863.504	22147
863.636	22162
863.768	22185
863.9	22192
864.032	22059
864.164	22120
864.296	22318
864.428	22287
864.559	22204
864.691	22242
864.823	22303
864.954	22253
865.086	22021
865.217	22188
865.349	22017
865.48	22128
865.612	22093
865.743	22219
865.875	22120
866.006	21975
866.137	22112
866.269	22010
866.4	21968
866.531	21941
866.662	22116
866.793	21903
866.924	22032
867.055	21918
867.186	21994
867.317	21934
867.448	21956
867.579	22017
867.71	21865
867.841	21915
867.972	21899
868.103	22086
868.233	21998
868.364	22120
868.495	22029
868.625	22246
868.756	22291
868.886	22105
869.017	22219
869.147	22348
869.278	22337
869.408	22215
869.539	22207
869.669	22436
869.799	22322
869.929	22421
870.06	22432
870.19	22470
870.32	22618
870.45	22421
870.58	22675
870.71	22725
870.84	22668
870.97	22573
871.1	22660
871.23	22793
871.36	22729
871.489	22786
871.619	22740
871.749	22763
871.879	22740
872.008	22919
872.138	22816
872.267	22831
872.397	22725
872.526	22717
872.656	22706
872.785	22744
872.915	22850
873.044	22904
873.173	22771
873.303	22828
873.432	22900
873.561	22942
873.69	22919
873.819	22828
873.948	22961
874.077	22908
874.206	22873
874.335	22721
874.464	22976
874.593	23060
874.722	23025
874.851	23052
874.979	23109
875.108	23242
875.237	22946
875.365	22953
875.494	22949
875.623	23273
875.751	23033
875.88	23132
876.008	23162
876.136	23204
876.265	23425
876.393	23630
876.521	23520
876.65	23535
876.778	23444
876.906	23436
877.034	23315
877.162	23474
877.29	23334
877.418	23398
877.546	23448
877.674	23410
877.802	23482
877.93	23239
878.058	23341
878.185	23231
878.313	23414
878.441	23360
878.568	23277
878.696	23497
878.824	23372
878.951	23482
879.079	23509
879.206	23600
879.333	23547
879.461	23482
879.588	23433
879.715	23581
879.842	23627
879.97	23528
880.097	23227
880.224	23223
880.351	23265
880.478	23235
880.605	23223
880.732	23220
880.859	23452
880.986	23299
881.112	23345
881.239	23033
881.366	22896
881.493	22965
881.619	22698
881.746	22847
881.872	22889
881.999	22691
882.125	22698
882.252	22782
882.378	22702
882.505	22881
882.631	22691
882.757	22424
882.883	22691
883.01	22512
883.136	22462
883.262	22261
883.388	22299
883.514	22413
883.64	22493
883.766	22371
883.892	22249
884.018	22284
884.143	22398
884.269	22466
884.395	22154
884.52	21941
884.646	22143
884.772	21987
884.897	22048
885.023	22017
885.148	22169
885.274	22200
885.399	22169
885.524	22006
885.65	22082
885.775	22131
885.9	22120
886.025	22131
886.15	22070
886.275	21975
886.4	21892
886.525	21979
886.65	21953
886.775	21911
886.9	22074
887.025	22215
887.149	22002
887.274	21926
887.399	21755
887.523	21789
887.648	21762
887.773	21679
887.897	21945
888.021	21937
888.146	21797
888.27	21937
888.395	21880
888.519	21895
888.643	21831
888.767	21804
888.891	21846
889.015	21568
889.139	21682
889.263	21705
889.387	21675
889.511	21819
889.635	21827
889.759	21629
889.883	21660
890.006	21667
890.13	21713
890.254	21603
890.377	21595
890.501	21313
890.624	21420
890.748	21401
890.871	21325
890.995	21127
891.118	21180
891.241	21249
891.364	21211
891.488	21340
891.611	21188
891.734	21104
891.857	21199
891.98	21127
892.103	21275
892.226	21096
892.349	21176
892.471	20895
892.594	21077
892.717	21108
892.839	21058
892.962	21039
893.085	21009
893.207	21108
893.33	20952
893.452	21096
893.575	21169
893.697	20963
893.819	21195
893.941	21317
894.064	21195
894.186	20982
894.308	20960
894.43	21157
894.552	21195
894.674	21093
894.796	20952
894.918	21043
895.04	21055
895.161	21032
895.283	21051
895.405	20956
895.526	21081
895.648	21017
895.769	21108
895.891	21184
896.012	21077
896.134	21154
896.255	21127
896.376	21100
896.498	21093
896.619	21127
896.74	21169
896.861	21184
896.982	21165
897.103	21587
897.224	21306
897.345	21298
897.466	21199
897.587	21256
897.708	21367
897.828	21367
897.949	21252
898.07	21100
898.19	21131
898.311	21306
898.431	21173
898.552	21249
898.672	21302
898.792	21245
898.913	21230
899.033	21199
899.153	21100
899.273	20876
899.393	21062
899.513	21024
899.633	21100
899.753	21119
899.873	20952
899.993	21032
900.113	20918
900.232	20891
900.352	20765
900.472	20800
900.591	20777
900.711	20678
900.83	20701
900.95	20864
901.069	20842
901.189	20579
901.308	20480
901.427	20343
901.546	20370
901.665	20415
901.784	20275
901.904	20161
902.023	20183
902.141	19947
902.26	19833
902.379	19909
902.498	19913
902.617	19788
902.735	19841
902.854	19803
902.973	19776
903.091	19556
903.21	19415
903.328	19506
903.446	19426
903.565	19308
903.683	19297
903.801	19168
903.919	19206
904.038	19171
904.156	18996
904.274	19069
904.392	19076
904.51	18947
904.627	19053
904.745	19137
904.863	19160
904.981	18909
905.098	18658
905.216	18753
905.334	18711
905.451	18722
905.569	18658
905.686	18696
905.803	18654
905.921	18445
906.038	18608
906.155	18437
906.272	18334
906.389	18433
906.506	18308
906.623	18216
906.74	18304
906.857	18064
906.974	18083
907.091	18292
907.208	18433
907.324	18110
907.441	18167
907.557	17942
907.674	17988
907.79	17916
907.907	17897
908.023	17946
908.139	17863
908.256	17882
908.372	17843
908.488	17752
908.604	17661
908.72	17623
908.836	17623
908.952	17505
909.068	17604
909.184	17687
909.3	17703
909.415	17657
909.531	17634
909.647	17414
909.762	17330
909.878	17242
909.993	17356
910.108	17299
910.224	17269
910.339	17265
910.454	17185
910.57	17052
910.685	17166
910.8	17379
910.915	17307
911.03	17151
911.145	17022
911.259	16942
911.374	16927
911.489	16820
911.604	16767
911.718	16713
911.833	16649
911.947	16561
912.062	16504
912.176	16687
912.291	16713
912.405	16660
912.519	16835
912.633	16774
912.748	16721
912.862	16588
912.976	16462
913.09	16390
913.204	16432
913.318	16402
913.431	16611
913.545	16542
913.659	16516
913.772	16489
913.886	16344
914	16280
914.113	16356
914.226	16371
914.34	16268
914.453	16150
914.566	16257
914.68	16078
914.793	16139
914.906	15869
915.019	15785
915.132	15751
915.245	15816
915.358	15945
915.47	15899
915.583	15949
915.696	15846
915.809	15926
915.921	15991
916.034	15724
916.146	15736
916.259	15682
916.371	15854
916.483	15762
916.595	15652
916.708	15717
916.82	15690
916.932	15530
917.044	15663
917.156	15553
917.268	15553
917.38	15469
917.491	15393
917.603	15568
917.715	15549
917.826	15545
917.938	15397
918.049	15226
918.161	15405
918.272	15591
918.384	15469
918.495	15435
918.606	15310
918.717	15173
918.828	15283
918.939	15260
919.05	15089
919.161	15135
919.272	15017
919.383	15081
919.494	15260
919.604	15386
919.715	15169
919.826	15097
919.936	15112
920.047	15184
920.157	15161
920.267	15393
920.378	15211
920.488	15062
920.598	15329
920.708	15496
920.818	15332
920.928	15214
921.038	15462
921.148	15374
921.258	15150
921.368	14975
921.477	14857
921.587	14838
921.697	14632
921.806	14891
921.916	14640
922.025	14579
922.134	14507
922.244	14499
922.353	14549
922.462	14362
922.571	14396
922.68	14172
922.789	14206
922.898	14138
923.007	14149
923.116	14191
923.224	14210
923.333	14149
923.442	13997
923.55	13955
923.659	14119
923.767	14039
923.876	13955
923.984	13993
924.092	13864
924.201	14024
924.309	13826
924.417	13890
924.525	13693
924.633	13772
924.741	14705
924.849	13624
924.956	13708
925.064	13624
925.172	13415
925.279	13552
925.387	13586
925.494	13487
925.602	13624
925.709	13559
925.816	13483
925.924	13464
926.031	13605
926.138	13472
926.245	13491
926.352	13426
926.459	13578
926.566	13525
926.673	13487
926.779	13289
926.886	13266
926.993	13221
927.099	13126
927.206	13004
927.312	13088
927.419	13152
927.525	13015
927.631	13133
927.737	12985
927.843	12894
927.95	12817
928.056	12932
928.162	13019
928.267	12985
928.373	13552
928.479	13023
928.585	12681
928.69	12909
928.796	12875
928.901	12722
929.007	12540
929.112	12734
929.218	12700
929.323	12623
929.428	12578
929.533	12700
929.638	12525
929.743	12483
929.848	12589
929.953	12597
930.058	12357
930.163	12296
930.267	12330
930.372	12490
930.477	12289
930.581	12483
930.685	12270
930.79	12114
930.894	12277
930.998	12091
931.103	12213
931.207	11904
931.311	11836
931.415	11790
931.519	11543
931.623	11417
