Data from test_V78500241_1889.txt Node
Date: Fri Mar 25 15:54:53 CST 2022
User: usil
Spectrometer: V785-0024
Trigger mode: 0
Integration Time (sec): 4.000000E-1
Scans to average: 1
Nonlinearity correction enabled: false
Boxcar width: 0
Storing dark spectrum: false
XAxis mode: Wavelengths
Number of Pixels in Spectrum: 1024
>>>>>Begin Spectral Data<<<<<
801.071	28656
801.214	28569
801.356	28394
801.499	28303
801.641	28124
801.783	28105
801.926	28234
802.068	28265
802.211	28128
802.353	27987
802.496	27804
802.638	27823
802.78	27717
802.923	27724
803.065	27778
803.208	27835
803.35	27766
803.492	27914
803.635	28204
803.777	27934
803.919	28154
804.061	28363
804.204	28177
804.346	28006
804.488	27907
804.63	28116
804.773	27956
804.915	28173
805.057	28310
805.199	28059
805.341	28150
805.483	28261
805.626	28188
805.768	28181
805.91	28177
806.052	28230
806.194	28188
806.336	28436
806.478	28261
806.62	28291
806.762	28322
806.904	28447
807.046	28713
807.188	28759
807.33	28694
807.472	28896
807.614	28668
807.756	28752
807.898	28615
808.04	28375
808.182	28527
808.324	28615
808.465	28512
808.607	28771
808.749	28850
808.891	28930
809.033	29143
809.174	28972
809.316	28888
809.458	29003
809.6	28953
809.741	28911
809.883	29025
810.025	29105
810.166	29143
810.308	29132
810.45	29102
810.591	29025
810.733	28927
810.875	28797
811.016	28790
811.158	28850
811.299	29003
811.441	29220
811.582	29083
811.724	28915
811.865	28831
812.007	28877
812.148	28972
812.29	28908
812.431	29090
812.573	29258
812.714	29379
812.855	29516
812.997	29562
813.138	29703
813.279	29493
813.421	29433
813.562	29395
813.703	29250
813.845	29250
813.986	28904
814.127	28755
814.268	28641
814.41	28687
814.551	28630
814.692	28668
814.833	28702
814.974	28561
815.115	28668
815.256	28341
815.397	28386
815.539	28546
815.68	28329
815.821	28390
815.962	28474
816.103	28436
816.244	28390
816.385	28253
816.526	28291
816.666	28101
816.807	27888
816.948	28093
817.089	27998
817.23	27991
817.371	27945
817.512	28032
817.653	27918
817.793	27983
817.934	27975
818.075	27998
818.216	27846
818.356	27892
818.497	27873
818.638	27709
818.778	27698
818.919	27694
819.06	27873
819.2	27857
819.341	27880
819.481	27926
819.622	28109
819.762	28424
819.903	28234
820.043	28116
820.184	27922
820.324	28112
820.465	28257
820.605	28143
820.746	28101
820.886	27823
821.026	28143
821.167	27930
821.307	28032
821.447	27899
821.588	27850
821.728	27800
821.868	27599
822.008	27439
822.149	27473
822.289	27363
822.429	27294
822.569	27135
822.709	27108
822.849	26940
822.99	27066
823.13	26880
823.27	26883
823.41	26815
823.55	26606
823.69	26800
823.83	26804
823.97	26781
824.11	26518
824.25	26499
824.389	26640
824.529	26853
824.669	26609
824.809	26682
824.949	26693
825.089	26598
825.228	26693
825.368	26404
825.508	26484
825.648	26465
825.787	26549
825.927	26549
826.067	26530
826.206	26518
826.346	26602
826.485	26541
826.625	26579
826.765	26560
826.904	26507
827.044	26084
827.183	26244
827.323	26161
827.462	26225
827.601	26278
827.741	26206
827.88	26206
828.02	25986
828.159	26122
828.298	26161
828.437	26206
828.577	26050
828.716	26218
828.855	26119
828.994	25925
829.134	25978
829.273	25947
829.412	25993
829.551	25738
829.69	25860
829.829	25997
829.968	25974
830.107	25917
830.246	25769
830.385	25818
830.524	25674
830.663	25647
830.802	25655
830.941	25525
831.08	25415
831.219	25510
831.357	25540
831.496	25655
831.635	25396
831.774	25362
831.913	25392
832.051	25198
832.19	25209
832.329	25213
832.467	25221
832.606	25145
832.744	25065
832.883	25183
833.022	25141
833.16	25076
833.299	25084
833.437	25084
833.576	25213
833.714	25331
833.852	25133
833.991	25209
834.129	25175
834.267	25255
834.406	25133
834.544	25301
834.682	25247
834.821	25198
834.959	25274
835.097	25031
835.235	25293
835.373	25137
835.511	25183
835.65	25065
835.788	25027
835.926	24901
836.064	24821
836.202	24810
836.34	24890
836.478	25141
836.615	25099
836.753	24958
836.891	25095
837.029	25076
837.167	25091
837.305	24939
837.443	24962
837.58	24894
837.718	24875
837.856	24890
837.993	24734
838.131	24772
838.269	24707
838.406	24661
838.544	24776
838.681	24475
838.819	24452
838.956	24342
839.094	24270
839.231	24372
839.369	24483
839.506	24623
839.643	24597
839.781	24365
839.918	24289
840.055	24319
840.193	24171
840.33	24171
840.467	24262
840.604	24194
840.742	24456
840.879	23931
841.016	24155
841.153	24076
841.29	24315
841.427	24220
841.564	24300
841.701	24155
841.838	24125
841.975	24110
842.112	24091
842.249	24015
842.385	23927
842.522	24144
842.659	24076
842.796	23939
842.933	23916
843.069	23904
843.206	23828
843.343	24057
843.479	23965
843.616	23992
843.752	23859
843.889	23836
844.025	24022
844.162	23813
844.298	23897
844.435	23680
844.571	23703
844.708	23760
844.844	23920
844.98	23863
845.117	23893
845.253	23771
845.389	23589
845.525	23615
845.661	23566
845.798	23501
845.934	23668
846.07	23383
846.206	23433
846.342	23676
846.478	23433
846.614	23307
846.75	23208
846.886	23083
847.022	23250
847.158	23128
847.294	23242
847.429	23269
847.565	23140
847.701	23524
847.837	23010
847.972	22892
848.108	22946
848.244	23113
848.379	22862
848.515	22801
848.65	22790
848.786	22843
848.921	22793
849.057	22839
849.192	22991
849.328	22805
849.463	22805
849.598	22683
849.734	22683
849.869	22542
850.004	22660
850.14	22497
850.275	22535
850.41	22588
850.545	22512
850.68	22592
850.815	22569
850.95	22668
851.085	22698
851.22	22630
851.355	22641
851.49	22485
851.625	22531
851.76	22554
851.895	22481
852.03	22470
852.165	22508
852.299	22451
852.434	22573
852.569	22607
852.703	22481
852.838	22565
852.973	22778
853.107	22679
853.242	22459
853.376	22352
853.511	22322
853.645	22363
853.78	22421
853.914	22409
854.048	22211
854.183	22379
854.317	22371
854.451	22599
854.585	22352
854.72	22333
854.854	22462
854.988	22363
855.122	22306
855.256	22242
855.39	22379
855.524	22394
855.658	22356
855.792	22493
855.926	22344
856.06	22310
856.194	22436
856.327	22306
856.461	22246
856.595	22325
856.729	22375
856.862	22394
856.996	22466
857.13	22436
857.263	22481
857.397	22409
857.53	22367
857.664	22440
857.797	22440
857.931	22466
858.064	22382
858.197	22478
858.331	22337
858.464	22375
858.597	22215
858.731	22318
858.864	22287
858.997	22352
859.13	22367
859.263	22295
859.396	22455
859.529	22360
859.662	22257
859.795	22375
859.928	22234
860.061	22497
860.194	22531
860.327	22375
860.46	22447
860.592	22504
860.725	22504
860.858	22611
860.99	22329
861.123	22246
861.256	22363
861.388	22223
861.521	23216
861.653	22398
861.786	22272
861.918	22226
862.05	22192
862.183	22219
862.315	22261
862.447	22409
862.58	22284
862.712	21964
862.844	22124
862.976	22192
863.108	22131
863.24	22493
863.372	22025
863.504	22044
863.636	22063
863.768	22105
863.9	22013
864.032	22063
864.164	21983
864.296	22143
864.428	22078
864.559	22185
864.691	22143
864.823	21991
864.954	22173
865.086	22090
865.217	22063
865.349	21888
865.48	22017
865.612	21994
865.743	22109
865.875	22017
866.006	21880
866.137	21895
866.269	21941
866.4	21930
866.531	21880
866.662	21800
866.793	21903
866.924	21831
867.055	21937
867.186	21869
867.317	21827
867.448	21759
867.579	21827
867.71	21793
867.841	21732
867.972	21899
868.103	21823
868.233	21865
868.364	21854
868.495	21930
868.625	22116
868.756	22169
868.886	22090
869.017	22177
869.147	22181
869.278	22280
869.408	22185
869.539	22116
869.669	22265
869.799	22242
869.929	22310
870.06	22192
870.19	22493
870.32	22417
870.45	22405
870.58	22440
870.71	22630
870.84	22599
870.97	22508
871.1	22535
871.23	22717
871.36	22767
871.489	22626
871.619	22679
871.749	22854
871.879	22786
872.008	22828
872.138	22748
872.267	22763
872.397	22637
872.526	22512
872.656	22516
872.785	22611
872.915	22679
873.044	22828
873.173	22721
873.303	22793
873.432	22809
873.561	23006
873.69	22782
873.819	22717
873.948	22812
874.077	22710
874.206	22687
874.335	22721
874.464	22854
874.593	23014
874.722	22980
874.851	22999
874.979	22968
875.108	22984
875.237	22843
875.365	22873
875.494	22976
875.623	22980
875.751	23044
875.88	22965
876.008	23174
876.136	23193
876.265	23364
876.393	23459
876.521	23349
876.65	23330
876.778	23288
876.906	23261
877.034	23239
877.162	23326
877.29	23193
877.418	23223
877.546	23417
877.674	23170
877.802	23280
877.93	23258
878.058	23246
878.185	23178
878.313	23296
878.441	23220
878.568	22999
878.696	23212
878.824	23334
878.951	23265
879.079	23501
879.206	23573
879.333	23406
879.461	23292
879.588	23299
879.715	23452
879.842	23516
879.97	23288
880.097	23033
880.224	23052
880.351	23136
880.478	23140
880.605	23025
880.732	23102
880.859	23452
880.986	23090
881.112	23193
881.239	23098
881.366	22927
881.493	22793
881.619	22698
881.746	22767
881.872	22641
881.999	22710
882.125	22615
882.252	22702
882.378	22577
882.505	22653
882.631	22580
882.757	22398
882.883	22443
883.01	22295
883.136	22325
883.262	22207
883.388	22234
883.514	22322
883.64	22356
883.766	22185
883.892	22124
884.018	22246
884.143	22303
884.269	22424
884.395	22124
884.52	21975
884.646	21934
884.772	21899
884.897	21831
885.023	22105
885.148	22055
885.274	22242
885.399	22093
885.524	22002
885.65	22067
885.775	21960
885.9	21968
886.025	22101
886.15	21964
886.275	21994
886.4	21751
886.525	21876
886.65	21838
886.775	21873
886.9	22082
887.025	22109
887.149	22002
887.274	21892
887.399	21827
887.523	21823
887.648	21804
887.773	21545
887.897	21736
888.021	21785
888.146	21686
888.27	21842
888.395	21831
888.519	21747
888.643	21751
888.767	21720
888.891	21530
889.015	21595
889.139	21667
889.263	21633
889.387	21595
889.511	21747
889.635	21606
889.759	21477
889.883	21561
890.006	21492
890.13	21606
890.254	21458
890.377	21443
890.501	21268
890.624	21275
890.748	21401
890.871	21211
890.995	21032
891.118	21081
891.241	21055
891.364	21119
891.488	21199
891.611	21062
891.734	21093
891.857	21142
891.98	21074
892.103	21176
892.226	21173
892.349	21066
892.471	20891
892.594	20952
892.717	20948
892.839	20910
892.962	20994
893.085	20952
893.207	20944
893.33	20941
893.452	20906
893.575	21051
893.697	20857
893.819	21203
893.941	21138
894.064	21150
894.186	20872
894.308	20895
894.43	21058
894.552	21135
894.674	20963
894.796	20880
894.918	20910
895.04	20872
895.161	20971
895.283	20994
895.405	20864
895.526	20952
895.648	20857
895.769	21013
895.891	20921
896.012	20944
896.134	20921
896.255	21013
896.376	20979
896.498	20857
896.619	21005
896.74	20891
896.861	21032
896.982	21294
897.103	21348
897.224	21325
897.345	21230
897.466	21180
897.587	21218
897.708	21397
897.828	21184
897.949	21142
898.07	21051
898.19	21043
898.311	21252
898.431	21154
898.552	21207
898.672	21222
898.792	21184
898.913	21157
899.033	21058
899.153	21043
899.273	20902
899.393	20929
899.513	20994
899.633	20800
899.753	20948
899.873	20804
899.993	20979
900.113	20842
900.232	20823
900.352	20830
900.472	20785
900.591	20594
900.711	20705
900.83	20708
900.95	20739
901.069	20674
901.189	20488
901.308	20370
901.427	20157
901.546	20225
901.665	20313
901.784	20267
901.904	20107
902.023	20043
902.141	19898
902.26	19784
902.379	19788
902.498	19723
902.617	19890
902.735	19704
902.854	19674
902.973	19499
903.091	19411
903.21	19400
903.328	19308
903.446	19354
903.565	19133
903.683	19198
903.801	18970
903.919	19179
904.038	19080
904.156	18920
904.274	19069
904.392	18993
904.51	18875
904.627	18962
904.745	18977
904.863	18985
904.981	18772
905.098	18635
905.216	18817
905.334	18627
905.451	18620
905.569	18506
905.686	18551
905.803	18639
905.921	18388
906.038	18426
906.155	18418
906.272	18388
906.389	18391
906.506	18205
906.623	18300
906.74	18171
906.857	18053
906.974	17999
907.091	18209
907.208	18289
907.324	18239
907.441	18125
907.557	17878
907.674	17832
907.79	17809
907.907	17802
908.023	17908
908.139	17805
908.256	17832
908.372	17684
908.488	17741
908.604	17729
908.72	17577
908.836	17570
908.952	17539
909.068	17714
909.184	17703
909.3	17520
909.415	17581
909.531	17558
909.647	17383
909.762	17265
909.878	17277
909.993	17250
910.108	17239
910.224	17155
910.339	17189
910.454	17147
910.57	17075
910.685	17003
910.8	17216
910.915	17258
911.03	17086
911.145	16911
911.259	16828
911.374	16885
911.489	16767
911.604	16694
911.718	16474
911.833	16702
911.947	16519
912.062	16421
912.176	16596
912.291	16618
912.405	16493
912.519	16706
912.633	16668
912.748	16588
912.862	16573
912.976	16398
913.09	16204
913.204	16421
913.318	16367
913.431	16508
913.545	16489
913.659	16474
913.772	16242
913.886	16276
914	16249
914.113	16306
914.226	16200
914.34	16287
914.453	16204
914.566	16295
914.68	16010
914.793	16040
914.906	15895
915.019	15884
915.132	15876
915.245	15682
915.358	15865
915.47	15751
915.583	15823
915.696	15797
915.809	15949
915.921	15945
916.034	15720
916.146	15660
916.259	15538
916.371	15679
916.483	15774
916.595	15545
916.708	15538
916.82	15564
916.932	15496
917.044	15549
917.156	15504
917.268	15466
917.38	15485
917.491	15348
917.603	15317
917.715	15412
917.826	15473
917.938	15363
918.049	15287
918.161	15344
918.272	15431
918.384	15382
918.495	15298
918.606	15173
918.717	15013
918.828	15237
918.939	15123
919.05	15085
919.161	15138
919.272	14921
919.383	14990
919.494	15192
919.604	15397
919.715	15047
919.826	14948
919.936	15081
920.047	15252
920.157	15218
920.267	15252
920.378	15207
920.488	15051
920.598	15249
920.708	15401
920.818	15268
920.928	15192
921.038	15317
921.148	15321
921.258	15055
921.368	14895
921.477	14830
921.587	14864
921.697	14674
921.806	14800
921.916	14617
922.025	14484
922.134	14431
922.244	14461
922.353	14492
922.462	14434
922.571	14301
922.68	14168
922.789	14062
922.898	14199
923.007	14043
923.116	14100
923.224	14008
923.333	14065
923.442	13936
923.55	13860
923.659	14039
923.767	13951
923.876	13887
923.984	13913
924.092	13795
924.201	13769
924.309	13803
924.417	13799
924.525	13769
924.633	13746
924.741	14545
924.849	13464
924.956	13651
925.064	13544
925.172	13441
925.279	13514
925.387	13567
925.494	13533
925.602	13457
925.709	13483
925.816	13304
925.924	13415
926.031	13476
926.138	13400
926.245	13422
926.352	13259
926.459	13525
926.566	13445
926.673	13460
926.779	13228
926.886	13168
926.993	13015
927.099	13057
927.206	12985
927.312	13034
927.419	13076
927.525	12958
927.631	13122
927.737	12856
927.843	12939
927.95	12741
928.056	12753
928.162	12901
928.267	12924
928.373	13510
928.479	12966
928.585	12654
928.69	12764
928.796	12894
928.901	12703
929.007	12536
929.112	12757
929.218	12662
929.323	12589
929.428	12612
929.533	12726
929.638	12486
929.743	12525
929.848	12547
929.953	12509
930.058	12388
930.163	12273
930.267	12247
930.372	12372
930.477	12144
930.581	12410
930.685	12270
930.79	12114
930.894	12163
930.998	12110
931.103	12216
931.207	11828
931.311	11684
931.415	11668
931.519	11429
931.623	11493
