Data from test_V78500241_939.txt Node
Date: Fri Mar 25 15:48:18 CST 2022
User: usil
Spectrometer: V785-0024
Trigger mode: 0
Integration Time (sec): 4.000000E-1
Scans to average: 1
Nonlinearity correction enabled: false
Boxcar width: 0
Storing dark spectrum: false
XAxis mode: Wavelengths
Number of Pixels in Spectrum: 1024
>>>>>Begin Spectral Data<<<<<
801.071	28615
801.214	28424
801.356	28322
801.499	28154
801.641	28147
801.783	28101
801.926	28268
802.068	28040
802.211	27983
802.353	28010
802.496	27819
802.638	27781
802.78	27831
802.923	27652
803.065	27667
803.208	27701
803.35	27918
803.492	27945
803.635	28017
803.777	27884
803.919	28044
804.061	28268
804.204	27914
804.346	27895
804.488	27945
804.63	28070
804.773	27998
804.915	27983
805.057	28032
805.199	28158
805.341	28036
805.483	28215
805.626	28287
805.768	28147
805.91	28211
806.052	28101
806.194	28093
806.336	28405
806.478	28322
806.62	28139
806.762	28162
806.904	28386
807.046	28687
807.188	28485
807.33	28599
807.472	28634
807.614	28462
807.756	28630
807.898	28401
808.04	28588
808.182	28405
808.324	28432
808.465	28470
808.607	28702
808.749	28809
808.891	28763
809.033	28961
809.174	28869
809.316	28877
809.458	28881
809.6	28782
809.741	28987
809.883	29029
810.025	29231
810.166	29220
810.308	29193
810.45	29162
810.591	29132
810.733	28839
810.875	28831
811.016	28809
811.158	28729
811.299	28938
811.441	28991
811.582	29090
811.724	28854
811.865	28850
812.007	28782
812.148	28847
812.29	29018
812.431	29121
812.573	29166
812.714	29330
812.855	29326
812.997	29459
813.138	29665
813.279	29646
813.421	29341
813.562	29349
813.703	29231
813.845	29242
813.986	28847
814.127	28736
814.268	28455
814.41	28672
814.551	28656
814.692	28615
814.833	28516
814.974	28382
815.115	28546
815.256	28462
815.397	28390
815.539	28386
815.68	28333
815.821	28287
815.962	28242
816.103	28325
816.244	28386
816.385	28135
816.526	28128
816.666	28021
816.807	27842
816.948	27991
817.089	27983
817.23	27991
817.371	27739
817.512	27770
817.653	27797
817.793	27888
817.934	27827
818.075	27857
818.216	27956
818.356	27785
818.497	27694
818.638	27652
818.778	27614
818.919	27663
819.06	27686
819.2	27804
819.341	27930
819.481	27880
819.622	28010
819.762	28234
819.903	28166
820.043	28124
820.184	27972
820.324	28105
820.465	28002
820.605	27972
820.746	27907
820.886	27873
821.026	28032
821.167	27774
821.307	27972
821.447	27876
821.588	27888
821.728	27789
821.868	27576
822.008	27454
822.149	27549
822.289	27336
822.429	27055
822.569	27028
822.709	26990
822.849	26819
822.99	26910
823.13	26963
823.27	26750
823.41	26609
823.55	26663
823.69	26712
823.83	26804
823.97	26621
824.11	26579
824.25	26564
824.389	26480
824.529	26564
824.669	26484
824.809	26746
824.949	26526
825.089	26735
825.228	26556
825.368	26442
825.508	26358
825.648	26434
825.787	26461
825.927	26381
826.067	26358
826.206	26453
826.346	26495
826.485	26453
826.625	26408
826.765	26655
826.904	26511
827.044	26294
827.183	26046
827.323	26142
827.462	26130
827.601	26119
827.741	26161
827.88	26126
828.02	25909
828.159	26126
828.298	26073
828.437	26168
828.577	26111
828.716	26263
828.855	26092
828.994	25693
829.134	25822
829.273	25807
829.412	25852
829.551	25864
829.69	25712
829.829	25795
829.968	25989
830.107	25913
830.246	25738
830.385	25841
830.524	25719
830.663	25594
830.802	25521
830.941	25468
831.08	25293
831.219	25616
831.357	25362
831.496	25670
831.635	25460
831.774	25335
831.913	25251
832.051	25259
832.19	25247
832.329	25046
832.467	25000
832.606	25080
832.744	25065
832.883	24924
833.022	25278
833.16	25065
833.299	25179
833.437	25194
833.576	25129
833.714	25285
833.852	25202
833.991	25232
834.129	25327
834.267	25213
834.406	25190
834.544	25004
834.682	25278
834.821	25190
834.959	25316
835.097	25133
835.235	25190
835.373	25168
835.511	25107
835.65	24932
835.788	24970
835.926	24932
836.064	24684
836.202	24863
836.34	25050
836.478	25069
836.615	25107
836.753	24901
836.891	24928
837.029	25008
837.167	24920
837.305	24844
837.443	24772
837.58	24810
837.718	24951
837.856	24920
837.993	24669
838.131	24779
838.269	24673
838.406	24722
838.544	24711
838.681	24471
838.819	24357
838.956	24254
839.094	24228
839.231	24464
839.369	24536
839.506	24661
839.643	24513
839.781	24308
839.918	24239
840.055	24361
840.193	24277
840.33	24121
840.467	24095
840.604	24308
840.742	24494
840.879	24205
841.016	24277
841.153	23988
841.29	24289
841.427	24197
841.564	24220
841.701	24148
841.838	24053
841.975	24106
842.112	24083
842.249	24079
842.385	24022
842.522	24121
842.659	24068
842.796	23965
842.933	23977
843.069	23961
843.206	23863
843.343	23980
843.479	23737
843.616	23923
843.752	23687
843.889	23760
844.025	23882
844.162	23718
844.298	23771
844.435	23707
844.571	23714
844.708	23741
844.844	23897
844.98	23999
845.117	23817
845.253	23573
845.389	23551
845.525	23497
845.661	23554
845.798	23452
845.934	23414
846.07	23501
846.206	23417
846.342	23501
846.478	23318
846.614	23307
846.75	23083
846.886	23178
847.022	23189
847.158	23136
847.294	23113
847.429	23155
847.565	23170
847.701	23330
847.837	22869
847.972	22793
848.108	22949
848.244	22805
848.379	22824
848.515	22752
848.65	22733
848.786	22721
848.921	22831
849.057	22858
849.192	22828
849.328	22717
849.463	22767
849.598	22634
849.734	22618
849.869	22500
850.004	22588
850.14	22535
850.275	22519
850.41	22455
850.545	22455
850.68	22474
850.815	22542
850.95	22481
851.085	22618
851.22	22527
851.355	22546
851.49	22428
851.625	22531
851.76	22466
851.895	22375
852.03	22455
852.165	22489
852.299	22561
852.434	22649
852.569	22577
852.703	22523
852.838	22584
852.973	22687
853.107	22611
853.242	22497
853.376	22413
853.511	22318
853.645	22291
853.78	22451
853.914	22428
854.048	22287
854.183	22474
854.317	22337
854.451	22531
854.585	22344
854.72	22405
854.854	22329
854.988	22337
855.122	22379
855.256	22192
855.39	22219
855.524	22428
855.658	22344
855.792	22348
855.926	22436
856.06	22318
856.194	22455
856.327	22223
856.461	22204
856.595	22325
856.729	22226
856.862	22474
856.996	22398
857.13	22360
857.263	22379
857.397	22497
857.53	22459
857.664	22493
857.797	22409
857.931	22440
858.064	22306
858.197	22413
858.331	22363
858.464	22474
858.597	22253
858.731	22310
858.864	22268
858.997	22257
859.13	22356
859.263	22337
859.396	22447
859.529	22280
859.662	22287
859.795	22230
859.928	22360
860.061	22462
860.194	22531
860.327	22405
860.46	22352
860.592	22421
860.725	22466
860.858	22421
860.99	22375
861.123	22169
861.256	22291
861.388	22394
861.521	23056
861.653	22280
861.786	22154
861.918	22158
862.05	22173
862.183	22223
862.315	22371
862.447	22230
862.58	22242
862.712	21960
862.844	21991
862.976	22070
863.108	22021
863.24	22382
863.372	22013
863.504	22021
863.636	21953
863.768	22143
863.9	22048
864.032	21975
864.164	21991
864.296	21998
864.428	22147
864.559	22021
864.691	22112
864.823	22013
864.954	22032
865.086	21975
865.217	21899
865.349	21804
865.48	21880
865.612	21949
865.743	22044
865.875	21895
866.006	22032
866.137	21991
866.269	22036
866.4	21945
866.531	21831
866.662	21854
866.793	21842
866.924	21835
867.055	21808
867.186	21857
867.317	21907
867.448	21671
867.579	21911
867.71	21880
867.841	21785
867.972	21869
868.103	21797
868.233	21812
868.364	21842
868.495	21991
868.625	22090
868.756	22059
868.886	22074
869.017	22036
869.147	22204
869.278	22158
869.408	22131
869.539	22025
869.669	22196
869.799	22139
869.929	22204
870.06	22135
870.19	22402
870.32	22360
870.45	22390
870.58	22443
870.71	22588
870.84	22664
870.97	22519
871.1	22584
871.23	22679
871.36	22656
871.489	22664
871.619	22603
871.749	22588
871.879	22622
872.008	22755
872.138	22527
872.267	22630
872.397	22538
872.526	22409
872.656	22603
872.785	22546
872.915	22584
873.044	22713
873.173	22565
873.303	22702
873.432	22759
873.561	22824
873.69	22744
873.819	22687
873.948	22759
874.077	22618
874.206	22622
874.335	22618
874.464	22831
874.593	22919
874.722	22881
874.851	22911
874.979	22862
875.108	22999
875.237	22759
875.365	22828
875.494	22866
875.623	22987
875.751	22892
875.88	22984
876.008	22995
876.136	23067
876.265	23337
876.393	23512
876.521	23269
876.65	23410
876.778	23235
876.906	23155
877.034	23155
877.162	23273
877.29	23170
877.418	23269
877.546	23261
877.674	23307
877.802	23231
877.93	23330
878.058	23231
878.185	23105
878.313	23200
878.441	23265
878.568	23128
878.696	23216
878.824	23440
878.951	23376
879.079	23471
879.206	23334
879.333	23421
879.461	23318
879.588	23364
879.715	23242
879.842	23467
879.97	23284
880.097	23132
880.224	23098
880.351	22995
880.478	23128
880.605	22987
880.732	22987
880.859	23326
880.986	23018
881.112	23155
881.239	22873
881.366	22763
881.493	22748
881.619	22653
881.746	22816
881.872	22710
881.999	22660
882.125	22508
882.252	22573
882.378	22565
882.505	22805
882.631	22432
882.757	22303
882.883	22371
883.01	22329
883.136	22211
883.262	22204
883.388	22211
883.514	22215
883.64	22318
883.766	22188
883.892	22093
884.018	22002
884.143	22284
884.269	22356
884.395	21846
884.52	21895
884.646	22051
884.772	21953
884.897	21785
885.023	22032
885.148	22044
885.274	22063
885.399	22101
885.524	21987
885.65	22143
885.775	21934
885.9	21819
886.025	22036
886.15	22082
886.275	21907
886.4	21819
886.525	21960
886.65	21861
886.775	21838
886.9	22040
887.025	22036
887.149	21854
887.274	21728
887.399	21705
887.523	21816
887.648	21580
887.773	21542
887.897	21880
888.021	21850
888.146	21652
888.27	21964
888.395	21770
888.519	21701
888.643	21793
888.767	21846
888.891	21675
889.015	21458
889.139	21564
889.263	21504
889.387	21610
889.511	21580
889.635	21724
889.759	21462
889.883	21473
890.006	21389
890.13	21530
890.254	21370
890.377	21492
890.501	21363
890.624	21291
890.748	21298
890.871	21184
890.995	21066
891.118	21081
891.241	20986
891.364	21169
891.488	21176
891.611	20990
891.734	20933
891.857	21108
891.98	21058
892.103	21001
892.226	20994
892.349	20975
892.471	20701
892.594	20998
892.717	20967
892.839	20861
892.962	20971
893.085	21039
893.207	20872
893.33	20804
893.452	20819
893.575	21017
893.697	20872
893.819	20963
893.941	21028
894.064	20998
894.186	20876
894.308	20708
894.43	20937
894.552	21066
894.674	20823
894.796	20845
894.918	20872
895.04	20910
895.161	20891
895.283	20876
895.405	20868
895.526	21032
895.648	20792
895.769	20872
895.891	20895
896.012	21001
896.134	21039
896.255	20872
896.376	20773
896.498	20899
896.619	20933
896.74	20918
896.861	20960
896.982	21218
897.103	21359
897.224	21218
897.345	21154
897.466	21096
897.587	21199
897.708	21294
897.828	21199
897.949	21108
898.07	20842
898.19	21024
898.311	21150
898.431	21066
898.552	21150
898.672	21214
898.792	21112
898.913	21127
899.033	21039
899.153	20876
899.273	20811
899.393	20842
899.513	21017
899.633	20929
899.753	20902
899.873	20750
899.993	20872
900.113	20857
900.232	20914
900.352	20724
900.472	20758
900.591	20674
900.711	20636
900.83	20541
900.95	20750
901.069	20724
901.189	20598
901.308	20252
901.427	20290
901.546	20271
901.665	20122
901.784	20233
901.904	20005
902.023	19906
902.141	19738
902.26	19788
902.379	19727
902.498	19708
902.617	19696
902.735	19708
902.854	19616
902.973	19563
903.091	19400
903.21	19339
903.328	19255
903.446	19316
903.565	19107
903.683	19198
903.801	19072
903.919	19160
904.038	18951
904.156	18958
904.274	19015
904.392	18996
904.51	18848
904.627	18886
904.745	18867
904.863	18977
904.981	18738
905.098	18616
905.216	18601
905.334	18616
905.451	18661
905.569	18646
905.686	18627
905.803	18604
905.921	18429
906.038	18540
906.155	18494
906.272	18334
906.389	18346
906.506	18144
906.623	18098
906.74	18140
906.857	18072
906.974	17961
907.091	18087
907.208	18232
907.324	18098
907.441	18045
907.557	17855
907.674	17798
907.79	17821
907.907	17775
908.023	17813
908.139	17718
908.256	17809
908.372	17668
908.488	17729
908.604	17566
908.72	17558
908.836	17528
908.952	17577
909.068	17463
909.184	17581
909.3	17551
909.415	17528
909.531	17573
909.647	17296
909.762	17212
909.878	17292
909.993	17147
910.108	17094
910.224	17159
910.339	17246
910.454	17079
910.57	16995
910.685	16927
910.8	17170
910.915	17185
911.03	16999
911.145	16809
911.259	16801
911.374	16961
911.489	16782
911.604	16786
911.718	16630
911.833	16565
911.947	16554
912.062	16363
912.176	16672
912.291	16622
912.405	16577
912.519	16835
912.633	16660
912.748	16664
912.862	16474
912.976	16367
913.09	16200
913.204	16318
913.318	16306
913.431	16405
913.545	16405
913.659	16455
913.772	16295
913.886	16242
914	16105
914.113	16158
914.226	16257
914.34	16173
914.453	16025
914.566	16169
914.68	16074
914.793	16006
914.906	15895
915.019	15713
915.132	15591
915.245	15603
915.358	15766
915.47	15766
915.583	15755
915.696	15641
915.809	15831
915.921	15827
916.034	15557
916.146	15682
916.259	15614
916.371	15663
916.483	15633
916.595	15523
916.708	15526
916.82	15530
916.932	15504
917.044	15572
917.156	15389
917.268	15447
917.38	15526
917.491	15298
917.603	15306
917.715	15447
917.826	15420
917.938	15260
918.049	15283
918.161	15283
918.272	15469
918.384	15405
918.495	15351
918.606	15176
918.717	15100
918.828	15161
918.939	15142
919.05	15097
919.161	15142
919.272	14944
919.383	14998
919.494	15211
919.604	15340
919.715	15013
919.826	14944
919.936	15127
920.047	15108
920.157	15062
920.267	15329
920.378	15131
920.488	15005
920.598	15317
920.708	15428
920.818	15249
920.928	15302
921.038	15332
921.148	15294
921.258	15051
921.368	14982
921.477	14842
921.587	14925
921.697	14739
921.806	14918
921.916	14636
922.025	14625
922.134	14541
922.244	14434
922.353	14473
922.462	14305
922.571	14286
922.68	14092
922.789	14115
922.898	14126
923.007	13997
923.116	14134
923.224	14046
923.333	13974
923.442	14001
923.55	13890
923.659	13955
923.767	13887
923.876	13890
923.984	13974
924.092	13879
924.201	13849
924.309	13784
924.417	13769
924.525	13814
924.633	13780
924.741	14735
924.849	13499
924.956	13651
925.064	13415
925.172	13457
925.279	13472
925.387	13487
925.494	13487
925.602	13643
925.709	13518
925.816	13403
925.924	13369
926.031	13460
926.138	13441
926.245	13403
926.352	13358
926.459	13468
926.566	13453
926.673	13263
926.779	13225
926.886	13183
926.993	13213
927.099	13038
927.206	12954
927.312	12939
927.419	13050
927.525	13004
927.631	13027
927.737	12905
927.843	12837
927.95	12776
928.056	12863
928.162	12787
928.267	12821
928.373	13400
928.479	12833
928.585	12760
928.69	12840
928.796	12787
928.901	12795
929.007	12506
929.112	12662
929.218	12639
929.323	12662
929.428	12593
929.533	12707
929.638	12467
929.743	12525
929.848	12547
929.953	12616
930.058	12471
930.163	12239
930.267	12308
930.372	12391
930.477	12167
930.581	12509
930.685	12232
930.79	12095
930.894	12216
930.998	12129
931.103	12243
931.207	12011
931.311	11836
931.415	11611
931.519	11543
931.623	11490
