Data from test_V78500241_3230.txt Node
Date: Fri Mar 25 16:04:10 CST 2022
User: usil
Spectrometer: V785-0024
Trigger mode: 0
Integration Time (sec): 4.000000E-1
Scans to average: 1
Nonlinearity correction enabled: false
Boxcar width: 0
Storing dark spectrum: false
XAxis mode: Wavelengths
Number of Pixels in Spectrum: 1024
>>>>>Begin Spectral Data<<<<<
801.071	28877
801.214	28919
801.356	28687
801.499	28637
801.641	28512
801.783	28447
801.926	28660
802.068	28451
802.211	28413
802.353	28295
802.496	28306
802.638	28128
802.78	28097
802.923	28059
803.065	28082
803.208	28207
803.35	28169
803.492	28257
803.635	28462
803.777	28390
803.919	28424
804.061	28641
804.204	28527
804.346	28417
804.488	28162
804.63	28303
804.773	28363
804.915	28580
805.057	28573
805.199	28421
805.341	28565
805.483	28554
805.626	28565
805.768	28409
805.91	28683
806.052	28702
806.194	28641
806.336	28721
806.478	28721
806.62	28630
806.762	28820
806.904	28885
807.046	29151
807.188	29094
807.33	29079
807.472	29067
807.614	28980
807.756	29014
807.898	28915
808.04	28911
808.182	28850
808.324	28873
808.465	28980
808.607	29178
808.749	29364
808.891	29372
809.033	29501
809.174	29277
809.316	29292
809.458	29288
809.6	29258
809.741	29288
809.883	29414
810.025	29490
810.166	29634
810.308	29531
810.45	29676
810.591	29490
810.733	29379
810.875	29258
811.016	29337
811.158	29231
811.299	29440
811.441	29520
811.582	29516
811.724	29315
811.865	29353
812.007	29258
812.148	29326
812.29	29265
812.431	29509
812.573	29726
812.714	29680
812.855	29931
812.997	29992
813.138	30072
813.279	30003
813.421	29802
813.562	29870
813.703	29611
813.845	29577
813.986	29296
814.127	29197
814.268	28911
814.41	29083
814.551	29075
814.692	29056
814.833	29086
814.974	28957
815.115	29079
815.256	29014
815.397	28942
815.539	28919
815.68	28927
815.821	28915
815.962	28843
816.103	28843
816.244	28679
816.385	28580
816.526	28653
816.666	28550
816.807	28447
816.948	28352
817.089	28382
817.23	28371
817.371	28375
817.512	28398
817.653	28451
817.793	28318
817.934	28489
818.075	28485
818.216	28447
818.356	28238
818.497	28249
818.638	28124
818.778	28097
818.919	28181
819.06	28242
819.2	28299
819.341	28348
819.481	28287
819.622	28459
819.762	28641
819.903	28744
820.043	28698
820.184	28497
820.324	28398
820.465	28615
820.605	28523
820.746	28398
820.886	28386
821.026	28500
821.167	28379
821.307	28615
821.447	28413
821.588	28428
821.728	28196
821.868	27983
822.008	27819
822.149	27857
822.289	27819
822.429	27492
822.569	27492
822.709	27469
822.849	27374
822.99	27370
823.13	27351
823.27	27260
823.41	27260
823.55	27226
823.69	27188
823.83	27218
823.97	27047
824.11	26918
824.25	26975
824.389	27047
824.529	26986
824.669	26971
824.809	27180
824.949	27211
825.089	27161
825.228	27093
825.368	26918
825.508	26788
825.648	26853
825.787	26948
825.927	27032
826.067	26857
826.206	26910
826.346	26887
826.485	26971
826.625	26834
826.765	26921
826.904	26963
827.044	26670
827.183	26602
827.323	26602
827.462	26689
827.601	26640
827.741	26636
827.88	26640
828.02	26552
828.159	26701
828.298	26613
828.437	26473
828.577	26587
828.716	26682
828.855	26492
828.994	26351
829.134	26271
829.273	26351
829.412	26259
829.551	26172
829.69	26305
829.829	26214
829.968	26370
830.107	26385
830.246	26377
830.385	26138
830.524	26100
830.663	26111
830.802	25940
830.941	25978
831.08	25833
831.219	26046
831.357	26012
831.496	26111
831.635	25955
831.774	25887
831.913	25822
832.051	25860
832.19	25693
832.329	25788
832.467	25559
832.606	25514
832.744	25460
832.883	25472
833.022	25639
833.16	25601
833.299	25719
833.437	25552
833.576	25651
833.714	25890
833.852	25624
833.991	25750
834.129	25689
834.267	25818
834.406	25632
834.544	25693
834.682	25575
834.821	25624
834.959	25852
835.097	25544
835.235	25670
835.373	25628
835.511	25677
835.65	25502
835.788	25552
835.926	25468
836.064	25221
836.202	25316
836.34	25571
836.478	25502
836.615	25510
836.753	25506
836.891	25540
837.029	25430
837.167	25381
837.305	25392
837.443	25346
837.58	25168
837.718	25403
837.856	25487
837.993	25202
838.131	25343
838.269	25091
838.406	25228
838.544	25133
838.681	25057
838.819	24958
838.956	24776
839.094	24684
839.231	24802
839.369	24852
839.506	25114
839.643	25015
839.781	24749
839.918	24753
840.055	24776
840.193	24711
840.33	24700
840.467	24741
840.604	24715
840.742	24901
840.879	24578
841.016	24601
841.153	24623
841.29	24715
841.427	24585
841.564	24608
841.701	24578
841.838	24563
841.975	24631
842.112	24456
842.249	24517
842.385	24445
842.522	24544
842.659	24441
842.796	24475
842.933	24384
843.069	24486
843.206	24399
843.343	24426
843.479	24399
843.616	24471
843.752	24148
843.889	24159
844.025	24414
844.162	24163
844.298	24338
844.435	24235
844.571	24167
844.708	24144
844.844	24376
844.98	24365
845.117	24334
845.253	24152
845.389	24053
845.525	23942
845.661	24057
845.798	24106
845.934	23927
846.07	23946
846.206	23992
846.342	24095
846.478	23908
846.614	23733
846.75	23566
846.886	23611
847.022	23710
847.158	23676
847.294	23619
847.429	23737
847.565	23585
847.701	23870
847.837	23471
847.972	23391
848.108	23497
848.244	23474
848.379	23318
848.515	23208
848.65	23220
848.786	23242
848.921	23223
849.057	23296
849.192	23292
849.328	23345
849.463	23269
849.598	23212
849.734	23170
849.869	23025
850.004	23010
850.14	23128
850.275	22927
850.41	23018
850.545	22949
850.68	22858
850.815	23155
850.95	23117
851.085	23208
851.22	23288
851.355	23048
851.49	22984
851.625	23014
851.76	22987
851.895	22835
852.03	22991
852.165	22972
852.299	23041
852.434	23117
852.569	23033
852.703	22889
852.838	23041
852.973	23056
853.107	23041
853.242	22946
853.376	22850
853.511	22771
853.645	22717
853.78	22908
853.914	22835
854.048	22892
854.183	22801
854.317	22915
854.451	23010
854.585	22881
854.72	22828
854.854	22923
854.988	22748
855.122	22866
855.256	22706
855.39	22801
855.524	22972
855.658	22904
855.792	22900
855.926	22877
856.06	22942
856.194	22797
856.327	22790
856.461	22637
856.595	22763
856.729	22793
856.862	22873
856.996	22915
857.13	22957
857.263	22999
857.397	22816
857.53	22763
857.664	22915
857.797	22885
857.931	22805
858.064	22877
858.197	22881
858.331	22885
858.464	22767
858.597	22748
858.731	22991
858.864	22820
858.997	22740
859.13	22790
859.263	22847
859.396	22946
859.529	22774
859.662	22782
859.795	22820
859.928	22782
860.061	22987
860.194	22881
860.327	22885
860.46	22824
860.592	23067
860.725	23010
860.858	22854
860.99	22839
861.123	22767
861.256	22740
861.388	22801
861.521	23474
861.653	22854
861.786	22573
861.918	22717
862.05	22763
862.183	22816
862.315	22752
862.447	22877
862.58	22755
862.712	22443
862.844	22573
862.976	22618
863.108	22573
863.24	22877
863.372	22459
863.504	22550
863.636	22599
863.768	22622
863.9	22653
864.032	22504
864.164	22432
864.296	22481
864.428	22634
864.559	22634
864.691	22683
864.823	22535
864.954	22523
865.086	22421
865.217	22481
865.349	22379
865.48	22363
865.612	22428
865.743	22531
865.875	22352
866.006	22348
866.137	22379
866.269	22470
866.4	22417
866.531	22318
866.662	22333
866.793	22291
866.924	22379
867.055	22299
867.186	22310
867.317	22360
867.448	22219
867.579	22265
867.71	22265
867.841	22238
867.972	22402
868.103	22455
868.233	22428
868.364	22215
868.495	22390
868.625	22542
868.756	22550
868.886	22580
869.017	22421
869.147	22805
869.278	22599
869.408	22660
869.539	22542
869.669	22569
869.799	22672
869.929	22740
870.06	22660
870.19	22805
870.32	22850
870.45	22908
870.58	22858
870.71	23018
870.84	23052
870.97	22972
871.1	22961
871.23	23109
871.36	23246
871.489	23052
871.619	23098
871.749	23216
871.879	23239
872.008	23239
872.138	23124
872.267	23117
872.397	23048
872.526	23098
872.656	23098
872.785	22980
872.915	23315
873.044	23292
873.173	23181
873.303	23121
873.432	23178
873.561	23250
873.69	23212
873.819	23197
873.948	23345
874.077	23178
874.206	23189
874.335	23261
874.464	23334
874.593	23501
874.722	23524
874.851	23383
874.979	23486
875.108	23391
875.237	23273
875.365	23246
875.494	23322
875.623	23379
875.751	23425
875.88	23448
876.008	23493
876.136	23627
876.265	23775
876.393	23764
876.521	23866
876.65	23961
876.778	23729
876.906	23638
877.034	23775
877.162	23703
877.29	23714
877.418	23752
877.546	23851
877.674	23775
877.802	23615
877.93	23752
878.058	23726
878.185	23638
878.313	23634
878.441	23661
878.568	23531
878.696	23752
878.824	23737
878.951	23847
879.079	23840
879.206	23980
879.333	23885
879.461	23828
879.588	23863
879.715	23882
879.842	24060
879.97	23828
880.097	23547
880.224	23585
880.351	23627
880.478	23566
880.605	23520
880.732	23539
880.859	23691
880.986	23501
881.112	23592
881.239	23391
881.366	23307
881.493	23242
881.619	23071
881.746	23086
881.872	23083
881.999	23181
882.125	23003
882.252	23140
882.378	23067
882.505	23254
882.631	22965
882.757	22850
882.883	22934
883.01	22957
883.136	22752
883.262	22675
883.388	22672
883.514	22847
883.64	22839
883.766	22805
883.892	22405
884.018	22615
884.143	22725
884.269	22908
884.395	22462
884.52	22455
884.646	22413
884.772	22398
884.897	22352
885.023	22348
885.148	22409
885.274	22489
885.399	22485
885.524	22295
885.65	22386
885.775	22375
885.9	22405
886.025	22489
886.15	22367
886.275	22303
886.4	22352
886.525	22394
886.65	22367
886.775	22371
886.9	22436
887.025	22729
887.149	22337
887.274	22150
887.399	22078
887.523	22105
887.648	22166
887.773	22109
887.897	22257
888.021	22219
888.146	22112
888.27	22173
888.395	22325
888.519	22192
888.643	22226
888.767	22090
888.891	22120
889.015	21964
889.139	21915
889.263	21918
889.387	21972
889.511	22211
889.635	22131
889.759	21945
889.883	21949
890.006	21953
890.13	22078
890.254	21880
890.377	21903
890.501	21652
890.624	21667
890.748	21705
890.871	21538
890.995	21481
891.118	21359
891.241	21504
891.364	21530
891.488	21583
891.611	21507
891.734	21564
891.857	21667
891.98	21462
892.103	21515
892.226	21492
892.349	21416
892.471	21370
892.594	21370
892.717	21374
892.839	21424
892.962	21355
893.085	21443
893.207	21298
893.33	21233
893.452	21275
893.575	21481
893.697	21321
893.819	21496
893.941	21580
894.064	21530
894.186	21458
894.308	21393
894.43	21401
894.552	21572
894.674	21401
894.796	21310
894.918	21439
895.04	21188
895.161	21519
895.283	21420
895.405	21340
895.526	21340
895.648	21431
895.769	21393
895.891	21431
896.012	21397
896.134	21466
896.255	21443
896.376	21355
896.498	21344
896.619	21386
896.74	21321
896.861	21466
896.982	21656
897.103	21663
897.224	21572
897.345	21500
897.466	21492
897.587	21534
897.708	21709
897.828	21488
897.949	21462
898.07	21336
898.19	21504
898.311	21622
898.431	21549
898.552	21568
898.672	21568
898.792	21629
898.913	21507
899.033	21466
899.153	21389
899.273	21332
899.393	21416
899.513	21340
899.633	21275
899.753	21268
899.873	21112
899.993	21283
900.113	21226
900.232	21211
900.352	21112
900.472	21039
900.591	20906
900.711	21116
900.83	21055
900.95	21070
901.069	21119
901.189	20887
901.308	20682
901.427	20598
901.546	20514
901.665	20583
901.784	20674
901.904	20450
902.023	20442
902.141	20233
902.26	20126
902.379	20176
902.498	20058
902.617	20077
902.735	20062
902.854	20050
902.973	20035
903.091	19932
903.21	19715
903.328	19772
903.446	19601
903.565	19537
903.683	19559
903.801	19350
903.919	19491
904.038	19453
904.156	19373
904.274	19460
904.392	19266
904.51	19213
904.627	19168
904.745	19350
904.863	19441
904.981	19076
905.098	18920
905.216	18939
905.334	19008
905.451	19038
905.569	18932
905.686	19004
905.803	18913
905.921	18578
906.038	18783
906.155	18817
906.272	18665
906.389	18661
906.506	18578
906.623	18525
906.74	18506
906.857	18357
906.974	18418
907.091	18585
907.208	18631
907.324	18475
907.441	18334
907.557	18315
907.674	18205
907.79	18281
907.907	18155
908.023	18247
908.139	18224
908.256	18140
908.372	18053
908.488	18091
908.604	17939
908.72	17843
908.836	17992
908.952	17859
909.068	17923
909.184	18049
909.3	17954
909.415	17969
909.531	18007
909.647	17634
909.762	17497
909.878	17551
909.993	17585
910.108	17566
910.224	17604
910.339	17539
910.454	17471
910.57	17345
910.685	17277
910.8	17592
910.915	17554
911.03	17383
911.145	17174
911.259	17155
911.374	17140
911.489	17159
911.604	16976
911.718	16953
911.833	16805
911.947	16850
912.062	16706
912.176	16987
912.291	16854
912.405	16839
912.519	17094
912.633	17010
912.748	16839
912.862	16824
912.976	16850
913.09	16725
913.204	16782
913.318	16698
913.431	16797
913.545	16873
913.659	16839
913.772	16713
913.886	16542
914	16577
914.113	16577
914.226	16603
914.34	16664
914.453	16546
914.566	16561
914.68	16421
914.793	16402
914.906	16276
915.019	16135
915.132	15994
915.245	16097
915.358	16158
915.47	16135
915.583	16109
915.696	16116
915.809	16181
915.921	16246
916.034	16017
916.146	15895
916.259	16002
916.371	16109
916.483	16021
916.595	15972
916.708	15876
916.82	15884
916.932	15873
917.044	15819
917.156	15793
917.268	15759
917.38	15789
917.491	15789
917.603	15694
917.715	15728
917.826	15785
917.938	15682
918.049	15530
918.161	15614
918.272	15743
918.384	15854
918.495	15576
918.606	15450
918.717	15420
918.828	15435
918.939	15450
919.05	15439
919.161	15435
919.272	15142
919.383	15389
919.494	15511
919.604	15523
919.715	15367
919.826	15332
919.936	15408
920.047	15424
920.157	15481
920.267	15637
920.378	15454
920.488	15359
920.598	15599
920.708	15610
920.818	15587
920.928	15511
921.038	15728
921.148	15614
921.258	15264
921.368	15233
921.477	15180
921.587	15207
921.697	15032
921.806	15154
921.916	14937
922.025	14830
922.134	14670
922.244	14667
922.353	14746
922.462	14648
922.571	14480
922.68	14374
922.789	14374
922.898	14476
923.007	14301
923.116	14339
923.224	14419
923.333	14358
923.442	14381
923.55	14123
923.659	14180
923.767	14240
923.876	14221
923.984	14309
924.092	14065
924.201	14062
924.309	14046
924.417	14088
924.525	14031
924.633	14012
924.741	14773
924.849	13807
924.956	13974
925.064	13761
925.172	13738
925.279	13822
925.387	13795
925.494	13814
925.602	13849
925.709	13734
925.816	13499
925.924	13677
926.031	13780
926.138	13700
926.245	13704
926.352	13537
926.459	13696
926.566	13727
926.673	13639
926.779	13518
926.886	13559
926.993	13247
927.099	13255
927.206	13240
927.312	13293
927.419	13308
927.525	13232
927.631	13365
927.737	13114
927.843	13232
927.95	13008
928.056	13084
928.162	13069
928.267	13126
928.373	13708
928.479	13164
928.585	12973
928.69	13065
928.796	13031
928.901	12943
929.007	12802
929.112	13000
929.218	12970
929.323	12901
929.428	12753
929.533	12844
929.638	12707
929.743	12734
929.848	12802
929.953	12719
930.058	12662
930.163	12418
930.267	12532
930.372	12608
930.477	12414
930.581	12658
930.685	12490
930.79	12327
930.894	12395
930.998	12319
931.103	12544
931.207	12098
931.311	12015
931.415	11908
931.519	11737
931.623	11657
