Data from test_V78500241_2966.txt Node
Date: Fri Mar 25 16:02:20 CST 2022
User: usil
Spectrometer: V785-0024
Trigger mode: 0
Integration Time (sec): 4.000000E-1
Scans to average: 1
Nonlinearity correction enabled: false
Boxcar width: 0
Storing dark spectrum: false
XAxis mode: Wavelengths
Number of Pixels in Spectrum: 1024
>>>>>Begin Spectral Data<<<<<
801.071	28752
801.214	28763
801.356	28622
801.499	28462
801.641	28428
801.783	28481
801.926	28516
802.068	28329
802.211	28249
802.353	28246
802.496	28150
802.638	28166
802.78	28025
802.923	27964
803.065	28109
803.208	28051
803.35	28284
803.492	28143
803.635	28367
803.777	28325
803.919	28303
804.061	28607
804.204	28367
804.346	28341
804.488	28268
804.63	28375
804.773	28246
804.915	28508
805.057	28542
805.199	28390
805.341	28462
805.483	28432
805.626	28386
805.768	28344
805.91	28459
806.052	28337
806.194	28443
806.336	28687
806.478	28409
806.62	28527
806.762	28573
806.904	28869
807.046	28965
807.188	28869
807.33	29098
807.472	29086
807.614	28927
807.756	28911
807.898	28862
808.04	28812
808.182	28828
808.324	28801
808.465	28942
808.607	29025
808.749	29212
808.891	29303
809.033	29459
809.174	29193
809.316	29178
809.458	29227
809.6	29265
809.741	29341
809.883	29250
810.025	29478
810.166	29467
810.308	29501
810.45	29372
810.591	29379
810.733	29223
810.875	29231
811.016	29162
811.158	29098
811.299	29254
811.441	29433
811.582	29387
811.724	29258
811.865	29109
812.007	29280
812.148	29269
812.29	29322
812.431	29425
812.573	29653
812.714	29718
812.855	29657
812.997	29764
813.138	29920
813.279	29908
813.421	29699
813.562	29722
813.703	29611
813.845	29547
813.986	29197
814.127	28942
814.268	28892
814.41	28999
814.551	28908
814.692	29003
814.833	28915
814.974	28873
815.115	28972
815.256	28885
815.397	28729
815.539	28908
815.68	28774
815.821	28641
815.962	28752
816.103	28710
816.244	28626
816.385	28603
816.526	28557
816.666	28459
816.807	28287
816.948	28379
817.089	28280
817.23	28242
817.371	28128
817.512	28188
817.653	28181
817.793	28253
817.934	28147
818.075	28219
818.216	28291
818.356	28097
818.497	28257
818.638	27922
818.778	28070
818.919	27972
819.06	28150
819.2	28086
819.341	28348
819.481	28337
819.622	28341
819.762	28649
819.903	28618
820.043	28592
820.184	28417
820.324	28459
820.465	28538
820.605	28295
820.746	28531
820.886	28158
821.026	28356
821.167	28242
821.307	28413
821.447	28291
821.588	28192
821.728	28112
821.868	27899
822.008	27846
822.149	27850
822.289	27793
822.429	27553
822.569	27473
822.709	27397
822.849	27306
822.99	27378
823.13	27188
823.27	27256
823.41	27062
823.55	27077
823.69	27108
823.83	27142
823.97	27024
824.11	26826
824.25	26906
824.389	26872
824.529	26872
824.669	26746
824.809	27066
824.949	27036
825.089	26864
825.228	27093
825.368	26792
825.508	26823
825.648	26811
825.787	26956
825.927	26830
826.067	26853
826.206	26807
826.346	26830
826.485	26868
826.625	26777
826.765	26838
826.904	26887
827.044	26606
827.183	26621
827.323	26530
827.462	26530
827.601	26530
827.741	26465
827.88	26537
828.02	26431
828.159	26511
828.298	26518
828.437	26724
828.577	26492
828.716	26530
828.855	26377
828.994	26183
829.134	26240
829.273	26305
829.412	26138
829.551	26183
829.69	26119
829.829	26130
829.968	26278
830.107	26214
830.246	26278
830.385	26081
830.524	26069
830.663	25959
830.802	25982
830.941	25841
831.08	25761
831.219	25894
831.357	25955
831.496	26111
831.635	25795
831.774	25757
831.913	25704
832.051	25731
832.19	25586
832.329	25563
832.467	25567
832.606	25483
832.744	25320
832.883	25502
833.022	25411
833.16	25350
833.299	25472
833.437	25457
833.576	25605
833.714	25597
833.852	25643
833.991	25662
834.129	25567
834.267	25586
834.406	25529
834.544	25556
834.682	25533
834.821	25487
834.959	25582
835.097	25460
835.235	25552
835.373	25460
835.511	25563
835.65	25339
835.788	25483
835.926	25343
836.064	25168
836.202	25225
836.34	25240
836.478	25445
836.615	25358
836.753	25346
836.891	25422
837.029	25255
837.167	25213
837.305	25274
837.443	25183
837.58	25141
837.718	25259
837.856	25160
837.993	25141
838.131	25095
838.269	25046
838.406	25129
838.544	24981
838.681	24798
838.819	24871
838.956	24646
839.094	24623
839.231	24738
839.369	24817
839.506	25076
839.643	24772
839.781	24620
839.918	24536
840.055	24757
840.193	24635
840.33	24642
840.467	24681
840.604	24639
840.742	24810
840.879	24597
841.016	24414
841.153	24323
841.29	24635
841.427	24627
841.564	24612
841.701	24483
841.838	24517
841.975	24365
842.112	24513
842.249	24395
842.385	24388
842.522	24547
842.659	24414
842.796	24270
842.933	24456
843.069	24220
843.206	24186
843.343	24372
843.479	24258
843.616	24384
843.752	24155
843.889	24110
844.025	24273
844.162	24098
844.298	24216
844.435	24159
844.571	24064
844.708	24159
844.844	24228
844.98	24213
845.117	24133
845.253	24068
845.389	24057
845.525	23973
845.661	23931
845.798	23786
845.934	23866
846.07	23695
846.206	23923
846.342	23855
846.478	23882
846.614	23710
846.75	23455
846.886	23619
847.022	23596
847.158	23497
847.294	23604
847.429	23589
847.565	23539
847.701	23748
847.837	23330
847.972	23208
848.108	23467
848.244	23311
848.379	23155
848.515	23140
848.65	23170
848.786	23143
848.921	23258
849.057	23280
849.192	23307
849.328	23242
849.463	23189
849.598	23140
849.734	23025
849.869	23048
850.004	22946
850.14	22919
850.275	22896
850.41	22782
850.545	22858
850.68	22801
850.815	22911
850.95	22892
851.085	23102
851.22	23094
851.355	23064
851.49	22877
851.625	22858
851.76	22885
851.895	22866
852.03	22752
852.165	22923
852.299	22915
852.434	22911
852.569	22908
852.703	22942
852.838	22896
852.973	23174
853.107	23132
853.242	22984
853.376	22843
853.511	22637
853.645	22672
853.78	22790
853.914	22706
854.048	22698
854.183	22656
854.317	22828
854.451	22972
854.585	22793
854.72	22790
854.854	22805
854.988	22702
855.122	22790
855.256	22675
855.39	22607
855.524	22847
855.658	22748
855.792	22816
855.926	22721
856.06	22733
856.194	22919
856.327	22725
856.461	22717
856.595	22683
856.729	22713
856.862	22759
856.996	22793
857.13	22786
857.263	22820
857.397	22828
857.53	22767
857.664	22786
857.797	22672
857.931	22873
858.064	22694
858.197	22767
858.331	22698
858.464	22717
858.597	22615
858.731	22626
858.864	22713
858.997	22755
859.13	22771
859.263	22767
859.396	22809
859.529	22694
859.662	22721
859.795	22774
859.928	22706
860.061	22889
860.194	23018
860.327	22843
860.46	22725
860.592	22915
860.725	22927
860.858	22938
860.99	22744
861.123	22694
861.256	22687
861.388	22691
861.521	23528
861.653	22554
861.786	22481
861.918	22577
862.05	22622
862.183	22694
862.315	22759
862.447	22691
862.58	22729
862.712	22512
862.844	22337
862.976	22504
863.108	22497
863.24	22896
863.372	22390
863.504	22485
863.636	22352
863.768	22500
863.9	22462
864.032	22375
864.164	22348
864.296	22443
864.428	22481
864.559	22554
864.691	22508
864.823	22489
864.954	22375
865.086	22436
865.217	22341
865.349	22265
865.48	22249
865.612	22310
865.743	22299
865.875	22299
866.006	22360
866.137	22390
866.269	22314
866.4	22291
866.531	22344
866.662	22162
866.793	22128
866.924	22223
867.055	22223
867.186	22314
867.317	22143
867.448	22188
867.579	22147
867.71	22158
867.841	22131
867.972	22223
868.103	22055
868.233	22181
868.364	22154
868.495	22352
868.625	22390
868.756	22615
868.886	22409
869.017	22561
869.147	22592
869.278	22535
869.408	22531
869.539	22382
869.669	22516
869.799	22508
869.929	22615
870.06	22500
870.19	22820
870.32	22774
870.45	22892
870.58	22740
870.71	22999
870.84	22946
870.97	22809
871.1	22908
871.23	23006
871.36	23098
871.489	22995
871.619	22911
871.749	23029
871.879	23060
872.008	23159
872.138	23067
872.267	23109
872.397	22957
872.526	22919
872.656	22892
872.785	22968
872.915	23102
873.044	23029
873.173	23105
873.303	23025
873.432	23128
873.561	23178
873.69	23151
873.819	23143
873.948	23071
874.077	23025
874.206	23018
874.335	23018
874.464	23178
874.593	23391
874.722	23242
874.851	23406
874.979	23452
875.108	23379
875.237	23197
875.365	23242
875.494	23250
875.623	23372
875.751	23185
875.88	23220
876.008	23448
876.136	23433
876.265	23649
876.393	23794
876.521	23737
876.65	23745
876.778	23611
876.906	23638
877.034	23592
877.162	23695
877.29	23646
877.418	23600
877.546	23638
877.674	23585
877.802	23634
877.93	23642
878.058	23600
878.185	23425
878.313	23623
878.441	23581
878.568	23520
878.696	23611
878.824	23634
878.951	23821
879.079	23783
879.206	23866
879.333	23836
879.461	23752
879.588	23741
879.715	23752
879.842	23817
879.97	23714
880.097	23368
880.224	23482
880.351	23417
880.478	23448
880.605	23383
880.732	23558
880.859	23714
880.986	23524
881.112	23486
881.239	23299
881.366	23178
881.493	23041
881.619	22900
881.746	22934
881.872	23128
881.999	23105
882.125	22919
882.252	22987
882.378	23170
882.505	23018
882.631	22835
882.757	22679
882.883	22793
883.01	22668
883.136	22672
883.262	22424
883.388	22451
883.514	22641
883.64	22767
883.766	22634
883.892	22519
884.018	22538
884.143	22668
884.269	22744
884.395	22409
884.52	22265
884.646	22379
884.772	22337
884.897	22226
885.023	22405
885.148	22390
885.274	22542
885.399	22386
885.524	22257
885.65	22306
885.775	22291
885.9	22219
886.025	22341
886.15	22417
886.275	22215
886.4	22166
886.525	22215
886.65	22219
886.775	22207
886.9	22455
887.025	22580
887.149	22402
887.274	22128
887.399	22177
887.523	22101
887.648	22124
887.773	21937
887.897	22200
888.021	22036
888.146	21994
888.27	22249
888.395	22116
888.519	22063
888.643	22090
888.767	22063
888.891	22010
889.015	21755
889.139	21911
889.263	21899
889.387	21865
889.511	22051
889.635	21903
889.759	21823
889.883	21751
890.006	21880
890.13	21941
890.254	21660
890.377	21812
890.501	21614
890.624	21561
890.748	21622
890.871	21477
890.995	21458
891.118	21386
891.241	21492
891.364	21420
891.488	21481
891.611	21332
891.734	21485
891.857	21408
891.98	21420
892.103	21466
892.226	21317
892.349	21218
892.471	21165
892.594	21332
892.717	21306
892.839	21283
892.962	21321
893.085	21363
893.207	21233
893.33	21241
893.452	21313
893.575	21264
893.697	21199
893.819	21553
893.941	21435
894.064	21287
894.186	21226
894.308	21188
894.43	21317
894.552	21488
894.674	21401
894.796	21135
894.918	21348
895.04	21317
895.161	21393
895.283	21272
895.405	21173
895.526	21332
895.648	21279
895.769	21260
895.891	21184
896.012	21340
896.134	21272
896.255	21203
896.376	21203
896.498	21332
896.619	21329
896.74	21287
896.861	21302
896.982	21606
897.103	21682
897.224	21466
897.345	21458
897.466	21469
897.587	21473
897.708	21564
897.828	21534
897.949	21424
898.07	21344
898.19	21397
898.311	21625
898.431	21336
898.552	21424
898.672	21462
898.792	21526
898.913	21477
899.033	21298
899.153	21386
899.273	21154
899.393	21302
899.513	21317
899.633	21146
899.753	21222
899.873	21077
899.993	21211
900.113	21127
900.232	21138
900.352	21089
900.472	21024
900.591	20948
900.711	21024
900.83	20868
900.95	21043
901.069	20967
901.189	20902
901.308	20788
901.427	20438
901.546	20552
901.665	20530
901.784	20438
901.904	20404
902.023	20309
902.141	20088
902.26	20005
902.379	20259
902.498	19993
902.617	19925
902.735	20092
902.854	20005
902.973	19993
903.091	19712
903.21	19639
903.328	19552
903.446	19552
903.565	19537
903.683	19499
903.801	19415
903.919	19373
904.038	19316
904.156	19373
904.274	19301
904.392	19190
904.51	19232
904.627	19179
904.745	19255
904.863	19270
904.981	19042
905.098	18897
905.216	18894
905.334	18837
905.451	18913
905.569	18894
905.686	18905
905.803	18844
905.921	18661
906.038	18749
906.155	18661
906.272	18570
906.389	18578
906.506	18426
906.623	18525
906.74	18445
906.857	18216
906.974	18292
907.091	18460
907.208	18536
907.324	18418
907.441	18327
907.557	18174
907.674	18163
907.79	18087
907.907	18068
908.023	18266
908.139	18068
908.256	17882
908.372	18022
908.488	17901
908.604	17923
908.72	17843
908.836	17882
908.952	17889
909.068	17813
909.184	17954
909.3	17889
909.415	17912
909.531	17828
909.647	17611
909.762	17592
909.878	17505
909.993	17535
910.108	17452
910.224	17417
910.339	17505
910.454	17292
910.57	17391
910.685	17311
910.8	17520
910.915	17532
911.03	17227
911.145	17060
911.259	17079
911.374	17181
911.489	17071
911.604	16900
911.718	16820
911.833	16820
911.947	16755
912.062	16759
912.176	16797
912.291	16885
912.405	16923
912.519	16976
912.633	17079
912.748	16965
912.862	16801
912.976	16637
913.09	16516
913.204	16603
913.318	16683
913.431	16710
913.545	16755
913.659	16759
913.772	16622
913.886	16554
914	16504
914.113	16588
914.226	16497
914.34	16512
914.453	16253
914.566	16398
914.68	16246
914.793	16348
914.906	16112
915.019	16036
915.132	15949
915.245	15964
915.358	15991
915.47	16112
915.583	16055
915.696	15991
915.809	16101
915.921	16105
916.034	15918
916.146	15937
916.259	15895
916.371	16044
916.483	15972
916.595	15785
916.708	15732
916.82	15755
916.932	15781
917.044	15759
917.156	15797
917.268	15747
917.38	15747
917.491	15561
917.603	15625
917.715	15690
917.826	15648
917.938	15534
918.049	15477
918.161	15656
918.272	15663
918.384	15736
918.495	15549
918.606	15435
918.717	15374
918.828	15370
918.939	15450
919.05	15378
919.161	15382
919.272	15260
919.383	15252
919.494	15431
919.604	15515
919.715	15405
919.826	15222
919.936	15355
920.047	15306
920.157	15405
920.267	15485
920.378	15306
920.488	15272
920.598	15469
920.708	15614
920.818	15424
920.928	15507
921.038	15629
921.148	15534
921.258	15256
921.368	15112
921.477	15039
921.587	15028
921.697	14845
921.806	15036
921.916	14842
922.025	14708
922.134	14705
922.244	14651
922.353	14735
922.462	14571
922.571	14541
922.68	14332
922.789	14305
922.898	14317
923.007	14271
923.116	14313
923.224	14332
923.333	14244
923.442	14145
923.55	14244
923.659	14111
923.767	14191
923.876	14039
923.984	14252
924.092	14073
924.201	14001
924.309	13936
924.417	13986
924.525	13894
924.633	14039
924.741	14648
924.849	13784
924.956	13871
925.064	13704
925.172	13674
925.279	13750
925.387	13769
925.494	13685
925.602	13780
925.709	13742
925.816	13639
925.924	13658
926.031	13712
926.138	13624
926.245	13651
926.352	13548
926.459	13601
926.566	13647
926.673	13529
926.779	13430
926.886	13434
926.993	13282
927.099	13282
927.206	13057
927.312	13149
927.419	13308
927.525	13152
927.631	13247
927.737	13126
927.843	13034
927.95	13038
928.056	13050
928.162	13008
928.267	13107
928.373	13712
928.479	13042
928.585	12806
928.69	13000
928.796	13019
928.901	12825
929.007	12722
929.112	12897
929.218	12825
929.323	12669
929.428	12760
929.533	12905
929.638	12642
929.743	12684
929.848	12779
929.953	12665
930.058	12658
930.163	12399
930.267	12407
930.372	12498
930.477	12441
930.581	12559
930.685	12369
930.79	12258
930.894	12270
930.998	12285
931.103	12384
931.207	12049
931.311	11927
931.415	11855
931.519	11771
931.623	11608
