Data from test_V78500241_731.txt Node
Date: Fri Mar 25 15:46:51 CST 2022
User: usil
Spectrometer: V785-0024
Trigger mode: 0
Integration Time (sec): 4.000000E-1
Scans to average: 1
Nonlinearity correction enabled: false
Boxcar width: 0
Storing dark spectrum: false
XAxis mode: Wavelengths
Number of Pixels in Spectrum: 1024
>>>>>Begin Spectral Data<<<<<
801.071	28485
801.214	28253
801.356	28040
801.499	28093
801.641	27823
801.783	27983
801.926	28032
802.068	27956
802.211	27781
802.353	27759
802.496	27732
802.638	27599
802.78	27424
802.923	27538
803.065	27523
803.208	27606
803.35	27648
803.492	27789
803.635	27797
803.777	27629
803.919	27869
804.061	28223
804.204	27922
804.346	27717
804.488	27739
804.63	27781
804.773	27751
804.915	27751
805.057	27934
805.199	27823
805.341	27873
805.483	27808
805.626	27930
805.768	27831
805.91	27854
806.052	27945
806.194	27907
806.336	28131
806.478	27975
806.62	27880
806.762	28070
806.904	28265
807.046	28569
807.188	28329
807.33	28470
807.472	28443
807.614	28367
807.756	28322
807.898	28261
808.04	28211
808.182	28196
808.324	28223
808.465	28112
808.607	28470
808.749	28660
808.891	28702
809.033	28713
809.174	28687
809.316	28546
809.458	28710
809.6	28577
809.741	28725
809.883	28717
810.025	28961
810.166	28843
810.308	28957
810.45	28915
810.591	28835
810.733	28637
810.875	28630
811.016	28531
811.158	28599
811.299	28774
811.441	28816
811.582	28965
811.724	28748
811.865	28615
812.007	28698
812.148	28618
812.29	28668
812.431	28790
812.573	28908
812.714	29170
812.855	29200
812.997	29094
813.138	29375
813.279	29353
813.421	29216
813.562	29086
813.703	28984
813.845	28801
813.986	28512
814.127	28481
814.268	28360
814.41	28447
814.551	28295
814.692	28417
814.833	28344
814.974	28497
815.115	28341
815.256	28329
815.397	28169
815.539	28169
815.68	27998
815.821	27979
815.962	28070
816.103	28116
816.244	28067
816.385	27854
816.526	28166
816.666	27850
816.807	27762
816.948	27770
817.089	27637
817.23	27747
817.371	27595
817.512	27785
817.653	27564
817.793	27561
817.934	27648
818.075	27720
818.216	27698
818.356	27561
818.497	27587
818.638	27416
818.778	27332
818.919	27386
819.06	27496
819.2	27427
819.341	27652
819.481	27816
819.622	27778
819.762	27956
819.903	28010
820.043	27800
820.184	27686
820.324	27732
820.465	27869
820.605	27975
820.746	27561
820.886	27766
821.026	27705
821.167	27675
821.307	27751
821.447	27728
821.588	27496
821.728	27507
821.868	27294
822.008	27138
822.149	27184
822.289	26990
822.429	26998
822.569	26773
822.709	26758
822.849	26594
822.99	26606
823.13	26575
823.27	26473
823.41	26442
823.55	26313
823.69	26598
823.83	26351
823.97	26419
824.11	26237
824.25	26358
824.389	26370
824.529	26377
824.669	26313
824.809	26446
824.949	26511
825.089	26362
825.228	26347
825.368	26153
825.508	26103
825.648	26126
825.787	26263
825.927	26210
826.067	26202
826.206	26214
826.346	26134
826.485	26347
826.625	26176
826.765	26290
826.904	26370
827.044	26005
827.183	25940
827.323	25928
827.462	25841
827.601	25833
827.741	25936
827.88	25890
828.02	25635
828.159	25788
828.298	25833
828.437	25894
828.577	25822
828.716	26012
828.855	25822
828.994	25731
829.134	25506
829.273	25666
829.412	25666
829.551	25449
829.69	25700
829.829	25594
829.968	25700
830.107	25719
830.246	25445
830.385	25578
830.524	25525
830.663	25476
830.802	25263
830.941	25190
831.08	25228
831.219	25221
831.357	25365
831.496	25419
831.635	25308
831.774	25053
831.913	25095
832.051	24920
832.19	24943
832.329	24985
832.467	24894
832.606	24844
832.744	24791
832.883	24890
833.022	24791
833.16	24951
833.299	24939
833.437	24856
833.576	24992
833.714	24962
833.852	24996
833.991	25012
834.129	24947
834.267	25034
834.406	24867
834.544	24947
834.682	24973
834.821	24958
834.959	25034
835.097	24848
835.235	24989
835.373	24779
835.511	24897
835.65	24673
835.788	24749
835.926	24608
836.064	24570
836.202	24711
836.34	24734
836.478	24897
836.615	24749
836.753	24825
836.891	24654
837.029	24665
837.167	24593
837.305	24517
837.443	24654
837.58	24616
837.718	24547
837.856	24422
837.993	24509
838.131	24555
838.269	24456
838.406	24509
838.544	24395
838.681	24121
838.819	24098
838.956	24121
839.094	24022
839.231	24064
839.369	24190
839.506	24483
839.643	24258
839.781	24083
839.918	24072
840.055	23973
840.193	23973
840.33	23992
840.467	23984
840.604	23961
840.742	24410
840.879	23916
841.016	24045
841.153	23847
841.29	24129
841.427	23859
841.564	23927
841.701	23931
841.838	23783
841.975	23901
842.112	23901
842.249	23748
842.385	23767
842.522	24003
842.659	23783
842.796	23577
842.933	23665
843.069	23714
843.206	23665
843.343	23737
843.479	23638
843.616	23737
843.752	23429
843.889	23482
844.025	23543
844.162	23501
844.298	23535
844.435	23425
844.571	23482
844.708	23589
844.844	23630
844.98	23672
845.117	23611
845.253	23486
845.389	23341
845.525	23372
845.661	23379
845.798	23242
845.934	23326
846.07	23166
846.206	23178
846.342	23265
846.478	23220
846.614	23048
846.75	22946
846.886	22949
847.022	22949
847.158	22999
847.294	22881
847.429	22938
847.565	22885
847.701	23075
847.837	22656
847.972	22782
848.108	22774
848.244	22778
848.379	22664
848.515	22554
848.65	22504
848.786	22474
848.921	22546
849.057	22664
849.192	22702
849.328	22493
849.463	22557
849.598	22607
849.734	22466
849.869	22310
850.004	22306
850.14	22280
850.275	22299
850.41	22249
850.545	22226
850.68	22215
850.815	22310
850.95	22272
851.085	22421
851.22	22413
851.355	22299
851.49	22234
851.625	22166
851.76	22314
851.895	22200
852.03	22188
852.165	22276
852.299	22322
852.434	22398
852.569	22284
852.703	22352
852.838	22185
852.973	22360
853.107	22508
853.242	22299
853.376	22086
853.511	22101
853.645	22204
853.78	22196
853.914	22150
854.048	22021
854.183	22048
854.317	22044
854.451	22276
854.585	22090
854.72	22055
854.854	22211
854.988	22086
855.122	22048
855.256	22010
855.39	22040
855.524	22181
855.658	22150
855.792	22013
855.926	22139
856.06	22002
856.194	22036
856.327	21911
856.461	22055
856.595	22025
856.729	22101
856.862	22090
856.996	22109
857.13	22242
857.263	22173
857.397	22173
857.53	22131
857.664	22093
857.797	22219
857.931	22200
858.064	22238
858.197	22276
858.331	22082
858.464	21987
858.597	22025
858.731	22074
858.864	22010
858.997	22036
859.13	22032
859.263	22116
859.396	22101
859.529	22017
859.662	22040
859.795	22120
859.928	22093
860.061	22246
860.194	22257
860.327	22074
860.46	22086
860.592	22272
860.725	22261
860.858	22150
860.99	22074
861.123	22013
861.256	22036
861.388	22051
861.521	22881
861.653	21956
861.786	21926
861.918	21975
862.05	22070
862.183	22055
862.315	21960
862.447	22101
862.58	22017
862.712	21949
862.844	21865
862.976	21937
863.108	22017
863.24	22223
863.372	21759
863.504	21709
863.636	21774
863.768	21918
863.9	21732
864.032	21728
864.164	21823
864.296	21800
864.428	21941
864.559	21793
864.691	21956
864.823	21800
864.954	21850
865.086	21854
865.217	21751
865.349	21507
865.48	21682
865.612	21713
865.743	21827
865.875	21644
866.006	21648
866.137	21679
866.269	21671
866.4	21682
866.531	21519
866.662	21603
866.793	21603
866.924	21595
867.055	21660
867.186	21450
867.317	21519
867.448	21507
867.579	21572
867.71	21481
867.841	21568
867.972	21709
868.103	21564
868.233	21572
868.364	21572
868.495	21682
868.625	21804
868.756	21907
868.886	21861
869.017	21907
869.147	21922
869.278	21880
869.408	21892
869.539	21793
869.669	21930
869.799	21873
869.929	21945
870.06	21819
870.19	22200
870.32	22169
870.45	22246
870.58	22253
870.71	22432
870.84	22310
870.97	22318
871.1	22265
871.23	22352
871.36	22535
871.489	22447
871.619	22371
871.749	22455
871.879	22436
872.008	22459
872.138	22428
872.267	22443
872.397	22341
872.526	22291
872.656	22261
872.785	22322
872.915	22428
873.044	22466
873.173	22459
873.303	22508
873.432	22592
873.561	22493
873.69	22390
873.819	22440
873.948	22481
874.077	22375
874.206	22451
874.335	22409
874.464	22580
874.593	22687
874.722	22637
874.851	22668
874.979	22759
875.108	22626
875.237	22664
875.365	22577
875.494	22698
875.623	22759
875.751	22634
875.88	22793
876.008	22820
876.136	22816
876.265	23010
876.393	23269
876.521	23060
876.65	23140
876.778	23105
876.906	22980
877.034	23060
877.162	23102
877.29	22908
877.418	23048
877.546	23006
877.674	22991
877.802	22919
877.93	22965
878.058	22999
878.185	22831
878.313	23014
878.441	22915
878.568	22820
878.696	23014
878.824	23056
878.951	23121
879.079	23185
879.206	23231
879.333	23299
879.461	23067
879.588	23151
879.715	23159
879.842	23178
879.97	23147
880.097	22835
880.224	22835
880.351	22820
880.478	22889
880.605	22717
880.732	22839
880.859	22961
880.986	22801
881.112	22889
881.239	22744
881.366	22546
881.493	22394
881.619	22379
881.746	22443
881.872	22409
881.999	22421
882.125	22459
882.252	22462
882.378	22398
882.505	22523
882.631	22268
882.757	22032
882.883	22150
883.01	22150
883.136	22074
883.262	21968
883.388	21937
883.514	22078
883.64	22112
883.766	22055
883.892	21972
884.018	21850
884.143	21960
884.269	22063
884.395	21869
884.52	21679
884.646	21762
884.772	21728
884.897	21549
885.023	21713
885.148	21679
885.274	21918
885.399	21922
885.524	21705
885.65	21751
885.775	21778
885.9	21800
886.025	21785
886.15	21778
886.275	21679
886.4	21732
886.525	21701
886.65	21561
886.775	21610
886.9	21781
887.025	21903
887.149	21648
887.274	21511
887.399	21473
887.523	21572
887.648	21401
887.773	21329
887.897	21515
888.021	21405
888.146	21485
888.27	21515
888.395	21572
888.519	21564
888.643	21526
888.767	21587
888.891	21378
889.015	21275
889.139	21405
889.263	21260
889.387	21443
889.511	21431
889.635	21370
889.759	21332
889.883	21176
890.006	21329
890.13	21393
890.254	21211
890.377	21108
890.501	21127
890.624	21017
890.748	21135
890.871	20807
890.995	20826
891.118	20731
891.241	20853
891.364	20826
891.488	20975
891.611	20895
891.734	20952
891.857	20811
891.98	20876
892.103	20895
892.226	20948
892.349	20769
892.471	20556
892.594	20765
892.717	20868
892.839	20686
892.962	20796
893.085	20750
893.207	20667
893.33	20594
893.452	20670
893.575	20762
893.697	20644
893.819	20826
893.941	20834
894.064	20937
894.186	20621
894.308	20632
894.43	20788
894.552	20872
894.674	20830
894.796	20693
894.918	20712
895.04	20674
895.161	20667
895.283	20796
895.405	20640
895.526	20746
895.648	20807
895.769	20762
895.891	20716
896.012	20826
896.134	20796
896.255	20765
896.376	20678
896.498	20727
896.619	20735
896.74	20693
896.861	20788
896.982	20982
897.103	21211
897.224	21051
897.345	20872
897.466	20910
897.587	20918
897.708	20914
897.828	20880
897.949	20834
898.07	20705
898.19	20731
898.311	21051
898.431	20872
898.552	20952
898.672	21039
898.792	20925
898.913	20796
899.033	20811
899.153	20670
899.273	20651
899.393	20701
899.513	20724
899.633	20708
899.753	20648
899.873	20625
899.993	20701
900.113	20621
900.232	20788
900.352	20655
900.472	20476
900.591	20427
900.711	20499
900.83	20461
900.95	20537
901.069	20526
901.189	20324
901.308	20077
901.427	20012
901.546	19970
901.665	20020
901.784	19989
901.904	19894
902.023	19814
902.141	19586
902.26	19514
902.379	19624
902.498	19605
902.617	19525
902.735	19571
902.854	19468
902.973	19354
903.091	19202
903.21	19198
903.328	19183
903.446	19095
903.565	19038
903.683	19061
903.801	18829
903.919	18924
904.038	18856
904.156	18738
904.274	18886
904.392	18673
904.51	18665
904.627	18745
904.745	18829
904.863	18821
904.981	18536
905.098	18391
905.216	18460
905.334	18372
905.451	18429
905.569	18372
905.686	18547
905.803	18361
905.921	18228
906.038	18247
906.155	18174
906.272	18057
906.389	18034
906.506	18026
906.623	17927
906.74	17904
906.857	17752
906.974	17802
907.091	17954
907.208	18011
907.324	17885
907.441	17927
907.557	17672
907.674	17653
907.79	17657
907.907	17627
908.023	17718
908.139	17570
908.256	17653
908.372	17535
908.488	17455
908.604	17379
908.72	17337
908.836	17406
908.952	17288
909.068	17368
909.184	17410
909.3	17436
909.415	17364
909.531	17330
909.647	17181
909.762	17003
909.878	17060
909.993	17098
910.108	17010
910.224	16946
910.339	17094
910.454	16984
910.57	16915
910.685	16763
910.8	17117
910.915	17075
911.03	16866
911.145	16710
911.259	16774
911.374	16679
911.489	16599
911.604	16428
911.718	16348
911.833	16440
911.947	16261
912.062	16211
912.176	16367
912.291	16489
912.405	16363
912.519	16523
912.633	16569
912.748	16447
912.862	16375
912.976	16211
913.09	16074
913.204	16238
913.318	16261
913.431	16253
913.545	16143
913.659	16341
913.772	16093
913.886	16036
914	16002
914.113	16120
914.226	16055
914.34	16025
914.453	15895
914.566	15991
914.68	15884
914.793	15793
914.906	15663
915.019	15515
915.132	15625
915.245	15492
915.358	15622
915.47	15530
915.583	15618
915.696	15618
915.809	15637
915.921	15568
916.034	15504
916.146	15454
916.259	15462
916.371	15519
916.483	15523
916.595	15435
916.708	15492
916.82	15424
916.932	15355
917.044	15462
917.156	15310
917.268	15173
917.38	15283
917.491	15260
917.603	15207
917.715	15252
917.826	15237
917.938	15142
918.049	15020
918.161	15131
918.272	15230
918.384	15283
918.495	15154
918.606	15085
918.717	14929
918.828	14906
918.939	14933
919.05	14944
919.161	14941
919.272	14659
919.383	14811
919.494	15055
919.604	15207
919.715	14975
919.826	14868
919.936	14842
920.047	14994
920.157	15013
920.267	15100
920.378	14937
920.488	14925
920.598	15112
920.708	15241
920.818	15074
920.928	15157
921.038	15283
921.148	15184
921.258	14861
921.368	14785
921.477	14697
921.587	14545
921.697	14526
921.806	14606
921.916	14480
922.025	14355
922.134	14328
922.244	14332
922.353	14374
922.462	14157
922.571	14138
922.68	13993
922.789	13917
922.898	13970
923.007	13959
923.116	13986
923.224	13917
923.333	13928
923.442	13791
923.55	13731
923.659	13753
923.767	13879
923.876	13651
923.984	13750
924.092	13639
924.201	13704
924.309	13696
924.417	13742
924.525	13514
924.633	13582
924.741	14533
924.849	13377
924.956	13525
925.064	13270
925.172	13278
925.279	13274
925.387	13293
925.494	13316
925.602	13419
925.709	13434
925.816	13240
925.924	13247
926.031	13388
926.138	13244
926.245	13316
926.352	13160
926.459	13282
926.566	13339
926.673	13225
926.779	13171
926.886	13031
926.993	12875
927.099	12897
927.206	12772
927.312	12795
927.419	12947
927.525	12757
927.631	12852
927.737	12776
927.843	12696
927.95	12578
928.056	12681
928.162	12768
928.267	12745
928.373	13388
928.479	12798
928.585	12544
928.69	12715
928.796	12703
928.901	12559
929.007	12502
929.112	12498
929.218	12532
929.323	12471
929.428	12403
929.533	12589
929.638	12308
929.743	12460
929.848	12270
929.953	12353
930.058	12224
930.163	12091
930.267	12117
930.372	12239
930.477	12026
930.581	12228
930.685	12049
930.79	11870
930.894	12007
930.998	11920
931.103	12121
931.207	11737
931.311	11718
931.415	11604
931.519	11360
931.623	11292
