Data from test_V78500241_3190.txt Node
Date: Fri Mar 25 16:03:53 CST 2022
User: usil
Spectrometer: V785-0024
Trigger mode: 0
Integration Time (sec): 4.000000E-1
Scans to average: 1
Nonlinearity correction enabled: false
Boxcar width: 0
Storing dark spectrum: false
XAxis mode: Wavelengths
Number of Pixels in Spectrum: 1024
>>>>>Begin Spectral Data<<<<<
801.071	28421
801.214	28497
801.356	28158
801.499	28082
801.641	28116
801.783	27994
801.926	28021
802.068	28074
802.211	27937
802.353	27846
802.496	27793
802.638	27736
802.78	27568
802.923	27622
803.065	27641
803.208	27633
803.35	27759
803.492	27804
803.635	28086
803.777	27743
803.919	27956
804.061	28348
804.204	28055
804.346	27759
804.488	27850
804.63	27816
804.773	27892
804.915	27873
805.057	27911
805.199	27937
805.341	28017
805.483	28150
805.626	27922
805.768	27998
805.91	28169
806.052	28051
806.194	27994
806.336	28139
806.478	28131
806.62	28116
806.762	28223
806.904	28303
807.046	28478
807.188	28447
807.33	28462
807.472	28634
807.614	28436
807.756	28504
807.898	28382
808.04	28409
808.182	28462
808.324	28291
808.465	28295
808.607	28561
808.749	28729
808.891	28801
809.033	28946
809.174	28816
809.316	28664
809.458	28733
809.6	28592
809.741	28778
809.883	28862
810.025	29174
810.166	29094
810.308	28987
810.45	28991
810.591	29025
810.733	28869
810.875	28793
811.016	28710
811.158	28717
811.299	28797
811.441	28919
811.582	28858
811.724	28786
811.865	28668
812.007	28771
812.148	28713
812.29	28866
812.431	29025
812.573	29102
812.714	29003
812.855	29200
812.997	29349
813.138	29429
813.279	29368
813.421	29220
813.562	29185
813.703	29067
813.845	28843
813.986	28771
814.127	28557
814.268	28459
814.41	28344
814.551	28470
814.692	28489
814.833	28447
814.974	28306
815.115	28516
815.256	28265
815.397	28257
815.539	28348
815.68	28150
815.821	28223
815.962	28147
816.103	28181
816.244	27998
816.385	27998
816.526	27934
816.666	27831
816.807	27587
816.948	27808
817.089	27903
817.23	27785
817.371	27644
817.512	27766
817.653	27835
817.793	27812
817.934	27736
818.075	27755
818.216	27732
818.356	27553
818.497	27774
818.638	27481
818.778	27393
818.919	27629
819.06	27576
819.2	27633
819.341	27682
819.481	27743
819.622	27869
819.762	28090
819.903	28021
820.043	27998
820.184	27720
820.324	27835
820.465	27907
820.605	28025
820.746	27789
820.886	27720
821.026	27945
821.167	27884
821.307	27922
821.447	27850
821.588	27819
821.728	27485
821.868	27298
822.008	27317
822.149	27070
822.289	27245
822.429	26979
822.569	26940
822.709	26948
822.849	26765
822.99	26701
823.13	26701
823.27	26712
823.41	26625
823.55	26651
823.69	26511
823.83	26560
823.97	26549
824.11	26309
824.25	26275
824.389	26240
824.529	26423
824.669	26370
824.809	26480
824.949	26465
825.089	26518
825.228	26461
825.368	26252
825.508	26122
825.648	26221
825.787	26248
825.927	26374
826.067	26145
826.206	26206
826.346	26396
826.485	26408
826.625	26320
826.765	26450
826.904	26294
827.044	26058
827.183	25982
827.323	25989
827.462	26138
827.601	26088
827.741	25940
827.88	25932
828.02	25928
828.159	25917
828.298	26027
828.437	25986
828.577	25978
828.716	25970
828.855	25856
828.994	25708
829.134	25502
829.273	25708
829.412	25597
829.551	25578
829.69	25658
829.829	25594
829.968	25784
830.107	25715
830.246	25616
830.385	25594
830.524	25635
830.663	25434
830.802	25415
830.941	25312
831.08	25320
831.219	25460
831.357	25533
831.496	25578
831.635	25266
831.774	25175
831.913	25114
832.051	25129
832.19	25046
832.329	25099
832.467	25012
832.606	24966
832.744	24966
832.883	24913
833.022	24913
833.16	24928
833.299	24894
833.437	24764
833.576	24935
833.714	24958
833.852	24989
833.991	25042
834.129	25091
834.267	25141
834.406	24973
834.544	25091
834.682	25050
834.821	25000
834.959	25175
835.097	25000
835.235	25145
835.373	24951
835.511	24985
835.65	24871
835.788	24787
835.926	24825
836.064	24681
836.202	24757
836.34	24852
836.478	24970
836.615	24798
836.753	24779
836.891	24897
837.029	24992
837.167	24745
837.305	24757
837.443	24711
837.58	24555
837.718	24601
837.856	24738
837.993	24623
838.131	24646
838.269	24582
838.406	24464
838.544	24369
838.681	24232
838.819	24239
838.956	24072
839.094	24091
839.231	24174
839.369	24445
839.506	24509
839.643	24418
839.781	24064
839.918	24053
840.055	23992
840.193	24102
840.33	24114
840.467	24015
840.604	24114
840.742	24330
840.879	23999
841.016	24026
841.153	23798
841.29	24095
841.427	24007
841.564	24057
841.701	24049
841.838	24018
841.975	23885
842.112	24007
842.249	23824
842.385	23832
842.522	23965
842.659	23859
842.796	23786
842.933	23813
843.069	23771
843.206	23764
843.343	23984
843.479	23687
843.616	23680
843.752	23642
843.889	23745
844.025	23684
844.162	23520
844.298	23619
844.435	23429
844.571	23570
844.708	23646
844.844	23726
844.98	23718
845.117	23748
845.253	23539
845.389	23299
845.525	23444
845.661	23372
845.798	23391
845.934	23376
846.07	23292
846.206	23398
846.342	23334
846.478	23334
846.614	22968
846.75	22976
846.886	22976
847.022	23147
847.158	23075
847.294	23048
847.429	23098
847.565	22991
847.701	23185
847.837	22733
847.972	22786
848.108	22904
848.244	22858
848.379	22748
848.515	22615
848.65	22672
848.786	22592
848.921	22535
849.057	22672
849.192	22702
849.328	22725
849.463	22622
849.598	22622
849.734	22489
849.869	22535
850.004	22344
850.14	22409
850.275	22402
850.41	22344
850.545	22344
850.68	22291
850.815	22360
850.95	22360
851.085	22565
851.22	22519
851.355	22481
851.49	22367
851.625	22443
851.76	22360
851.895	22268
852.03	22299
852.165	22356
852.299	22493
852.434	22573
852.569	22390
852.703	22173
852.838	22329
852.973	22344
853.107	22618
853.242	22356
853.376	22265
853.511	22055
853.645	22025
853.78	22322
853.914	22268
854.048	22211
854.183	22257
854.317	22215
854.451	22322
854.585	22284
854.72	22211
854.854	22348
854.988	22154
855.122	22181
855.256	22169
855.39	22162
855.524	22333
855.658	22261
855.792	22371
855.926	22173
856.06	22337
856.194	22337
856.327	22223
856.461	22063
856.595	22280
856.729	22257
856.862	22310
856.996	22276
857.13	22276
857.263	22318
857.397	22390
857.53	22291
857.664	22185
857.797	22242
857.931	22371
858.064	22348
858.197	22238
858.331	22348
858.464	22055
858.597	22207
858.731	22177
858.864	22154
858.997	22242
859.13	22242
859.263	22246
859.396	22367
859.529	22188
859.662	22246
859.795	22234
859.928	22265
860.061	22379
860.194	22413
860.327	22299
860.46	22242
860.592	22246
860.725	22333
860.858	22363
860.99	22116
861.123	22188
861.256	22158
861.388	22158
861.521	23033
861.653	22048
861.786	22002
861.918	22063
862.05	22051
862.183	22139
862.315	22192
862.447	22204
862.58	22219
862.712	21983
862.844	21915
862.976	21915
863.108	22002
863.24	22276
863.372	21816
863.504	21964
863.636	22017
863.768	21975
863.9	21907
864.032	21899
864.164	21926
864.296	21926
864.428	21972
864.559	21953
864.691	21869
864.823	21922
864.954	21835
865.086	21922
865.217	21835
865.349	21603
865.48	21774
865.612	21713
865.743	21903
865.875	21926
866.006	21861
866.137	21812
866.269	21778
866.4	21804
866.531	21800
866.662	21804
866.793	21671
866.924	21793
867.055	21816
867.186	21812
867.317	21583
867.448	21694
867.579	21637
867.71	21648
867.841	21641
867.972	21690
868.103	21827
868.233	21884
868.364	21713
868.495	21755
868.625	22029
868.756	22021
868.886	21915
869.017	21949
869.147	22021
869.278	22055
869.408	22021
869.539	22017
869.669	22063
869.799	22067
869.929	22162
870.06	22074
870.19	22322
870.32	22310
870.45	22265
870.58	22447
870.71	22478
870.84	22512
870.97	22322
871.1	22306
871.23	22504
871.36	22527
871.489	22466
871.619	22417
871.749	22641
871.879	22565
872.008	22710
872.138	22557
872.267	22626
872.397	22440
872.526	22462
872.656	22421
872.785	22386
872.915	22603
873.044	22622
873.173	22523
873.303	22645
873.432	22733
873.561	22542
873.69	22793
873.819	22546
873.948	22725
874.077	22516
874.206	22584
874.335	22611
874.464	22698
874.593	22869
874.722	22736
874.851	22755
874.979	22938
875.108	22812
875.237	22702
875.365	22687
875.494	22744
875.623	22980
875.751	22729
875.88	22809
876.008	23018
876.136	23098
876.265	23246
876.393	23318
876.521	23174
876.65	23292
876.778	23326
876.906	23109
877.034	23231
877.162	23197
877.29	23071
877.418	23178
877.546	23223
877.674	23075
877.802	23193
877.93	23102
878.058	23200
878.185	23102
878.313	23083
878.441	23162
878.568	22972
878.696	23044
878.824	23227
878.951	23220
879.079	23311
879.206	23429
879.333	23277
879.461	23193
879.588	23128
879.715	23254
879.842	23433
879.97	23292
880.097	23022
880.224	23022
880.351	23037
880.478	23102
880.605	22927
880.732	22949
880.859	23174
880.986	23041
881.112	22984
881.239	22683
881.366	22801
881.493	22607
881.619	22466
881.746	22561
881.872	22569
881.999	22508
882.125	22504
882.252	22474
882.378	22405
882.505	22599
882.631	22367
882.757	22257
882.883	22207
883.01	22158
883.136	22280
883.262	21987
883.388	22078
883.514	22204
883.64	22318
883.766	22105
883.892	22036
884.018	22086
884.143	22139
884.269	22169
884.395	21865
884.52	21850
884.646	21892
884.772	21819
884.897	21743
885.023	21907
885.148	21903
885.274	22055
885.399	22017
885.524	21934
885.65	21888
885.775	21892
885.9	21766
886.025	21972
886.15	21876
886.275	21686
886.4	21648
886.525	21759
886.65	21759
886.775	21622
886.9	21968
887.025	22006
887.149	21724
887.274	21656
887.399	21606
887.523	21667
887.648	21591
887.773	21485
887.897	21622
888.021	21698
888.146	21633
888.27	21622
888.395	21686
888.519	21781
888.643	21606
888.767	21743
888.891	21488
889.015	21397
889.139	21477
889.263	21420
889.387	21435
889.511	21629
889.635	21389
889.759	21450
889.883	21370
890.006	21359
890.13	21511
890.254	21348
890.377	21359
890.501	21154
890.624	21154
890.748	21108
890.871	21070
890.995	20929
891.118	20979
891.241	21036
891.364	21001
891.488	21036
891.611	21001
891.734	20925
891.857	21020
891.98	21047
892.103	21024
892.226	20876
892.349	20902
892.471	20788
892.594	20956
892.717	20891
892.839	20838
892.962	20902
893.085	20952
893.207	20792
893.33	20735
893.452	20727
893.575	20902
893.697	20880
893.819	20864
893.941	21039
894.064	20963
894.186	20861
894.308	20845
894.43	20941
894.552	21081
894.674	20910
894.796	20697
894.918	20716
895.04	20842
895.161	20887
895.283	20899
895.405	20777
895.526	20765
895.648	20887
895.769	20762
895.891	20830
896.012	20906
896.134	20830
896.255	20754
896.376	20781
896.498	20861
896.619	20819
896.74	20762
896.861	20914
896.982	21176
897.103	21264
897.224	21165
897.345	21188
897.466	20960
897.587	20982
897.708	21241
897.828	20994
897.949	20883
898.07	20944
898.19	20998
898.311	20982
898.431	20963
898.552	21028
898.672	21096
898.792	21085
898.913	20986
899.033	20883
899.153	20838
899.273	20701
899.393	20781
899.513	20861
899.633	20792
899.753	20727
899.873	20663
899.993	20864
900.113	20758
900.232	20663
900.352	20758
900.472	20606
900.591	20575
900.711	20613
900.83	20446
900.95	20617
901.069	20651
901.189	20328
901.308	20225
901.427	20199
901.546	20039
901.665	20145
901.784	20039
901.904	20035
902.023	19837
902.141	19674
902.26	19643
902.379	19704
902.498	19624
902.617	19521
902.735	19567
902.854	19590
902.973	19567
903.091	19289
903.21	19335
903.328	19152
903.446	19274
903.565	19099
903.683	19107
903.801	19008
903.919	18981
904.038	18897
904.156	18757
904.274	18890
904.392	18821
904.51	18821
904.627	18848
904.745	18897
904.863	18825
904.981	18536
905.098	18467
905.216	18506
905.334	18585
905.451	18540
905.569	18483
905.686	18582
905.803	18479
905.921	18251
906.038	18338
906.155	18251
906.272	18270
906.389	18152
906.506	17980
906.623	17988
906.74	18121
906.857	17958
906.974	17942
907.091	18034
907.208	18232
907.324	18125
907.441	17893
907.557	17737
907.674	17657
907.79	17794
907.907	17752
908.023	17695
908.139	17638
908.256	17649
908.372	17554
908.488	17577
908.604	17474
908.72	17501
908.836	17440
908.952	17429
909.068	17535
909.184	17459
909.3	17421
909.415	17436
909.531	17379
909.647	17220
909.762	17136
909.878	17090
909.993	17204
910.108	17162
910.224	17067
910.339	17060
910.454	16972
910.57	16995
910.685	17010
910.8	17242
910.915	17086
911.03	16976
911.145	16736
911.259	16744
911.374	16793
911.489	16573
911.604	16672
911.718	16424
911.833	16466
911.947	16268
912.062	16265
912.176	16443
912.291	16413
912.405	16554
912.519	16679
912.633	16721
912.748	16478
912.862	16356
912.976	16325
913.09	16166
913.204	16287
913.318	16211
913.431	16394
913.545	16337
913.659	16394
913.772	16204
913.886	16059
914	16071
914.113	16196
914.226	16249
914.34	16158
914.453	16025
914.566	16158
914.68	16063
914.793	15994
914.906	15804
915.019	15781
915.132	15542
915.245	15732
915.358	15739
915.47	15755
915.583	15671
915.696	15660
915.809	15724
915.921	15865
916.034	15618
916.146	15568
916.259	15564
916.371	15739
916.483	15652
916.595	15523
916.708	15603
916.82	15561
916.932	15488
917.044	15526
917.156	15313
917.268	15348
917.38	15370
917.491	15367
917.603	15386
917.715	15496
917.826	15386
917.938	15230
918.049	15199
918.161	15302
918.272	15405
918.384	15416
918.495	15298
918.606	15116
918.717	15146
918.828	15081
918.939	15032
919.05	14921
919.161	15017
919.272	14876
919.383	14887
919.494	15127
919.604	15389
919.715	15127
919.826	15081
919.936	15039
920.047	15226
920.157	15047
920.267	15157
920.378	15036
920.488	14986
920.598	15211
920.708	15340
920.818	15207
920.928	15199
921.038	15454
921.148	15207
921.258	14933
921.368	14899
921.477	14921
921.587	14724
921.697	14617
921.806	14781
921.916	14571
922.025	14533
922.134	14351
922.244	14434
922.353	14469
922.462	14400
922.571	14263
922.68	14138
922.789	14107
922.898	14153
923.007	14008
923.116	14035
923.224	13974
923.333	14035
923.442	13940
923.55	13928
923.659	13951
923.767	13967
923.876	13852
923.984	13837
924.092	13814
924.201	13868
924.309	13712
924.417	13765
924.525	13753
924.633	13734
924.741	14454
924.849	13548
924.956	13609
925.064	13514
925.172	13373
925.279	13388
925.387	13483
925.494	13476
925.602	13521
925.709	13540
925.816	13346
925.924	13339
926.031	13502
926.138	13407
926.245	13453
926.352	13365
926.459	13419
926.566	13457
926.673	13270
926.779	13213
926.886	13190
926.993	12996
927.099	12966
927.206	12829
927.312	12935
927.419	12977
927.525	13015
927.631	13031
927.737	12810
927.843	12783
927.95	12787
928.056	12821
928.162	12871
928.267	12840
928.373	13316
928.479	12863
928.585	12612
928.69	12684
928.796	12722
928.901	12612
929.007	12471
929.112	12684
929.218	12563
929.323	12589
929.428	12475
929.533	12532
929.638	12475
929.743	12494
929.848	12414
929.953	12391
930.058	12357
930.163	12190
930.267	12159
930.372	12300
930.477	12091
930.581	12452
930.685	12273
930.79	12095
930.894	12007
930.998	12091
931.103	12197
931.207	11870
931.311	11707
931.415	11649
931.519	11425
931.623	11330
