Data from test_V78500241_937.txt Node
Date: Fri Mar 25 15:48:17 CST 2022
User: usil
Spectrometer: V785-0024
Trigger mode: 0
Integration Time (sec): 4.000000E-1
Scans to average: 1
Nonlinearity correction enabled: false
Boxcar width: 0
Storing dark spectrum: false
XAxis mode: Wavelengths
Number of Pixels in Spectrum: 1024
>>>>>Begin Spectral Data<<<<<
801.071	28561
801.214	28569
801.356	28192
801.499	28291
801.641	28063
801.783	28116
801.926	28223
802.068	28177
802.211	27987
802.353	27960
802.496	27869
802.638	27690
802.78	27827
802.923	27747
803.065	27778
803.208	27823
803.35	27975
803.492	27937
803.635	28101
803.777	27949
803.919	28036
804.061	28421
804.204	28185
804.346	27865
804.488	27937
804.63	27857
804.773	28029
804.915	27953
805.057	28105
805.199	28025
805.341	28051
805.483	28120
805.626	28093
805.768	28067
805.91	28131
806.052	27991
806.194	28044
806.336	28363
806.478	28234
806.62	28230
806.762	28253
806.904	28322
807.046	28736
807.188	28812
807.33	28599
807.472	28641
807.614	28546
807.756	28527
807.898	28519
808.04	28386
808.182	28382
808.324	28561
808.465	28554
808.607	28645
808.749	28930
808.891	28839
809.033	29056
809.174	29044
809.316	28786
809.458	28774
809.6	28812
809.741	28972
809.883	28987
810.025	29239
810.166	29197
810.308	29318
810.45	29174
810.591	29155
810.733	28854
810.875	28797
811.016	28778
811.158	28915
811.299	28991
811.441	29140
811.582	28984
811.724	28927
811.865	29022
812.007	28843
812.148	28938
812.29	28892
812.431	29121
812.573	29315
812.714	29391
812.855	29467
812.997	29539
813.138	29623
813.279	29630
813.421	29520
813.562	29455
813.703	29296
813.845	29105
813.986	29010
814.127	28656
814.268	28584
814.41	28592
814.551	28733
814.692	28736
814.833	28554
814.974	28592
815.115	28683
815.256	28538
815.397	28516
815.539	28561
815.68	28401
815.821	28394
815.962	28497
816.103	28455
816.244	28409
816.385	28207
816.526	28120
816.666	28074
816.807	27869
816.948	28029
817.089	27972
817.23	27975
817.371	27808
817.512	27876
817.653	27876
817.793	27918
817.934	27781
818.075	27918
818.216	28013
818.356	27873
818.497	27812
818.638	27823
818.778	27728
818.919	27629
819.06	27804
819.2	27854
819.341	27880
819.481	28010
819.622	28021
819.762	28158
819.903	28101
820.043	28219
820.184	28139
820.324	28070
820.465	28086
820.605	28070
820.746	28093
820.886	27846
821.026	28078
821.167	28006
821.307	28131
821.447	27979
821.588	27865
821.728	27625
821.868	27698
822.008	27511
822.149	27511
822.289	27420
822.429	27127
822.569	27146
822.709	27074
822.849	26952
822.99	27062
823.13	26956
823.27	26948
823.41	26693
823.55	26735
823.69	26762
823.83	26731
823.97	26606
824.11	26640
824.25	26427
824.389	26598
824.529	26613
824.669	26537
824.809	26720
824.949	26720
825.089	26686
825.228	26758
825.368	26427
825.508	26412
825.648	26518
825.787	26484
825.927	26579
826.067	26526
826.206	26522
826.346	26590
826.485	26564
826.625	26488
826.765	26667
826.904	26571
827.044	26320
827.183	26187
827.323	26237
827.462	26248
827.601	26202
827.741	26294
827.88	26138
828.02	26142
828.159	26096
828.298	26210
828.437	26225
828.577	26107
828.716	26301
828.855	26115
828.994	25830
829.134	25822
829.273	25833
829.412	25898
829.551	25734
829.69	25932
829.829	25928
829.968	26001
830.107	25982
830.246	25917
830.385	25780
830.524	25868
830.663	25731
830.802	25586
830.941	25487
831.08	25594
831.219	25483
831.357	25662
831.496	25616
831.635	25559
831.774	25472
831.913	25407
832.051	25362
832.19	25403
832.329	25217
832.467	25148
832.606	25107
832.744	25019
832.883	25206
833.022	25034
833.16	25152
833.299	25114
833.437	25266
833.576	25316
833.714	25225
833.852	25228
833.991	25274
834.129	25259
834.267	25206
834.406	25209
834.544	25270
834.682	25259
834.821	25164
834.959	25388
835.097	25168
835.235	25247
835.373	25141
835.511	25175
835.65	25232
835.788	25046
835.926	24859
836.064	24897
836.202	24901
836.34	25198
836.478	25076
836.615	25034
836.753	25080
836.891	25236
837.029	24928
837.167	24970
837.305	24905
837.443	24890
837.58	24878
837.718	24829
837.856	24821
837.993	24817
838.131	24897
838.269	24757
838.406	24726
838.544	24802
838.681	24540
838.819	24494
838.956	24410
839.094	24327
839.231	24353
839.369	24448
839.506	24863
839.643	24566
839.781	24384
839.918	24251
840.055	24232
840.193	24216
840.33	24251
840.467	24228
840.604	24285
840.742	24566
840.879	24182
841.016	24163
841.153	24190
841.29	24372
841.427	24300
841.564	24395
841.701	24235
841.838	24117
841.975	24110
842.112	24163
842.249	24076
842.385	23916
842.522	24186
842.659	24030
842.796	23992
842.933	23980
843.069	23996
843.206	23923
843.343	24018
843.479	24053
843.616	23999
843.752	23745
843.889	23821
844.025	23832
844.162	23695
844.298	23760
844.435	23737
844.571	23817
844.708	23821
844.844	23923
844.98	23912
845.117	23756
845.253	23714
845.389	23596
845.525	23642
845.661	23619
845.798	23604
845.934	23459
846.07	23486
846.206	23474
846.342	23646
846.478	23436
846.614	23162
846.75	23189
846.886	23193
847.022	23265
847.158	23242
847.294	23170
847.429	23239
847.565	23261
847.701	23433
847.837	23048
847.972	22816
848.108	22999
848.244	22965
848.379	22866
848.515	22869
848.65	22771
848.786	22721
848.921	22706
849.057	22858
849.192	22908
849.328	22835
849.463	22763
849.598	22698
849.734	22672
849.869	22641
850.004	22557
850.14	22634
850.275	22504
850.41	22432
850.545	22512
850.68	22409
850.815	22577
850.95	22516
851.085	22744
851.22	22702
851.355	22531
851.49	22504
851.625	22599
851.76	22500
851.895	22466
852.03	22546
852.165	22489
852.299	22729
852.434	22611
852.569	22546
852.703	22611
852.838	22493
852.973	22672
853.107	22668
853.242	22432
853.376	22493
853.511	22249
853.645	22303
853.78	22375
853.914	22344
854.048	22352
854.183	22284
854.317	22459
854.451	22493
854.585	22314
854.72	22432
854.854	22405
854.988	22306
855.122	22291
855.256	22291
855.39	22295
855.524	22284
855.658	22485
855.792	22417
855.926	22322
856.06	22413
856.194	22455
856.327	22428
856.461	22363
856.595	22272
856.729	22375
856.862	22405
856.996	22428
857.13	22303
857.263	22455
857.397	22512
857.53	22386
857.664	22424
857.797	22436
857.931	22519
858.064	22489
858.197	22481
858.331	22337
858.464	22405
858.597	22318
858.731	22249
858.864	22405
858.997	22314
859.13	22341
859.263	22375
859.396	22375
859.529	22402
859.662	22318
859.795	22265
859.928	22382
860.061	22481
860.194	22523
860.327	22341
860.46	22363
860.592	22447
860.725	22561
860.858	22500
860.99	22344
861.123	22314
861.256	22314
861.388	22489
861.521	23033
861.653	22204
861.786	22158
861.918	22154
862.05	22306
862.183	22287
862.315	22470
862.447	22329
862.58	22230
862.712	22032
862.844	22082
862.976	22139
863.108	22223
863.24	22535
863.372	22029
863.504	21972
863.636	21964
863.768	22059
863.9	22078
864.032	21972
864.164	21964
864.296	22112
864.428	22287
864.559	22200
864.691	22131
864.823	22006
864.954	22105
865.086	22029
865.217	21994
865.349	22006
865.48	21983
865.612	21953
865.743	22074
865.875	21911
866.006	21899
866.137	22032
866.269	22032
866.4	21941
866.531	21903
866.662	21808
866.793	21876
866.924	21876
867.055	21960
867.186	21842
867.317	21922
867.448	21698
867.579	21857
867.71	21922
867.841	21819
867.972	21865
868.103	21884
868.233	21838
868.364	21835
868.495	21907
868.625	22078
868.756	22116
868.886	22044
869.017	22036
869.147	22291
869.278	22223
869.408	22070
869.539	22086
869.669	22135
869.799	22169
869.929	22177
870.06	22360
870.19	22440
870.32	22538
870.45	22527
870.58	22481
870.71	22554
870.84	22630
870.97	22561
871.1	22550
871.23	22630
871.36	22607
871.489	22687
871.619	22752
871.749	22687
871.879	22679
872.008	22896
872.138	22858
872.267	22687
872.397	22679
872.526	22634
872.656	22641
872.785	22390
872.915	22664
873.044	22816
873.173	22736
873.303	22653
873.432	22774
873.561	22858
873.69	22797
873.819	22850
873.948	22763
874.077	22702
874.206	22881
874.335	22702
874.464	22862
874.593	22934
874.722	22873
874.851	22873
874.979	22908
875.108	22904
875.237	22911
875.365	22828
875.494	22889
875.623	22972
875.751	22965
875.88	22934
876.008	23003
876.136	23041
876.265	23212
876.393	23490
876.521	23414
876.65	23364
876.778	23311
876.906	23231
877.034	23303
877.162	23315
877.29	23132
877.418	23288
877.546	23265
877.674	23353
877.802	23189
877.93	23170
878.058	23204
878.185	23128
878.313	23299
878.441	23197
878.568	23086
878.696	23292
878.824	23318
878.951	23391
879.079	23337
879.206	23627
879.333	23642
879.461	23341
879.588	23414
879.715	23379
879.842	23630
879.97	23299
880.097	23109
880.224	23159
880.351	23162
880.478	23197
880.605	22980
880.732	23124
880.859	23376
880.986	23132
881.112	23067
881.239	22881
881.366	22911
881.493	22778
881.619	22675
881.746	22774
881.872	22763
881.999	22664
882.125	22649
882.252	22672
882.378	22565
882.505	22748
882.631	22470
882.757	22470
882.883	22436
883.01	22276
883.136	22303
883.262	22177
883.388	22200
883.514	22508
883.64	22390
883.766	22226
883.892	22131
884.018	22093
884.143	22322
884.269	22390
884.395	22044
884.52	21907
884.646	22048
884.772	21880
884.897	21941
885.023	22067
885.148	22143
885.274	22116
885.399	22200
885.524	22169
885.65	22067
885.775	22013
885.9	21926
886.025	22093
886.15	22093
886.275	21899
886.4	21819
886.525	21876
886.65	21797
886.775	21888
886.9	22158
887.025	22287
887.149	21892
887.274	21816
887.399	21641
887.523	21694
887.648	21690
887.773	21663
887.897	21793
888.021	21789
888.146	21713
888.27	21831
888.395	21778
888.519	21770
888.643	21709
888.767	21778
888.891	21622
889.015	21481
889.139	21618
889.263	21447
889.387	21633
889.511	21804
889.635	21675
889.759	21538
889.883	21458
890.006	21515
890.13	21656
890.254	21481
890.377	21428
890.501	21287
890.624	21211
890.748	21424
890.871	21146
890.995	21096
891.118	21017
891.241	21104
891.364	21039
891.488	21279
891.611	21260
891.734	21001
891.857	21028
891.98	21135
892.103	21089
892.226	21093
892.349	20937
892.471	20800
892.594	20937
892.717	20914
892.839	21017
892.962	21013
893.085	21032
893.207	20990
893.33	20914
893.452	20777
893.575	20994
893.697	20910
893.819	21135
893.941	21055
894.064	21081
894.186	20956
894.308	20899
894.43	21005
894.552	21001
894.674	21119
894.796	20872
894.918	20944
895.04	20975
895.161	20952
895.283	20994
895.405	20948
895.526	20933
895.648	20925
895.769	20994
895.891	21009
896.012	20963
896.134	21009
896.255	20998
896.376	20762
896.498	20960
896.619	20956
896.74	20876
896.861	21039
896.982	21275
897.103	21450
897.224	21146
897.345	21070
897.466	21161
897.587	21173
897.708	21332
897.828	21150
897.949	21131
898.07	21013
898.19	21020
898.311	21131
898.431	20948
898.552	21093
898.672	21150
898.792	21332
898.913	21359
899.033	21074
899.153	20967
899.273	20845
899.393	20902
899.513	20830
899.633	20864
899.753	20853
899.873	20746
899.993	20876
900.113	20750
900.232	20868
900.352	20785
900.472	20746
900.591	20613
900.711	20765
900.83	20473
900.95	20682
901.069	20682
901.189	20564
901.308	20370
901.427	20237
901.546	20183
901.665	20343
901.784	20240
901.904	20195
902.023	19970
902.141	19776
902.26	19757
902.379	19830
902.498	19746
902.617	19632
902.735	19780
902.854	19704
902.973	19685
903.091	19464
903.21	19430
903.328	19392
903.446	19339
903.565	19095
903.683	19168
903.801	19110
903.919	19179
904.038	19076
904.156	18954
904.274	18973
904.392	18916
904.51	18913
904.627	18897
904.745	18935
904.863	19038
904.981	18654
905.098	18612
905.216	18578
905.334	18684
905.451	18711
905.569	18544
905.686	18677
905.803	18601
905.921	18403
906.038	18452
906.155	18410
906.272	18346
906.389	18369
906.506	18152
906.623	18186
906.74	18095
906.857	18136
906.974	18045
907.091	18258
907.208	18155
907.324	18163
907.441	18148
907.557	17878
907.674	17786
907.79	17901
907.907	17866
908.023	17863
908.139	17840
908.256	17863
908.372	17786
908.488	17752
908.604	17608
908.72	17684
908.836	17562
908.952	17512
909.068	17535
909.184	17665
909.3	17634
909.415	17714
909.531	17467
909.647	17326
909.762	17296
909.878	17258
909.993	17178
910.108	17193
910.224	17098
910.339	17250
910.454	17185
910.57	17083
910.685	16965
910.8	17288
910.915	17197
911.03	17048
911.145	17052
911.259	16805
911.374	16915
911.489	16748
911.604	16759
911.718	16561
911.833	16550
911.947	16538
912.062	16440
912.176	16656
912.291	16698
912.405	16584
912.519	16755
912.633	16755
912.748	16565
912.862	16459
912.976	16428
913.09	16268
913.204	16284
913.318	16428
913.431	16417
913.545	16462
913.659	16421
913.772	16352
913.886	16185
914	16139
914.113	16261
914.226	16211
914.34	16169
914.453	15994
914.566	16291
914.68	16063
914.793	16067
914.906	15819
915.019	15789
915.132	15766
915.245	15755
915.358	15876
915.47	15747
915.583	15781
915.696	15759
915.809	15869
915.921	15861
916.034	15762
916.146	15675
916.259	15549
916.371	15618
916.483	15732
916.595	15606
916.708	15542
916.82	15519
916.932	15584
917.044	15462
917.156	15504
917.268	15405
917.38	15382
917.491	15313
917.603	15412
917.715	15473
917.826	15481
917.938	15367
918.049	15260
918.161	15336
918.272	15485
918.384	15393
918.495	15279
918.606	15173
918.717	15097
918.828	15203
918.939	15112
919.05	14986
919.161	15077
919.272	15020
919.383	15070
919.494	15062
919.604	15359
919.715	15112
919.826	14990
919.936	14975
920.047	15279
920.157	15020
920.267	15226
920.378	15184
920.488	15017
920.598	15195
920.708	15287
920.818	15252
920.928	15313
921.038	15348
921.148	15310
921.258	15055
921.368	15001
921.477	14804
921.587	14849
921.697	14651
921.806	14906
921.916	14632
922.025	14514
922.134	14495
922.244	14385
922.353	14457
922.462	14259
922.571	14294
922.68	14187
922.789	14062
922.898	14081
923.007	14088
923.116	14229
923.224	14100
923.333	14069
923.442	13871
923.55	13928
923.659	13890
923.767	13921
923.876	13791
923.984	14008
924.092	13788
924.201	13902
924.309	13849
924.417	13784
924.525	13723
924.633	13727
924.741	14708
924.849	13544
924.956	13693
925.064	13499
925.172	13381
925.279	13449
925.387	13495
925.494	13453
925.602	13613
925.709	13510
925.816	13297
925.924	13419
926.031	13510
926.138	13476
926.245	13327
926.352	13339
926.459	13403
926.566	13434
926.673	13346
926.779	13240
926.886	13217
926.993	13069
927.099	13080
927.206	12989
927.312	13038
927.419	13015
927.525	12962
927.631	13019
927.737	12875
927.843	12890
927.95	12768
928.056	12764
928.162	12932
928.267	12795
928.373	13339
928.479	12897
928.585	12692
928.69	12700
928.796	12863
928.901	12703
929.007	12563
929.112	12658
929.218	12570
929.323	12544
929.428	12566
929.533	12730
929.638	12528
929.743	12517
929.848	12589
929.953	12426
930.058	12422
930.163	12247
930.267	12228
930.372	12330
930.477	12243
930.581	12422
930.685	12235
930.79	12110
930.894	12155
930.998	12098
931.103	12247
931.207	11866
931.311	11741
931.415	11718
931.519	11402
931.623	11471
