Data from test_V78500241_133.txt Node
Date: Fri Mar 25 15:42:43 CST 2022
User: usil
Spectrometer: V785-0024
Trigger mode: 0
Integration Time (sec): 4.000000E-1
Scans to average: 1
Nonlinearity correction enabled: false
Boxcar width: 0
Storing dark spectrum: false
XAxis mode: Wavelengths
Number of Pixels in Spectrum: 1024
>>>>>Begin Spectral Data<<<<<
801.071	30289
801.214	30076
801.356	29908
801.499	29851
801.641	29589
801.783	29752
801.926	29939
802.068	29771
802.211	29733
802.353	29642
802.496	29459
802.638	29353
802.78	29459
802.923	29254
803.065	29322
803.208	29486
803.35	29429
803.492	29657
803.635	29661
803.777	29452
803.919	29718
804.061	29805
804.204	29596
804.346	29589
804.488	29436
804.63	29379
804.773	29292
804.915	29589
805.057	29722
805.199	29661
805.341	29509
805.483	29680
805.626	29646
805.768	29630
805.91	29733
806.052	29642
806.194	29433
806.336	29836
806.478	29695
806.62	29653
806.762	29809
806.904	29996
807.046	30220
807.188	29935
807.33	30045
807.472	29961
807.614	30015
807.756	30018
807.898	29836
808.04	29912
808.182	29889
808.324	29824
808.465	29809
808.607	29965
808.749	30308
808.891	30213
809.033	30399
809.174	30182
809.316	30140
809.458	30190
809.6	30216
809.741	30308
809.883	30330
810.025	30376
810.166	30380
810.308	30258
810.45	30627
810.591	30372
810.733	30201
810.875	30167
811.016	30133
811.158	30133
811.299	30323
811.441	30311
811.582	30258
811.724	30041
811.865	30239
812.007	30171
812.148	30163
812.29	30133
812.431	30311
812.573	30521
812.714	30700
812.855	30616
812.997	30494
813.138	30909
813.279	30833
813.421	30673
813.562	30612
813.703	30544
813.845	30289
813.986	30030
814.127	29897
814.268	29870
814.41	29824
814.551	29859
814.692	29965
814.833	29813
814.974	29767
815.115	29912
815.256	29657
815.397	29566
815.539	29649
815.68	29615
815.821	29356
815.962	29471
816.103	29680
816.244	29273
816.385	29280
816.526	29189
816.666	29121
816.807	29029
816.948	29025
817.089	29113
817.23	28908
817.371	28862
817.512	28919
817.653	28915
817.793	28953
817.934	28908
818.075	28801
818.216	28976
818.356	28820
818.497	28774
818.638	28561
818.778	28637
818.919	28557
819.06	28736
819.2	28786
819.341	28869
819.481	28858
819.622	29048
819.762	29178
819.903	29151
820.043	29048
820.184	29044
820.324	28797
820.465	28965
820.605	28877
820.746	29071
820.886	28816
821.026	28881
821.167	28793
821.307	28877
821.447	28634
821.588	28656
821.728	28538
821.868	28333
822.008	28268
822.149	28230
822.289	28242
822.429	27975
822.569	27937
822.709	27861
822.849	27736
822.99	27739
823.13	27583
823.27	27625
823.41	27610
823.55	27549
823.69	27595
823.83	27511
823.97	27382
824.11	27199
824.25	27344
824.389	27218
824.529	27443
824.669	27348
824.809	27340
824.949	27355
825.089	27450
825.228	27272
825.368	27123
825.508	27074
825.648	27199
825.787	27150
825.927	27203
826.067	27020
826.206	27112
826.346	27199
826.485	27032
826.625	27222
826.765	27184
826.904	27055
827.044	26944
827.183	26891
827.323	26781
827.462	26868
827.601	26792
827.741	26834
827.88	26743
828.02	26773
828.159	26712
828.298	26769
828.437	26754
828.577	26670
828.716	26739
828.855	26697
828.994	26552
829.134	26408
829.273	26389
829.412	26499
829.551	26408
829.69	26389
829.829	26431
829.968	26457
830.107	26412
830.246	26476
830.385	26446
830.524	26355
830.663	26301
830.802	26043
830.941	26005
831.08	25955
831.219	25970
831.357	25982
831.496	26240
831.635	25932
831.774	25944
831.913	25765
832.051	25681
832.19	25700
832.329	25750
832.467	25533
832.606	25548
832.744	25514
832.883	25582
833.022	25548
833.16	25613
833.299	25567
833.437	25590
833.576	25616
833.714	25616
833.852	25609
833.991	25658
834.129	25715
834.267	25635
834.406	25693
834.544	25666
834.682	25495
834.821	25468
834.959	25635
835.097	25537
835.235	25556
835.373	25407
835.511	25472
835.65	25377
835.788	25449
835.926	25312
836.064	25164
836.202	25240
836.34	25453
836.478	25403
836.615	25438
836.753	25354
836.891	25502
837.029	25434
837.167	25384
837.305	25206
837.443	25133
837.58	25217
837.718	25183
837.856	25164
837.993	25137
838.131	25099
838.269	25080
838.406	25084
838.544	25091
838.681	24871
838.819	24798
838.956	24692
839.094	24513
839.231	24540
839.369	24707
839.506	25099
839.643	24734
839.781	24555
839.918	24536
840.055	24509
840.193	24585
840.33	24486
840.467	24460
840.604	24574
840.742	24726
840.879	24399
841.016	24254
841.153	24281
841.29	24502
841.427	24422
841.564	24350
841.701	24353
841.838	24281
841.975	24235
842.112	24262
842.249	24262
842.385	24292
842.522	24418
842.659	24228
842.796	24106
842.933	24110
843.069	24007
843.206	24121
843.343	24194
843.479	24174
843.616	24155
843.752	23946
843.889	23920
844.025	24079
844.162	23828
844.298	23832
844.435	23745
844.571	23878
844.708	23882
844.844	24083
844.98	23965
845.117	23878
845.253	23764
845.389	23783
845.525	23668
845.661	23646
845.798	23703
845.934	23376
846.07	23448
846.206	23691
846.342	23634
846.478	23467
846.614	23398
846.75	23356
846.886	23299
847.022	23334
847.158	23277
847.294	23284
847.429	23330
847.565	23216
847.701	23436
847.837	22908
847.972	22976
848.108	22972
848.244	23018
848.379	22858
848.515	22759
848.65	22752
848.786	22835
848.921	22854
849.057	22854
849.192	22889
849.328	22843
849.463	22694
849.598	22763
849.734	22740
849.869	22641
850.004	22615
850.14	22512
850.275	22561
850.41	22561
850.545	22447
850.68	22466
850.815	22485
850.95	22462
851.085	22664
851.22	22470
851.355	22519
851.49	22474
851.625	22508
851.76	22459
851.895	22462
852.03	22474
852.165	22386
852.299	22382
852.434	22546
852.569	22398
852.703	22535
852.838	22588
852.973	22573
853.107	22554
853.242	22432
853.376	22295
853.511	22219
853.645	22253
853.78	22421
853.914	22314
854.048	22200
854.183	22310
854.317	22276
854.451	22497
854.585	22371
854.72	22207
854.854	22466
854.988	22215
855.122	22246
855.256	22162
855.39	22211
855.524	22352
855.658	22272
855.792	22223
855.926	22207
856.06	22344
856.194	22341
856.327	22268
856.461	22272
856.595	22090
856.729	22268
856.862	22382
856.996	22363
857.13	22246
857.263	22367
857.397	22318
857.53	22280
857.664	22341
857.797	22272
857.931	22360
858.064	22249
858.197	22219
858.331	22242
858.464	22112
858.597	22219
858.731	22303
858.864	22253
858.997	22166
859.13	22090
859.263	22413
859.396	22200
859.529	22287
859.662	22177
859.795	22207
859.928	22188
860.061	22421
860.194	22367
860.327	22226
860.46	22120
860.592	22238
860.725	22363
860.858	22409
860.99	22234
861.123	22059
861.256	22204
861.388	22158
861.521	22816
861.653	22135
861.786	21907
861.918	22139
862.05	22090
862.183	22211
862.315	22192
862.447	22367
862.58	22223
862.712	22090
862.844	21899
862.976	22090
863.108	22059
863.24	22333
863.372	21709
863.504	21876
863.636	21892
863.768	22006
863.9	21895
864.032	21698
864.164	21808
864.296	21956
864.428	21930
864.559	21937
864.691	21953
864.823	21861
864.954	21854
865.086	21857
865.217	21759
865.349	21648
865.48	21713
865.612	21701
865.743	21846
865.875	21679
866.006	21637
866.137	21903
866.269	21583
866.4	21812
866.531	21709
866.662	21599
866.793	21720
866.924	21652
867.055	21671
867.186	21720
867.317	21701
867.448	21667
867.579	21587
867.71	21686
867.841	21542
867.972	21713
868.103	21618
868.233	21686
868.364	21736
868.495	21835
868.625	21854
868.756	22070
868.886	21922
869.017	21892
869.147	22036
869.278	22059
869.408	21842
869.539	21808
869.669	21926
869.799	21846
869.929	22070
870.06	21960
870.19	22147
870.32	22150
870.45	22169
870.58	22181
870.71	22447
870.84	22276
870.97	22287
871.1	22280
871.23	22428
871.36	22554
871.489	22500
871.619	22440
871.749	22363
871.879	22432
872.008	22664
872.138	22447
872.267	22375
872.397	22375
872.526	22344
872.656	22314
872.785	22409
872.915	22664
873.044	22615
873.173	22531
873.303	22493
873.432	22618
873.561	22622
873.69	22527
873.819	22402
873.948	22729
874.077	22523
874.206	22554
874.335	22527
874.464	22634
874.593	22668
874.722	22694
874.851	22713
874.979	22778
875.108	22778
875.237	22740
875.365	22588
875.494	22752
875.623	22702
875.751	22573
875.88	22805
876.008	22839
876.136	22957
876.265	23124
876.393	23258
876.521	23227
876.65	23269
876.778	23140
876.906	23170
877.034	23117
877.162	23303
877.29	22881
877.418	23075
877.546	23166
877.674	23086
877.802	23151
877.93	23090
878.058	22927
878.185	22957
878.313	22972
878.441	23022
878.568	22839
878.696	23014
878.824	23033
878.951	23220
879.079	23261
879.206	23383
879.333	23318
879.461	23064
879.588	23231
879.715	23315
879.842	23387
879.97	23185
880.097	22961
880.224	22911
880.351	22949
880.478	22919
880.605	22919
880.732	22908
880.859	23090
880.986	22938
881.112	22976
881.239	22725
881.366	22713
881.493	22561
881.619	22512
881.746	22550
881.872	22565
881.999	22459
882.125	22417
882.252	22413
882.378	22569
882.505	22512
882.631	22432
882.757	22261
882.883	22261
883.01	22177
883.136	22013
883.262	21979
883.388	22055
883.514	22238
883.64	22249
883.766	22006
883.892	21949
884.018	21956
884.143	22082
884.269	22272
884.395	21831
884.52	21797
884.646	21884
884.772	21789
884.897	21774
885.023	21850
885.148	21895
885.274	21892
885.399	21819
885.524	21789
885.65	21743
885.775	21823
885.9	21827
886.025	21911
886.15	21819
886.275	21682
886.4	21553
886.525	21564
886.65	21759
886.775	21633
886.9	21823
887.025	21968
887.149	21720
887.274	21679
887.399	21629
887.523	21477
887.648	21469
887.773	21412
887.897	21652
888.021	21648
888.146	21401
888.27	21507
888.395	21614
888.519	21477
888.643	21576
888.767	21580
888.891	21481
889.015	21199
889.139	21431
889.263	21302
889.387	21401
889.511	21519
889.635	21397
889.759	21306
889.883	21359
890.006	21351
890.13	21454
890.254	21222
890.377	21157
890.501	21005
890.624	21020
890.748	21013
890.871	20937
890.995	20861
891.118	20853
891.241	20895
891.364	20967
891.488	21005
891.611	20948
891.734	20899
891.857	20891
891.98	20857
892.103	20914
892.226	20788
892.349	20765
892.471	20598
892.594	20785
892.717	20826
892.839	20781
892.962	20826
893.085	20777
893.207	20686
893.33	20792
893.452	20792
893.575	20872
893.697	20750
893.819	20845
893.941	20956
894.064	20804
894.186	20811
894.308	20697
894.43	20785
894.552	20982
894.674	20880
894.796	20716
894.918	20701
895.04	20762
895.161	20792
895.283	20796
895.405	20705
895.526	20785
895.648	20758
895.769	20743
895.891	20842
896.012	20906
896.134	20842
896.255	20910
896.376	20826
896.498	20929
896.619	20918
896.74	20838
896.861	20800
896.982	21116
897.103	21359
897.224	21024
897.345	21066
897.466	21077
897.587	21081
897.708	21096
897.828	20998
897.949	20861
898.07	20826
898.19	20857
898.311	21077
898.431	20773
898.552	21055
898.672	21032
898.792	21013
898.913	20944
899.033	20781
899.153	20720
899.273	20667
899.393	20735
899.513	20590
899.633	20621
899.753	20659
899.873	20606
899.993	20583
900.113	20609
900.232	20731
900.352	20476
900.472	20476
900.591	20473
900.711	20423
900.83	20362
900.95	20522
901.069	20552
901.189	20438
901.308	20229
901.427	19970
901.546	20088
901.665	19936
901.784	19940
901.904	19841
902.023	19837
902.141	19578
902.26	19548
902.379	19575
902.498	19571
902.617	19434
902.735	19430
902.854	19464
902.973	19430
903.091	19202
903.21	19118
903.328	19388
903.446	19118
903.565	18943
903.683	18993
903.801	18871
903.919	18996
904.038	18958
904.156	18764
904.274	18779
904.392	18692
904.51	18673
904.627	18806
904.745	18700
904.863	18760
904.981	18601
905.098	18418
905.216	18407
905.334	18388
905.451	18353
905.569	18258
905.686	18395
905.803	18353
905.921	18205
906.038	18235
906.155	18167
906.272	17973
906.389	18152
906.506	17824
906.623	17927
906.74	17832
906.857	17722
906.974	17790
907.091	17980
907.208	17973
907.324	17889
907.441	17745
907.557	17600
907.674	17653
907.79	17577
907.907	17455
908.023	17512
908.139	17516
908.256	17486
908.372	17368
908.488	17410
908.604	17330
908.72	17280
908.836	17303
908.952	17277
909.068	17280
909.184	17284
909.3	17254
909.415	17185
909.531	17322
909.647	16831
909.762	16877
909.878	16896
909.993	16942
910.108	16957
910.224	16839
910.339	16866
910.454	16698
910.57	16778
910.685	16691
910.8	16915
910.915	16896
911.03	16603
911.145	16527
911.259	16485
911.374	16512
911.489	16417
911.604	16367
911.718	16314
911.833	16253
911.947	16131
912.062	16006
912.176	16261
912.291	16246
912.405	16287
912.519	16436
912.633	16386
912.748	16291
912.862	16109
912.976	16097
913.09	15979
913.204	15994
913.318	15968
913.431	16074
913.545	16078
913.659	16135
913.772	16021
913.886	15915
914	15778
914.113	15869
914.226	15873
914.34	15892
914.453	15774
914.566	15861
914.68	15739
914.793	15660
914.906	15504
915.019	15496
915.132	15389
915.245	15374
915.358	15526
915.47	15488
915.583	15420
915.696	15466
915.809	15401
915.921	15698
916.034	15363
916.146	15249
916.259	15226
916.371	15344
916.483	15393
916.595	15325
916.708	15252
916.82	15214
916.932	15306
917.044	15188
917.156	15173
917.268	14979
917.38	15119
917.491	15108
917.603	15043
917.715	15127
917.826	15077
917.938	15017
918.049	14952
918.161	14990
918.272	15116
918.384	15222
918.495	15058
918.606	14891
918.717	14693
918.828	14842
918.939	14929
919.05	14610
919.161	14724
919.272	14594
919.383	14659
919.494	14777
919.604	14906
919.715	14689
919.826	14701
919.936	14724
920.047	14773
920.157	14743
920.267	15017
920.378	14724
920.488	14621
920.598	14902
920.708	15017
920.818	14800
920.928	14731
921.038	14986
921.148	15024
921.258	14670
921.368	14461
921.477	14484
921.587	14419
921.697	14271
921.806	14434
921.916	14244
922.025	14153
922.134	14054
922.244	14054
922.353	14123
922.462	14001
922.571	13955
922.68	13727
922.789	13769
922.898	13734
923.007	13715
923.116	13658
923.224	13681
923.333	13636
923.442	13556
923.55	13590
923.659	13521
923.767	13499
923.876	13407
923.984	13563
924.092	13426
924.201	13525
924.309	13434
924.417	13449
924.525	13297
924.633	13358
924.741	14142
924.849	13247
924.956	13285
925.064	13187
925.172	13027
925.279	13072
925.387	13126
925.494	13042
925.602	13213
925.709	13160
925.816	13031
925.924	13168
926.031	13202
926.138	12985
926.245	13129
926.352	12935
926.459	13080
926.566	13145
926.673	12989
926.779	12905
926.886	12894
926.993	12787
927.099	12715
927.206	12738
927.312	12517
927.419	12578
927.525	12601
927.631	12722
927.737	12490
927.843	12582
927.95	12376
928.056	12403
928.162	12506
928.267	12494
928.373	13137
928.479	12585
928.585	12254
928.69	12456
928.796	12502
928.901	12334
929.007	12251
929.112	12388
929.218	12281
929.323	12205
929.428	12182
929.533	12220
929.638	12087
929.743	12133
929.848	12190
929.953	12110
930.058	12019
930.163	11874
930.267	11923
930.372	12022
930.477	11794
930.581	12106
930.685	11889
930.79	11775
930.894	11764
930.998	11710
931.103	11775
931.207	11410
931.311	11414
931.415	11334
931.519	11102
931.623	11048
