Data from test_V78500241_870.txt Node
Date: Fri Mar 25 15:47:49 CST 2022
User: usil
Spectrometer: V785-0024
Trigger mode: 0
Integration Time (sec): 4.000000E-1
Scans to average: 1
Nonlinearity correction enabled: false
Boxcar width: 0
Storing dark spectrum: false
XAxis mode: Wavelengths
Number of Pixels in Spectrum: 1024
>>>>>Begin Spectral Data<<<<<
801.071	27511
801.214	27454
801.356	27344
801.499	27085
801.641	26937
801.783	27081
801.926	27157
802.068	26952
802.211	26921
802.353	26895
802.496	26739
802.638	26708
802.78	26868
802.923	26651
803.065	26640
803.208	26785
803.35	26632
803.492	26644
803.635	26678
803.777	26853
803.919	26952
804.061	27207
804.204	26868
804.346	26895
804.488	26682
804.63	26758
804.773	26655
804.915	26963
805.057	26838
805.199	27001
805.341	27074
805.483	26967
805.626	26975
805.768	26880
805.91	26914
806.052	26994
806.194	26887
806.336	27188
806.478	26998
806.62	27043
806.762	27146
806.904	27188
807.046	27439
807.188	27435
807.33	27553
807.472	27447
807.614	27321
807.756	27389
807.898	27332
808.04	27195
808.182	27211
808.324	27188
808.465	27199
808.607	27420
808.749	27507
808.891	27698
809.033	27766
809.174	27690
809.316	27629
809.458	27622
809.6	27587
809.741	27701
809.883	27770
810.025	27972
810.166	28036
810.308	27831
810.45	27812
810.591	27831
810.733	27625
810.875	27682
811.016	27450
811.158	27515
811.299	27819
811.441	27751
811.582	27759
811.724	27675
811.865	27515
812.007	27591
812.148	27530
812.29	27523
812.431	27869
812.573	27975
812.714	27903
812.855	28204
812.997	28352
813.138	28341
813.279	28341
813.421	28086
813.562	27945
813.703	28002
813.845	27842
813.986	27656
814.127	27382
814.268	27283
814.41	27310
814.551	27378
814.692	27325
814.833	27245
814.974	27249
815.115	27435
815.256	27138
815.397	27203
815.539	27146
815.68	27066
815.821	26975
815.962	26948
816.103	27135
816.244	27028
816.385	26887
816.526	26785
816.666	26640
816.807	26541
816.948	26613
817.089	26712
817.23	26541
817.371	26476
817.512	26571
817.653	26571
817.793	26434
817.934	26499
818.075	26594
818.216	26655
818.356	26499
818.497	26488
818.638	26122
818.778	26313
818.919	26282
819.06	26389
819.2	26530
819.341	26590
819.481	26526
819.622	26754
819.762	26868
819.903	26750
820.043	26804
820.184	26697
820.324	26785
820.465	26636
820.605	26575
820.746	26533
820.886	26568
821.026	26697
821.167	26606
821.307	26590
821.447	26537
821.588	26488
821.728	26267
821.868	26142
822.008	26176
822.149	26111
822.289	25894
822.429	25708
822.569	25677
822.709	25753
822.849	25544
822.99	25491
823.13	25483
823.27	25483
823.41	25396
823.55	25339
823.69	25464
823.83	25479
823.97	25377
824.11	25137
824.25	25069
824.389	25171
824.529	25282
824.669	25301
824.809	25316
824.949	25255
825.089	25297
825.228	25289
825.368	25129
825.508	25145
825.648	25042
825.787	25194
825.927	25069
826.067	25008
826.206	25168
826.346	25103
826.485	25141
826.625	25129
826.765	25152
826.904	25076
827.044	24901
827.183	24875
827.323	24753
827.462	24787
827.601	24741
827.741	24825
827.88	24795
828.02	24669
828.159	24719
828.298	24806
828.437	24833
828.577	24738
828.716	24760
828.855	24635
828.994	24578
829.134	24448
829.273	24528
829.412	24505
829.551	24315
829.69	24441
829.829	24445
829.968	24669
830.107	24407
830.246	24388
830.385	24384
830.524	24410
830.663	24133
830.802	24224
830.941	24117
831.08	24155
831.219	24102
831.357	24174
831.496	24224
831.635	24102
831.774	24034
831.913	23969
832.051	23855
832.19	23771
832.329	23821
832.467	23771
832.606	23653
832.744	23748
832.883	23733
833.022	23764
833.16	23695
833.299	23809
833.437	23809
833.576	23840
833.714	23710
833.852	23847
833.991	23863
834.129	23824
834.267	23798
834.406	23802
834.544	23920
834.682	23790
834.821	23741
834.959	23931
835.097	23642
835.235	23790
835.373	23756
835.511	23733
835.65	23634
835.788	23665
835.926	23429
836.064	23551
836.202	23463
836.34	23646
836.478	23733
836.615	23596
836.753	23615
836.891	23630
837.029	23566
837.167	23535
837.305	23486
837.443	23425
837.58	23383
837.718	23467
837.856	23509
837.993	23509
838.131	23383
838.269	23322
838.406	23265
838.544	23356
838.681	22991
838.819	23105
838.956	22904
839.094	22892
839.231	22987
839.369	23121
839.506	23353
839.643	23197
839.781	22869
839.918	22873
840.055	23029
840.193	22885
840.33	22896
840.467	22904
840.604	22858
840.742	23216
840.879	22771
841.016	22782
841.153	22824
841.29	23022
841.427	22873
841.564	22980
841.701	22896
841.838	22759
841.975	22630
842.112	22793
842.249	22740
842.385	22672
842.522	22759
842.659	22744
842.796	22588
842.933	22577
843.069	22519
843.206	22554
843.343	22672
843.479	22694
843.616	22580
843.752	22428
843.889	22337
844.025	22577
844.162	22405
844.298	22516
844.435	22306
844.571	22291
844.708	22363
844.844	22523
844.98	22550
845.117	22417
845.253	22329
845.389	22318
845.525	22162
845.661	22242
845.798	22128
845.934	22226
846.07	22120
846.206	22215
846.342	22196
846.478	22128
846.614	22010
846.75	21835
846.886	21880
847.022	21884
847.158	21793
847.294	21884
847.429	21861
847.565	21816
847.701	22013
847.837	21561
847.972	21679
848.108	21778
848.244	21682
848.379	21530
848.515	21496
848.65	21378
848.786	21485
848.921	21515
849.057	21557
849.192	21644
849.328	21625
849.463	21530
849.598	21485
849.734	21329
849.869	21401
850.004	21332
850.14	21260
850.275	21241
850.41	21176
850.545	21329
850.68	21222
850.815	21256
850.95	21370
851.085	21462
851.22	21306
851.355	21298
851.49	21294
851.625	21226
851.76	21226
851.895	21165
852.03	21173
852.165	21188
852.299	21287
852.434	21412
852.569	21363
852.703	21291
852.838	21264
852.973	21348
853.107	21412
853.242	21317
853.376	21112
853.511	20941
853.645	21089
853.78	21093
853.914	21165
854.048	21058
854.183	20975
854.317	21070
854.451	21279
854.585	21024
854.72	21043
854.854	21233
854.988	21127
855.122	21154
855.256	21047
855.39	21089
855.524	21150
855.658	21009
855.792	21165
855.926	21089
856.06	21055
856.194	21142
856.327	20975
856.461	21195
856.595	21001
856.729	21051
856.862	21138
856.996	21009
857.13	21116
857.263	21119
857.397	21291
857.53	21096
857.664	21173
857.797	21154
857.931	21161
858.064	21001
858.197	21283
858.331	21093
858.464	21055
858.597	20971
858.731	21089
858.864	20994
858.997	20971
859.13	21074
859.263	21093
859.396	21138
859.529	21081
859.662	21131
859.795	21017
859.928	21070
860.061	21230
860.194	21249
860.327	21039
860.46	21001
860.592	21211
860.725	21256
860.858	21272
860.99	21047
861.123	21036
861.256	21039
861.388	21077
861.521	21766
861.653	20876
861.786	20834
861.918	20933
862.05	20925
862.183	21096
862.315	21001
862.447	21108
862.58	20937
862.712	20800
862.844	20815
862.976	20899
863.108	20918
863.24	21199
863.372	20705
863.504	20800
863.636	20746
863.768	20933
863.9	20804
864.032	20731
864.164	20674
864.296	20773
864.428	20944
864.559	20914
864.691	20975
864.823	20796
864.954	20743
865.086	20811
865.217	20754
865.349	20724
865.48	20655
865.612	20777
865.743	20754
865.875	20663
866.006	20689
866.137	20705
866.269	20594
866.4	20606
866.531	20689
866.662	20564
866.793	20545
866.924	20705
867.055	20663
867.186	20564
867.317	20613
867.448	20484
867.579	20549
867.71	20556
867.841	20579
867.972	20575
868.103	20693
868.233	20598
868.364	20541
868.495	20754
868.625	20861
868.756	21062
868.886	20765
869.017	20895
869.147	21013
869.278	21062
869.408	20838
869.539	20883
869.669	21028
869.799	20918
869.929	20960
870.06	20849
870.19	21230
870.32	21161
870.45	21036
870.58	21252
870.71	21405
870.84	21469
870.97	21218
871.1	21127
871.23	21466
871.36	21526
871.489	21447
871.619	21325
871.749	21378
871.879	21443
872.008	21530
872.138	21313
872.267	21523
872.397	21332
872.526	21344
872.656	21325
872.785	21351
872.915	21405
873.044	21553
873.173	21515
873.303	21496
873.432	21561
873.561	21580
873.69	21572
873.819	21504
873.948	21549
874.077	21481
874.206	21367
874.335	21542
874.464	21705
874.593	21831
874.722	21637
874.851	21663
874.979	21804
875.108	21789
875.237	21747
875.365	21603
875.494	21698
875.623	21789
875.751	21576
875.88	21762
876.008	21869
876.136	21789
876.265	22150
876.393	22394
876.521	22124
876.65	22314
876.778	22128
876.906	22109
877.034	22044
877.162	22044
877.29	22006
877.418	22177
877.546	22055
877.674	22063
877.802	22120
877.93	22021
878.058	22135
878.185	21861
878.313	21964
878.441	22010
878.568	22078
878.696	22131
878.824	22162
878.951	22135
879.079	22173
879.206	22371
879.333	22173
879.461	22116
879.588	22204
879.715	22272
879.842	22356
879.97	22238
880.097	21781
880.224	21876
880.351	22074
880.478	21876
880.605	21835
880.732	21903
880.859	22059
880.986	21892
881.112	21911
881.239	21724
881.366	21572
881.493	21488
881.619	21443
881.746	21481
881.872	21473
881.999	21507
882.125	21481
882.252	21496
882.378	21370
882.505	21580
882.631	21386
882.757	21157
882.883	21252
883.01	21199
883.136	21188
883.262	21058
883.388	20971
883.514	21089
883.64	21138
883.766	21135
883.892	20902
884.018	21005
884.143	21150
884.269	21066
884.395	20845
884.52	20906
884.646	20785
884.772	20899
884.897	20716
885.023	20925
885.148	20906
885.274	20941
885.399	20921
885.524	20769
885.65	20762
885.775	20929
885.9	20830
886.025	20944
886.15	20861
886.275	20811
886.4	20701
886.525	20773
886.65	20716
886.775	20686
886.9	20845
887.025	20986
887.149	20785
887.274	20663
887.399	20617
887.523	20575
887.648	20408
887.773	20423
887.897	20667
888.021	20621
888.146	20454
888.27	20697
888.395	20682
888.519	20617
888.643	20575
888.767	20571
888.891	20499
889.015	20438
889.139	20537
889.263	20320
889.387	20568
889.511	20701
889.635	20530
889.759	20328
889.883	20396
890.006	20404
890.13	20442
890.254	20240
890.377	20377
890.501	20218
890.624	20145
890.748	20172
890.871	19940
890.995	19906
891.118	19913
891.241	20039
891.364	20016
891.488	20161
891.611	19974
891.734	19963
891.857	20008
891.98	19978
892.103	19989
892.226	19959
892.349	19845
892.471	19757
892.594	19902
892.717	19955
892.839	19909
892.962	19955
893.085	19928
893.207	19849
893.33	19753
893.452	19849
893.575	19955
893.697	19803
893.819	20035
893.941	20111
894.064	19925
894.186	19826
894.308	19803
894.43	19818
894.552	20039
894.674	20035
894.796	19871
894.918	19811
895.04	19860
895.161	19906
895.283	19955
895.405	19795
895.526	19864
895.648	19875
895.769	19841
895.891	19902
896.012	19959
896.134	19887
896.255	19776
896.376	19940
896.498	19898
896.619	20008
896.74	19921
896.861	19947
896.982	20244
897.103	20347
897.224	20107
897.345	20039
897.466	19944
897.587	19982
897.708	20218
897.828	20176
897.949	20122
898.07	20008
898.19	20096
898.311	20176
898.431	20016
898.552	20119
898.672	20111
898.792	20180
898.913	20084
899.033	19959
899.153	19978
899.273	19822
899.393	19928
899.513	19932
899.633	19871
899.753	19936
899.873	19639
899.993	19849
900.113	19776
900.232	19803
900.352	19700
900.472	19658
900.591	19586
900.711	19723
900.83	19620
900.95	19620
901.069	19609
901.189	19502
901.308	19381
901.427	19118
901.546	19179
901.665	19190
901.784	19168
901.904	19114
902.023	19000
902.141	18802
902.26	18825
902.379	18833
902.498	18715
902.617	18688
902.735	18779
902.854	18726
902.973	18673
903.091	18380
903.21	18391
903.328	18369
903.446	18350
903.565	18087
903.683	18239
903.801	18049
903.919	18171
904.038	18068
904.156	18049
904.274	18045
904.392	17973
904.51	17969
904.627	17939
904.745	18091
904.863	17996
904.981	17821
905.098	17592
905.216	17665
905.334	17794
905.451	17661
905.569	17653
905.686	17672
905.803	17684
905.921	17402
906.038	17581
906.155	17512
906.272	17353
906.389	17292
906.506	17162
906.623	17189
906.74	17200
906.857	17143
906.974	17128
907.091	17231
907.208	17315
907.324	17200
907.441	17048
907.557	16972
907.674	16965
907.79	16835
907.907	16835
908.023	16930
908.139	16892
908.256	16885
908.372	16873
908.488	16809
908.604	16691
908.72	16489
908.836	16618
908.952	16546
909.068	16679
909.184	16740
909.3	16611
909.415	16611
909.531	16596
909.647	16363
909.762	16280
909.878	16466
909.993	16295
910.108	16325
910.224	16246
910.339	16371
910.454	16253
910.57	16158
910.685	16116
910.8	16348
910.915	16398
911.03	16211
911.145	16017
911.259	15895
911.374	15941
911.489	15926
911.604	15865
911.718	15732
911.833	15618
911.947	15663
912.062	15545
912.176	15705
912.291	15781
912.405	15694
912.519	15892
912.633	15857
912.748	15720
912.862	15637
912.976	15542
913.09	15363
913.204	15549
913.318	15492
913.431	15481
913.545	15485
913.659	15694
913.772	15488
913.886	15439
914	15268
914.113	15408
914.226	15393
914.34	15310
914.453	15230
914.566	15291
914.68	15218
914.793	15070
914.906	15001
915.019	14887
915.132	14914
915.245	14963
915.358	15013
915.47	14971
915.583	14906
915.696	14864
915.809	15024
915.921	15032
916.034	14956
916.146	14815
916.259	14758
916.371	15009
916.483	14895
916.595	14769
916.708	14838
916.82	14697
916.932	14788
917.044	14678
917.156	14705
917.268	14594
917.38	14571
917.491	14590
917.603	14663
917.715	14617
917.826	14750
917.938	14541
918.049	14507
918.161	14446
918.272	14648
918.384	14629
918.495	14552
918.606	14450
918.717	14374
918.828	14454
918.939	14412
919.05	14320
919.161	14431
919.272	14149
919.383	14256
919.494	14419
919.604	14670
919.715	14305
919.826	14267
919.936	14305
920.047	14370
920.157	14385
920.267	14583
920.378	14442
920.488	14328
920.598	14514
920.708	14560
920.818	14571
920.928	14457
921.038	14568
921.148	14689
921.258	14328
921.368	14218
921.477	14115
921.587	14062
921.697	13982
921.806	14176
921.916	13902
922.025	13750
922.134	13753
922.244	13704
922.353	13826
922.462	13632
922.571	13552
922.68	13422
922.789	13396
922.898	13316
923.007	13339
923.116	13449
923.224	13407
923.333	13331
923.442	13209
923.55	13145
923.659	13236
923.767	13346
923.876	13103
923.984	13259
924.092	13137
924.201	13168
924.309	13149
924.417	13091
924.525	13095
924.633	13240
924.741	14069
924.849	12802
924.956	13065
925.064	12840
925.172	12753
925.279	12684
925.387	12909
925.494	12821
925.602	12909
925.709	12783
925.816	12669
925.924	12738
926.031	12894
926.138	12696
926.245	12894
926.352	12734
926.459	12810
926.566	12875
926.673	12642
926.779	12597
926.886	12608
926.993	12426
927.099	12418
927.206	12334
927.312	12319
927.419	12475
927.525	12369
927.631	12414
927.737	12315
927.843	12239
927.95	12125
928.056	12213
928.162	12194
928.267	12235
928.373	12863
928.479	12319
928.585	11984
928.69	12117
928.796	12254
928.901	12049
929.007	11965
929.112	12072
929.218	12060
929.323	11988
929.428	11980
929.533	12163
929.638	11863
929.743	11912
929.848	11946
929.953	11897
930.058	11855
930.163	11615
930.267	11688
930.372	11813
930.477	11623
930.581	11817
930.685	11684
930.79	11608
930.894	11524
930.998	11440
931.103	11649
931.207	11242
931.311	11284
931.415	11178
931.519	10923
931.623	10927
