Data from test_V78500241_1451.txt Node
Date: Fri Mar 25 15:51:51 CST 2022
User: usil
Spectrometer: V785-0024
Trigger mode: 0
Integration Time (sec): 4.000000E-1
Scans to average: 1
Nonlinearity correction enabled: false
Boxcar width: 0
Storing dark spectrum: false
XAxis mode: Wavelengths
Number of Pixels in Spectrum: 1024
>>>>>Begin Spectral Data<<<<<
801.071	28561
801.214	28379
801.356	28398
801.499	28150
801.641	28105
801.783	28143
801.926	28128
802.068	28147
802.211	28070
802.353	28090
802.496	27899
802.638	27800
802.78	27854
802.923	27800
803.065	27583
803.208	27766
803.35	27759
803.492	27907
803.635	27903
803.777	27949
803.919	28074
804.061	28265
804.204	28131
804.346	28048
804.488	27918
804.63	28070
804.773	27922
804.915	28128
805.057	28166
805.199	27930
805.341	28097
805.483	28143
805.626	28078
805.768	28010
805.91	28150
806.052	28139
806.194	28147
806.336	28341
806.478	28276
806.62	28325
806.762	28322
806.904	28451
807.046	28733
807.188	28637
807.33	28744
807.472	28618
807.614	28668
807.756	28752
807.898	28618
808.04	28424
808.182	28489
808.324	28542
808.465	28592
808.607	28797
808.749	28801
808.891	29056
809.033	28991
809.174	28961
809.316	28831
809.458	28984
809.6	28847
809.741	29022
809.883	29033
810.025	29330
810.166	29197
810.308	29132
810.45	29094
810.591	29048
810.733	28957
810.875	28923
811.016	28656
811.158	28888
811.299	28984
811.441	29094
811.582	29056
811.724	28915
811.865	28839
812.007	28946
812.148	28835
812.29	28812
812.431	29044
812.573	29147
812.714	29223
812.855	29471
812.997	29478
813.138	29710
813.279	29410
813.421	29433
813.562	29356
813.703	29250
813.845	29086
813.986	28778
814.127	28733
814.268	28630
814.41	28641
814.551	28535
814.692	28569
814.833	28485
814.974	28493
815.115	28626
815.256	28386
815.397	28508
815.539	28470
815.68	28360
815.821	28413
815.962	28314
816.103	28348
816.244	28147
816.385	28238
816.526	28120
816.666	28017
816.807	27922
816.948	27987
817.089	27895
817.23	27907
817.371	27876
817.512	27800
817.653	27907
817.793	27846
817.934	27934
818.075	28013
818.216	27903
818.356	27739
818.497	27854
818.638	27553
818.778	27720
818.919	27808
819.06	27728
819.2	27759
819.341	27831
819.481	27926
819.622	28211
819.762	28246
819.903	28063
820.043	28143
820.184	28002
820.324	28021
820.465	28029
820.605	28086
820.746	27987
820.886	27816
821.026	27953
821.167	27850
821.307	28070
821.447	27956
821.588	27793
821.728	27671
821.868	27637
822.008	27340
822.149	27294
822.289	27408
822.429	27093
822.569	27104
822.709	27074
822.849	26975
822.99	26956
823.13	26838
823.27	26708
823.41	26655
823.55	26552
823.69	26724
823.83	26701
823.97	26575
824.11	26488
824.25	26427
824.389	26530
824.529	26568
824.669	26594
824.809	26716
824.949	26598
825.089	26564
825.228	26617
825.368	26347
825.508	26374
825.648	26476
825.787	26450
825.927	26480
826.067	26556
826.206	26396
826.346	26427
826.485	26389
826.625	26381
826.765	26461
826.904	26442
827.044	26183
827.183	26153
827.323	26073
827.462	26191
827.601	26176
827.741	26183
827.88	26164
828.02	26119
828.159	26134
828.298	26111
828.437	26172
828.577	25879
828.716	26195
828.855	25917
828.994	25788
829.134	25871
829.273	25906
829.412	25890
829.551	25837
829.69	25811
829.829	25814
829.968	25746
830.107	25928
830.246	25658
830.385	25651
830.524	25666
830.663	25696
830.802	25472
830.941	25388
831.08	25365
831.219	25430
831.357	25430
831.496	25639
831.635	25392
831.774	25324
831.913	25354
832.051	25274
832.19	25293
832.329	25183
832.467	25122
832.606	25103
832.744	25152
832.883	25152
833.022	25019
833.16	25168
833.299	25148
833.437	25175
833.576	25274
833.714	25221
833.852	25122
833.991	25312
834.129	25308
834.267	25175
834.406	25206
834.544	25247
834.682	25122
834.821	25015
834.959	25266
835.097	25107
835.235	25198
835.373	25168
835.511	25141
835.65	25084
835.788	24932
835.926	24878
836.064	24840
836.202	24867
836.34	25084
836.478	25000
836.615	24852
836.753	25076
836.891	25088
837.029	25027
837.167	24810
837.305	24867
837.443	24848
837.58	24791
837.718	24833
837.856	24966
837.993	24719
838.131	24749
838.269	24707
838.406	24768
838.544	24673
838.681	24441
838.819	24414
838.956	24323
839.094	24239
839.231	24505
839.369	24342
839.506	24578
839.643	24494
839.781	24270
839.918	24224
840.055	24289
840.193	24243
840.33	24205
840.467	24251
840.604	24163
840.742	24528
840.879	24163
841.016	24034
841.153	23946
841.29	24315
841.427	24136
841.564	24277
841.701	24167
841.838	24106
841.975	24087
842.112	23999
842.249	23988
842.385	23935
842.522	24243
842.659	24140
842.796	23927
842.933	23870
843.069	23908
843.206	23775
843.343	24178
843.479	23882
843.616	23870
843.752	23783
843.889	23817
844.025	23889
844.162	23779
844.298	23779
844.435	23714
844.571	23737
844.708	23672
844.844	23817
844.98	23805
845.117	23874
845.253	23585
845.389	23710
845.525	23493
845.661	23478
845.798	23376
845.934	23551
846.07	23558
846.206	23501
846.342	23501
846.478	23417
846.614	23231
846.75	23086
846.886	23124
847.022	23147
847.158	23067
847.294	23136
847.429	23132
847.565	23220
847.701	23398
847.837	22915
847.972	22812
848.108	22965
848.244	23098
848.379	22752
848.515	22736
848.65	22767
848.786	22687
848.921	22809
849.057	22965
849.192	23003
849.328	22793
849.463	22782
849.598	22611
849.734	22744
849.869	22611
850.004	22584
850.14	22398
850.275	22588
850.41	22474
850.545	22485
850.68	22500
850.815	22565
850.95	22702
851.085	22744
851.22	22664
851.355	22356
851.49	22451
851.625	22500
851.76	22588
851.895	22481
852.03	22394
852.165	22523
852.299	22634
852.434	22698
852.569	22523
852.703	22554
852.838	22531
852.973	22740
853.107	22706
853.242	22508
853.376	22451
853.511	22200
853.645	22447
853.78	22447
853.914	22451
854.048	22379
854.183	22371
854.317	22371
854.451	22512
854.585	22367
854.72	22318
854.854	22508
854.988	22246
855.122	22322
855.256	22314
855.39	22360
855.524	22398
855.658	22341
855.792	22352
855.926	22493
856.06	22398
856.194	22504
856.327	22291
856.461	22310
856.595	22253
856.729	22223
856.862	22531
856.996	22379
857.13	22493
857.263	22413
857.397	22523
857.53	22402
857.664	22489
857.797	22413
857.931	22546
858.064	22333
858.197	22440
858.331	22314
858.464	22299
858.597	22284
858.731	22341
858.864	22291
858.997	22242
859.13	22371
859.263	22462
859.396	22481
859.529	22417
859.662	22318
859.795	22348
859.928	22325
860.061	22580
860.194	22554
860.327	22348
860.46	22333
860.592	22322
860.725	22611
860.858	22527
860.99	22421
861.123	22238
861.256	22238
861.388	22280
861.521	23094
861.653	22253
861.786	22207
861.918	22109
862.05	22268
862.183	22291
862.315	22386
862.447	22280
862.58	22257
862.712	22040
862.844	22070
862.976	22238
863.108	22093
863.24	22531
863.372	22067
863.504	22131
863.636	22013
863.768	22021
863.9	22032
864.032	21930
864.164	21945
864.296	22002
864.428	22097
864.559	22124
864.691	22112
864.823	21994
864.954	22131
865.086	21998
865.217	21884
865.349	21797
865.48	21926
865.612	21930
865.743	21987
865.875	21991
866.006	21968
866.137	22017
866.269	21934
866.4	21994
866.531	21975
866.662	21854
866.793	21762
866.924	21937
867.055	21930
867.186	21789
867.317	21797
867.448	21774
867.579	21816
867.71	21705
867.841	21812
867.972	21819
868.103	21747
868.233	21892
868.364	21846
868.495	21972
868.625	22097
868.756	22287
868.886	22154
869.017	22097
869.147	22234
869.278	22211
869.408	22131
869.539	22177
869.669	22105
869.799	22158
869.929	22185
870.06	22287
870.19	22417
870.32	22242
870.45	22451
870.58	22428
870.71	22683
870.84	22611
870.97	22432
871.1	22497
871.23	22702
871.36	22702
871.489	22440
871.619	22691
871.749	22805
871.879	22771
872.008	22835
872.138	22637
872.267	22824
872.397	22462
872.526	22508
872.656	22535
872.785	22478
872.915	22793
873.044	22877
873.173	22713
873.303	22759
873.432	22725
873.561	22748
873.69	22763
873.819	22759
873.948	22831
874.077	22824
874.206	22649
874.335	22740
874.464	22824
874.593	22904
874.722	22900
874.851	22972
874.979	22919
875.108	22999
875.237	22987
875.365	22866
875.494	22858
875.623	23056
875.751	23003
875.88	22957
876.008	23117
876.136	23216
876.265	23258
876.393	23436
876.521	23391
876.65	23406
876.778	23337
876.906	23303
877.034	23277
877.162	23372
877.29	23254
877.418	23334
877.546	23277
877.674	23402
877.802	23330
877.93	23273
878.058	23258
878.185	23079
878.313	23239
878.441	23220
878.568	23197
878.696	23105
878.824	23315
878.951	23474
879.079	23486
879.206	23505
879.333	23444
879.461	23277
879.588	23421
879.715	23486
879.842	23718
879.97	23330
880.097	23037
880.224	23121
880.351	23121
880.478	23113
880.605	23029
880.732	23166
880.859	23273
880.986	23117
881.112	23132
881.239	23056
881.366	22953
881.493	22786
881.619	22615
881.746	22725
881.872	22717
881.999	22618
882.125	22497
882.252	22744
882.378	22797
882.505	22752
882.631	22596
882.757	22405
882.883	22459
883.01	22325
883.136	22363
883.262	22154
883.388	22181
883.514	22436
883.64	22508
883.766	22158
883.892	22055
884.018	22204
884.143	22421
884.269	22329
884.395	22040
884.52	22063
884.646	21998
884.772	22029
884.897	21915
885.023	21945
885.148	21991
885.274	22074
885.399	22063
885.524	21987
885.65	22013
885.775	22097
885.9	22017
886.025	22166
886.15	21994
886.275	21960
886.4	21816
886.525	22032
886.65	21895
886.775	21892
886.9	22032
887.025	22173
887.149	21968
887.274	21774
887.399	21747
887.523	21762
887.648	21583
887.773	21587
887.897	21876
888.021	21762
888.146	21736
888.27	21781
888.395	21873
888.519	21766
888.643	21804
888.767	21785
888.891	21523
889.015	21625
889.139	21625
889.263	21507
889.387	21564
889.511	21648
889.635	21644
889.759	21458
889.883	21534
890.006	21477
890.13	21553
890.254	21405
890.377	21523
890.501	21218
890.624	21298
890.748	21351
890.871	21154
890.995	21123
891.118	21028
891.241	21173
891.364	21036
891.488	21230
891.611	21077
891.734	21074
891.857	21062
891.98	21036
892.103	21138
892.226	21066
892.349	21047
892.471	20826
892.594	20971
892.717	21001
892.839	20880
892.962	20986
893.085	21138
893.207	20963
893.33	20842
893.452	21017
893.575	21135
893.697	20941
893.819	21119
893.941	21233
894.064	21005
894.186	20944
894.308	20921
894.43	21104
894.552	21066
894.674	21024
894.796	20727
894.918	20899
895.04	21036
895.161	21085
895.283	21001
895.405	20921
895.526	20975
895.648	20979
895.769	20887
895.891	21017
896.012	21020
896.134	21085
896.255	21051
896.376	20861
896.498	20921
896.619	20902
896.74	20975
896.861	20994
896.982	21237
897.103	21420
897.224	21188
897.345	21169
897.466	20998
897.587	21157
897.708	21336
897.828	21207
897.949	21203
898.07	20990
898.19	21024
898.311	21116
898.431	21051
898.552	21108
898.672	21230
898.792	21222
898.913	21116
899.033	21005
899.153	20963
899.273	20948
899.393	20948
899.513	20933
899.633	20895
899.753	20918
899.873	20758
899.993	20941
900.113	20910
900.232	20914
900.352	20758
900.472	20746
900.591	20724
900.711	20697
900.83	20682
900.95	20682
901.069	20667
901.189	20590
901.308	20332
901.427	20202
901.546	20263
901.665	20317
901.784	20206
901.904	20153
902.023	19978
902.141	19837
902.26	19719
902.379	19803
902.498	19715
902.617	19635
902.735	19761
902.854	19700
902.973	19624
903.091	19346
903.21	19419
903.328	19438
903.446	19217
903.565	19129
903.683	19141
903.801	19031
903.919	19118
904.038	18935
904.156	18897
904.274	18939
904.392	19015
904.51	18916
904.627	18977
904.745	18981
904.863	18985
904.981	18753
905.098	18688
905.216	18677
905.334	18642
905.451	18646
905.569	18692
905.686	18760
905.803	18642
905.921	18414
906.038	18521
906.155	18506
906.272	18289
906.389	18365
906.506	18258
906.623	18209
906.74	18072
906.857	18053
906.974	18053
907.091	18235
907.208	18171
907.324	18133
907.441	18026
907.557	17866
907.674	17870
907.79	17748
907.907	17859
908.023	17832
908.139	17863
908.256	17779
908.372	17687
908.488	17756
908.604	17676
908.72	17638
908.836	17570
908.952	17497
909.068	17581
909.184	17741
909.3	17524
909.415	17600
909.531	17414
909.647	17356
909.762	17322
909.878	17269
909.993	17258
910.108	17277
910.224	17296
910.339	17273
910.454	17174
910.57	17041
910.685	17022
910.8	17223
910.915	17166
911.03	17086
911.145	16824
911.259	16812
911.374	16873
911.489	16790
911.604	16767
911.718	16573
911.833	16672
911.947	16531
912.062	16527
912.176	16565
912.291	16607
912.405	16626
912.519	16763
912.633	16691
912.748	16634
912.862	16527
912.976	16478
913.09	16318
913.204	16363
913.318	16424
913.431	16466
913.545	16417
913.659	16398
913.772	16325
913.886	16135
914	16128
914.113	16280
914.226	16276
914.34	16276
914.453	16051
914.566	16181
914.68	16055
914.793	16128
914.906	15892
915.019	15724
915.132	15720
915.245	15751
915.358	15823
915.47	15800
915.583	15694
915.696	15797
915.809	15949
915.921	15949
916.034	15656
916.146	15705
916.259	15660
916.371	15694
916.483	15743
916.595	15561
916.708	15720
916.82	15633
916.932	15584
917.044	15633
917.156	15542
917.268	15428
917.38	15374
917.491	15367
917.603	15439
917.715	15454
917.826	15507
917.938	15294
918.049	15291
918.161	15386
918.272	15389
918.384	15435
918.495	15329
918.606	15169
918.717	15104
918.828	15203
918.939	15192
919.05	14998
919.161	15108
919.272	14834
919.383	15005
919.494	15237
919.604	15408
919.715	15150
919.826	14982
919.936	15123
920.047	15104
920.157	15043
920.267	15237
920.378	15154
920.488	15039
920.598	15218
920.708	15428
920.818	15298
920.928	15169
921.038	15283
921.148	15329
921.258	15028
921.368	14986
921.477	14773
921.587	14880
921.697	14701
921.806	14918
921.916	14606
922.025	14568
922.134	14480
922.244	14393
922.353	14473
922.462	14431
922.571	14164
922.68	14134
922.789	14100
922.898	14069
923.007	14096
923.116	13970
923.224	14103
923.333	14012
923.442	13890
923.55	13871
923.659	13906
923.767	13894
923.876	13864
923.984	13894
924.092	13849
924.201	13750
924.309	13883
924.417	13727
924.525	13704
924.633	13772
924.741	14598
924.849	13594
924.956	13548
925.064	13567
925.172	13491
925.279	13502
925.387	13563
925.494	13491
925.602	13636
925.709	13510
925.816	13441
925.924	13468
926.031	13571
926.138	13415
926.245	13468
926.352	13240
926.459	13407
926.566	13422
926.673	13266
926.779	13320
926.886	13259
926.993	13149
927.099	12954
927.206	12977
927.312	12996
927.419	12966
927.525	12966
927.631	13046
927.737	12985
927.843	12852
927.95	12741
928.056	12905
928.162	12821
928.267	12951
928.373	13552
928.479	12909
928.585	12578
928.69	12726
928.796	12772
928.901	12639
929.007	12566
929.112	12707
929.218	12654
929.323	12662
929.428	12570
929.533	12757
929.638	12437
929.743	12429
929.848	12585
929.953	12448
930.058	12445
930.163	12281
930.267	12273
930.372	12357
930.477	12186
930.581	12350
930.685	12197
930.79	12121
930.894	12152
930.998	12098
931.103	12171
931.207	11859
931.311	11805
931.415	11649
931.519	11482
931.623	11528
