Data from test_V78500241_2525.txt Node
Date: Fri Mar 25 15:59:17 CST 2022
User: usil
Spectrometer: V785-0024
Trigger mode: 0
Integration Time (sec): 4.000000E-1
Scans to average: 1
Nonlinearity correction enabled: false
Boxcar width: 0
Storing dark spectrum: false
XAxis mode: Wavelengths
Number of Pixels in Spectrum: 1024
>>>>>Begin Spectral Data<<<<<
801.071	28862
801.214	28710
801.356	28588
801.499	28379
801.641	28432
801.783	28219
801.926	28341
802.068	28329
802.211	28192
802.353	28154
802.496	28192
802.638	28013
802.78	28036
802.923	27930
803.065	27949
803.208	28032
803.35	28070
803.492	28006
803.635	28169
803.777	28082
803.919	28192
804.061	28713
804.204	28173
804.346	28223
804.488	28162
804.63	28261
804.773	28131
804.915	28291
805.057	28356
805.199	28284
805.341	28371
805.483	28367
805.626	28333
805.768	28246
805.91	28478
806.052	28421
806.194	28295
806.336	28428
806.478	28481
806.62	28375
806.762	28634
806.904	28668
807.046	28911
807.188	28873
807.33	28797
807.472	28908
807.614	28934
807.756	28790
807.898	28873
808.04	28672
808.182	28691
808.324	28904
808.465	28869
808.607	28877
808.749	29048
808.891	29178
809.033	29280
809.174	29204
809.316	29121
809.458	29140
809.6	29010
809.741	29102
809.883	29136
810.025	29356
810.166	29410
810.308	29459
810.45	29383
810.591	29254
810.733	29098
810.875	29033
811.016	28953
811.158	28980
811.299	29334
811.441	29193
811.582	29330
811.724	29140
811.865	29048
812.007	29022
812.148	29159
812.29	29151
812.431	29345
812.573	29433
812.714	29562
812.855	29551
812.997	29653
813.138	29824
813.279	29805
813.421	29661
813.562	29661
813.703	29482
813.845	29429
813.986	29246
814.127	29018
814.268	28949
814.41	28915
814.551	28858
814.692	28847
814.833	28839
814.974	28744
815.115	28759
815.256	28565
815.397	28691
815.539	28763
815.68	28603
815.821	28580
815.962	28740
816.103	28733
816.244	28538
816.385	28394
816.526	28291
816.666	28238
816.807	28143
816.948	28196
817.089	28310
817.23	28185
817.371	28219
817.512	28226
817.653	28097
817.793	28082
817.934	28120
818.075	28230
818.216	28086
818.356	28017
818.497	27972
818.638	27816
818.778	27949
818.919	27869
819.06	27922
819.2	27987
819.341	27945
819.481	28200
819.622	28394
819.762	28443
819.903	28360
820.043	28409
820.184	28257
820.324	28215
820.465	28306
820.605	28204
820.746	28200
820.886	28044
821.026	28249
821.167	28306
821.307	28329
821.447	28303
821.588	28124
821.728	28032
821.868	27701
822.008	27648
822.149	27663
822.289	27576
822.429	27367
822.569	27302
822.709	27199
822.849	27169
822.99	27195
823.13	27093
823.27	27104
823.41	26986
823.55	26948
823.69	27066
823.83	27028
823.97	26872
824.11	26590
824.25	26902
824.389	26689
824.529	26956
824.669	26819
824.809	26921
824.949	26796
825.089	26887
825.228	26697
825.368	26564
825.508	26640
825.648	26617
825.787	26727
825.927	26674
826.067	26590
826.206	26568
826.346	26602
826.485	26769
826.625	26632
826.765	26720
826.904	26762
827.044	26396
827.183	26431
827.323	26408
827.462	26423
827.601	26339
827.741	26161
827.88	26408
828.02	26172
828.159	26252
828.298	26377
828.437	26385
828.577	26347
828.716	26396
828.855	26225
828.994	26103
829.134	25993
829.273	26084
829.412	25970
829.551	25970
829.69	26084
829.829	26062
829.968	26119
830.107	26062
830.246	26005
830.385	26020
830.524	25966
830.663	25833
830.802	25772
830.941	25715
831.08	25696
831.219	25731
831.357	25856
831.496	25803
831.635	25750
831.774	25415
831.913	25495
832.051	25373
832.19	25343
832.329	25419
832.467	25255
832.606	25312
832.744	25213
832.883	25263
833.022	25308
833.16	25411
833.299	25335
833.437	25339
833.576	25499
833.714	25449
833.852	25464
833.991	25438
834.129	25518
834.267	25411
834.406	25388
834.544	25358
834.682	25327
834.821	25479
834.959	25525
835.097	25304
835.235	25445
835.373	25327
835.511	25384
835.65	25236
835.788	25324
835.926	25244
836.064	25042
836.202	25004
836.34	25293
836.478	25373
836.615	25137
836.753	25164
836.891	25377
837.029	25095
837.167	25171
837.305	25114
837.443	25088
837.58	25027
837.718	24985
837.856	25103
837.993	25076
838.131	24992
838.269	24973
838.406	24760
838.544	24890
838.681	24604
838.819	24715
838.956	24616
839.094	24597
839.231	24445
839.369	24707
839.506	24920
839.643	24821
839.781	24426
839.918	24490
840.055	24483
840.193	24407
840.33	24490
840.467	24471
840.604	24452
840.742	24688
840.879	24308
841.016	24330
841.153	24422
841.29	24517
841.427	24346
841.564	24384
841.701	24365
841.838	24174
841.975	24323
842.112	24327
842.249	24330
842.385	24224
842.522	24426
842.659	24292
842.796	24197
842.933	24068
843.069	24197
843.206	24110
843.343	24167
843.479	24182
843.616	24117
843.752	23893
843.889	23923
844.025	24068
844.162	23980
844.298	24136
844.435	23855
844.571	23866
844.708	23927
844.844	24121
844.98	23992
845.117	24091
845.253	23870
845.389	23722
845.525	23843
845.661	23847
845.798	23741
845.934	23840
846.07	23566
846.206	23680
846.342	23786
846.478	23585
846.614	23307
846.75	23387
846.886	23417
847.022	23349
847.158	23471
847.294	23315
847.429	23421
847.565	23402
847.701	23649
847.837	23136
847.972	23223
848.108	23147
848.244	23033
848.379	23044
848.515	23018
848.65	22991
848.786	23014
848.921	22885
849.057	23071
849.192	23155
849.328	22923
849.463	22976
849.598	22930
849.734	22889
849.869	22797
850.004	22816
850.14	22721
850.275	22790
850.41	22527
850.545	22584
850.68	22744
850.815	22763
850.95	22839
851.085	22961
851.22	22869
851.355	22767
851.49	22820
851.625	22622
851.76	22713
851.895	22626
852.03	22683
852.165	22679
852.299	22782
852.434	22820
852.569	22721
852.703	22755
852.838	22748
852.973	22793
853.107	22820
853.242	22577
853.376	22527
853.511	22485
853.645	22466
853.78	22740
853.914	22531
854.048	22573
854.183	22519
854.317	22519
854.451	22828
854.585	22569
854.72	22447
854.854	22573
854.988	22481
855.122	22459
855.256	22455
855.39	22436
855.524	22683
855.658	22603
855.792	22611
855.926	22557
856.06	22721
856.194	22679
856.327	22504
856.461	22493
856.595	22478
856.729	22656
856.862	22668
856.996	22611
857.13	22485
857.263	22550
857.397	22588
857.53	22478
857.664	22447
857.797	22618
857.931	22634
858.064	22504
858.197	22565
858.331	22459
858.464	22565
858.597	22489
858.731	22561
858.864	22405
858.997	22462
859.13	22611
859.263	22637
859.396	22660
859.529	22485
859.662	22504
859.795	22531
859.928	22538
860.061	22744
860.194	22778
860.327	22557
860.46	22546
860.592	22698
860.725	22713
860.858	22675
860.99	22557
861.123	22474
861.256	22485
861.388	22466
861.521	23246
861.653	22413
861.786	22295
861.918	22333
862.05	22531
862.183	22527
862.315	22531
862.447	22577
862.58	22424
862.712	22280
862.844	22139
862.976	22280
863.108	22299
863.24	22580
863.372	22337
863.504	22333
863.636	22196
863.768	22265
863.9	22196
864.032	22101
864.164	22166
864.296	22291
864.428	22363
864.559	22352
864.691	22341
864.823	22272
864.954	22261
865.086	22158
865.217	22226
865.349	22185
865.48	22162
865.612	22067
865.743	22204
865.875	22211
866.006	22029
866.137	22101
866.269	22192
866.4	22002
866.531	22070
866.662	22013
866.793	21979
866.924	22048
867.055	21983
867.186	22055
867.317	21983
867.448	22074
867.579	21972
867.71	22029
867.841	21926
867.972	21979
868.103	22109
868.233	22124
868.364	22051
868.495	22318
868.625	22181
868.756	22462
868.886	22219
869.017	22341
869.147	22371
869.278	22413
869.408	22265
869.539	22215
869.669	22352
869.799	22352
869.929	22382
870.06	22405
870.19	22599
870.32	22542
870.45	22664
870.58	22683
870.71	22873
870.84	22816
870.97	22611
871.1	22531
871.23	22801
871.36	22892
871.489	22828
871.619	22843
871.749	22873
871.879	23025
872.008	23022
872.138	22923
872.267	22850
872.397	22843
872.526	22698
872.656	22736
872.785	22713
872.915	22866
873.044	23052
873.173	22771
873.303	22919
873.432	22919
873.561	22873
873.69	22927
873.819	22889
873.948	22892
874.077	22987
874.206	22881
874.335	22980
874.464	23010
874.593	23140
874.722	23025
874.851	23155
874.979	23071
875.108	23284
875.237	23025
875.365	23041
875.494	23143
875.623	23067
875.751	23060
875.88	23261
876.008	23277
876.136	23189
876.265	23417
876.393	23627
876.521	23691
876.65	23505
876.778	23577
876.906	23417
877.034	23406
877.162	23509
877.29	23520
877.418	23531
877.546	23387
877.674	23406
877.802	23364
877.93	23459
878.058	23520
878.185	23292
878.313	23448
878.441	23471
878.568	23364
878.696	23277
878.824	23478
878.951	23642
879.079	23676
879.206	23680
879.333	23543
879.461	23524
879.588	23592
879.715	23737
879.842	23699
879.97	23539
880.097	23330
880.224	23471
880.351	23383
880.478	23433
880.605	23197
880.732	23322
880.859	23592
880.986	23258
881.112	23353
881.239	23090
881.366	22984
881.493	22953
881.619	22744
881.746	22847
881.872	22824
881.999	22786
882.125	22835
882.252	22793
882.378	22828
882.505	22995
882.631	22672
882.757	22557
882.883	22649
883.01	22603
883.136	22337
883.262	22375
883.388	22318
883.514	22557
883.64	22466
883.766	22481
883.892	22249
884.018	22314
884.143	22291
884.269	22554
884.395	22299
884.52	22124
884.646	22249
884.772	22101
884.897	22162
885.023	22181
885.148	22238
885.274	22238
885.399	22249
885.524	22162
885.65	22261
885.775	22135
885.9	22185
886.025	22211
886.15	22230
886.275	22150
886.4	22139
886.525	22086
886.65	22090
886.775	21972
886.9	22154
887.025	22322
887.149	22090
887.274	21983
887.399	21945
887.523	21918
887.648	21812
887.773	21804
887.897	22010
888.021	21880
888.146	21857
888.27	22063
888.395	21953
888.519	21991
888.643	21884
888.767	21903
888.891	21709
889.015	21709
889.139	21641
889.263	21606
889.387	21736
889.511	21922
889.635	21759
889.759	21667
889.883	21686
890.006	21629
890.13	21656
890.254	21679
890.377	21682
890.501	21435
890.624	21450
890.748	21549
890.871	21279
890.995	21173
891.118	21268
891.241	21211
891.364	21306
891.488	21393
891.611	21211
891.734	21283
891.857	21245
891.98	21298
892.103	21237
892.226	21154
892.349	21268
892.471	20998
892.594	21184
892.717	21032
892.839	21123
892.962	21203
893.085	21321
893.207	21093
893.33	21077
893.452	21161
893.575	21112
893.697	21093
893.819	21283
893.941	21310
894.064	21310
894.186	21089
894.308	20982
894.43	21222
894.552	21363
894.674	21192
894.796	20929
894.918	21081
895.04	20979
895.161	21199
895.283	21123
895.405	21096
895.526	21043
895.648	21173
895.769	21138
895.891	21081
896.012	21188
896.134	21195
896.255	21135
896.376	21013
896.498	21230
896.619	21116
896.74	21089
896.861	21226
896.982	21420
897.103	21587
897.224	21462
897.345	21405
897.466	21294
897.587	21370
897.708	21439
897.828	21249
897.949	21252
898.07	21142
898.19	21272
898.311	21363
898.431	21424
898.552	21332
898.672	21420
898.792	21317
898.913	21245
899.033	21157
899.153	21230
899.273	20918
899.393	21043
899.513	21066
899.633	21142
899.753	21081
899.873	21074
899.993	21005
900.113	20967
900.232	21001
900.352	20941
900.472	20941
900.591	20849
900.711	20921
900.83	20773
900.95	20937
901.069	20880
901.189	20670
901.308	20389
901.427	20442
901.546	20434
901.665	20434
901.784	20347
901.904	20278
902.023	20164
902.141	20012
902.26	19955
902.379	20008
902.498	19944
902.617	19830
902.735	20043
902.854	19909
902.973	19826
903.091	19563
903.21	19548
903.328	19548
903.446	19316
903.565	19339
903.683	19453
903.801	19312
903.919	19266
904.038	19259
904.156	19183
904.274	19126
904.392	19008
904.51	19012
904.627	19084
904.745	19088
904.863	19133
904.981	18875
905.098	18753
905.216	18776
905.334	18806
905.451	18749
905.569	18650
905.686	18833
905.803	18650
905.921	18536
906.038	18696
906.155	18642
906.272	18452
906.389	18429
906.506	18323
906.623	18338
906.74	18346
906.857	18053
906.974	18258
907.091	18391
907.208	18334
907.324	18235
907.441	18148
907.557	17980
907.674	17901
907.79	17923
907.907	17961
908.023	18060
908.139	18053
908.256	17954
908.372	17863
908.488	17779
908.604	17741
908.72	17714
908.836	17764
908.952	17703
909.068	17718
909.184	17821
909.3	17714
909.415	17668
909.531	17767
909.647	17524
909.762	17493
909.878	17429
909.993	17436
910.108	17376
910.224	17265
910.339	17318
910.454	17212
910.57	17174
910.685	17204
910.8	17459
910.915	17349
911.03	17208
911.145	17041
911.259	17045
911.374	16984
911.489	16946
911.604	16869
911.718	16736
911.833	16782
911.947	16691
912.062	16527
912.176	16733
912.291	16786
912.405	16801
912.519	16854
912.633	16873
912.748	16740
912.862	16725
912.976	16577
913.09	16405
913.204	16481
913.318	16440
913.431	16554
913.545	16637
913.659	16531
913.772	16516
913.886	16329
914	16295
914.113	16398
914.226	16417
914.34	16379
914.453	16128
914.566	16284
914.68	16169
914.793	16219
914.906	16082
915.019	15888
915.132	15888
915.245	15816
915.358	15956
915.47	15835
915.583	15975
915.696	15854
915.809	15869
915.921	15983
916.034	15960
916.146	15728
916.259	15785
916.371	15888
916.483	15831
916.595	15637
916.708	15732
916.82	15701
916.932	15667
917.044	15690
917.156	15679
917.268	15591
917.38	15526
917.491	15412
917.603	15526
917.715	15610
917.826	15580
917.938	15420
918.049	15367
918.161	15488
918.272	15511
918.384	15591
918.495	15466
918.606	15214
918.717	15146
918.828	15268
918.939	15268
919.05	15055
919.161	15245
919.272	15055
919.383	15066
919.494	15199
919.604	15416
919.715	15249
919.826	15184
919.936	15195
920.047	15260
920.157	15138
920.267	15420
920.378	15317
920.488	15226
920.598	15321
920.708	15481
920.818	15272
920.928	15344
921.038	15488
921.148	15447
921.258	15176
921.368	15062
921.477	14979
921.587	14895
921.697	14796
921.806	14899
921.916	14720
922.025	14480
922.134	14590
922.244	14610
922.353	14636
922.462	14427
922.571	14301
922.68	14301
922.789	14240
922.898	14145
923.007	14081
923.116	14214
923.224	14172
923.333	14126
923.442	14069
923.55	14088
923.659	14096
923.767	14084
923.876	13951
923.984	14077
924.092	13917
924.201	13947
924.309	13993
924.417	13826
924.525	13860
924.633	13776
924.741	14739
924.849	13715
924.956	13750
925.064	13582
925.172	13506
925.279	13594
925.387	13636
925.494	13582
925.602	13651
925.709	13597
925.816	13480
925.924	13506
926.031	13556
926.138	13533
926.245	13571
926.352	13434
926.459	13605
926.566	13597
926.673	13381
926.779	13327
926.886	13251
926.993	13133
927.099	13099
927.206	13107
927.312	13091
927.419	13110
927.525	13126
927.631	13133
927.737	13027
927.843	13019
927.95	12844
928.056	12890
928.162	12932
928.267	12928
928.373	13636
928.479	13015
928.585	12757
928.69	12932
928.796	12901
928.901	12741
929.007	12639
929.112	12749
929.218	12730
929.323	12715
929.428	12593
929.533	12928
929.638	12559
929.743	12627
929.848	12589
929.953	12620
930.058	12464
930.163	12285
930.267	12353
930.372	12353
930.477	12262
930.581	12452
930.685	12445
930.79	12159
930.894	12213
930.998	12155
931.103	12292
931.207	11973
931.311	11939
931.415	11779
931.519	11512
931.623	11547
