Data from test_V78500241_1914.txt Node
Date: Fri Mar 25 15:55:03 CST 2022
User: usil
Spectrometer: V785-0024
Trigger mode: 0
Integration Time (sec): 4.000000E-1
Scans to average: 1
Nonlinearity correction enabled: false
Boxcar width: 0
Storing dark spectrum: false
XAxis mode: Wavelengths
Number of Pixels in Spectrum: 1024
>>>>>Begin Spectral Data<<<<<
801.071	28607
801.214	28531
801.356	28428
801.499	28394
801.641	28314
801.783	28131
801.926	28280
802.068	28162
802.211	28192
802.353	28025
802.496	28044
802.638	28040
802.78	27835
802.923	27823
803.065	27804
803.208	27873
803.35	27941
803.492	28070
803.635	28124
803.777	28093
803.919	28044
804.061	28466
804.204	28177
804.346	28074
804.488	28040
804.63	28086
804.773	27979
804.915	28177
805.057	28284
805.199	28261
805.341	28158
805.483	28409
805.626	28226
805.768	28196
805.91	28253
806.052	28310
806.194	28253
806.336	28493
806.478	28249
806.62	28276
806.762	28401
806.904	28531
807.046	28980
807.188	28653
807.33	28812
807.472	28850
807.614	28961
807.756	28702
807.898	28664
808.04	28649
808.182	28508
808.324	28622
808.465	28611
808.607	28854
808.749	28904
808.891	29029
809.033	29132
809.174	29159
809.316	28999
809.458	29140
809.6	29079
809.741	29060
809.883	29094
810.025	29337
810.166	29322
810.308	29337
810.45	29143
810.591	29231
810.733	29109
810.875	28930
811.016	28877
811.158	28831
811.299	29121
811.441	29117
811.582	29079
811.724	29090
811.865	28999
812.007	29006
812.148	28987
812.29	28976
812.431	29242
812.573	29345
812.714	29455
812.855	29554
812.997	29672
813.138	29764
813.279	29649
813.421	29585
813.562	29486
813.703	29410
813.845	29375
813.986	29022
814.127	28793
814.268	28828
814.41	28748
814.551	28900
814.692	28904
814.833	28630
814.974	28793
815.115	28786
815.256	28584
815.397	28672
815.539	28516
815.68	28577
815.821	28493
815.962	28611
816.103	28519
816.244	28284
816.385	28314
816.526	28261
816.666	28101
816.807	27987
816.948	28291
817.089	28051
817.23	28093
817.371	28029
817.512	28082
817.653	28078
817.793	27991
817.934	27945
818.075	27960
818.216	28017
818.356	28032
818.497	27945
818.638	27732
818.778	27793
818.919	27743
819.06	27918
819.2	28032
819.341	28044
819.481	28173
819.622	28112
819.762	28409
819.903	28409
820.043	28299
820.184	28280
820.324	28093
820.465	28181
820.605	28291
820.746	28207
820.886	28207
821.026	28169
821.167	28131
821.307	28166
821.447	28067
821.588	28036
821.728	27857
821.868	27766
822.008	27530
822.149	27576
822.289	27549
822.429	27275
822.569	27268
822.709	27207
822.849	27055
822.99	27131
823.13	26944
823.27	27096
823.41	26895
823.55	26716
823.69	26823
823.83	26940
823.97	26868
824.11	26556
824.25	26644
824.389	26773
824.529	26670
824.669	26731
824.809	26792
824.949	26804
825.089	26712
825.228	26697
825.368	26545
825.508	26617
825.648	26583
825.787	26545
825.927	26644
826.067	26507
826.206	26583
826.346	26564
826.485	26644
826.625	26568
826.765	26708
826.904	26731
827.044	26362
827.183	26259
827.323	26214
827.462	26256
827.601	26400
827.741	26153
827.88	26412
828.02	26267
828.159	26202
828.298	26195
828.437	26282
828.577	26286
828.716	26290
828.855	26183
828.994	26126
829.134	25978
829.273	25974
829.412	25883
829.551	25921
829.69	25947
829.829	26069
829.968	26035
830.107	25879
830.246	25864
830.385	25811
830.524	25894
830.663	25689
830.802	25712
830.941	25719
831.08	25582
831.219	25647
831.357	25613
831.496	25890
831.635	25575
831.774	25499
831.913	25400
832.051	25377
832.19	25411
832.329	25403
832.467	25152
832.606	25217
832.744	25232
832.883	25259
833.022	25346
833.16	25365
833.299	25255
833.437	25320
833.576	25255
833.714	25308
833.852	25297
833.991	25331
834.129	25476
834.267	25441
834.406	25388
834.544	25308
834.682	25403
834.821	25297
834.959	25422
835.097	25343
835.235	25312
835.373	25217
835.511	25308
835.65	25213
835.788	25183
835.926	25042
836.064	24954
836.202	24966
836.34	25069
836.478	25190
836.615	25023
836.753	25110
836.891	25213
837.029	25129
837.167	25076
837.305	25023
837.443	24894
837.58	25042
837.718	25031
837.856	24992
837.993	24958
838.131	24954
838.269	24871
838.406	24810
838.544	24776
838.681	24597
838.819	24585
838.956	24528
839.094	24426
839.231	24369
839.369	24563
839.506	24867
839.643	24486
839.781	24437
839.918	24395
840.055	24445
840.193	24426
840.33	24429
840.467	24338
840.604	24426
840.742	24623
840.879	24197
841.016	24380
841.153	24216
841.29	24452
841.427	24277
841.564	24445
841.701	24296
841.838	24232
841.975	24205
842.112	24197
842.249	24072
842.385	24034
842.522	24174
842.659	24232
842.796	24098
842.933	24083
843.069	23999
843.206	24011
843.343	24136
843.479	24129
843.616	24148
843.752	23923
843.889	23893
844.025	24018
844.162	23817
844.298	23904
844.435	23847
844.571	23885
844.708	23927
844.844	23942
844.98	24053
845.117	23847
845.253	23866
845.389	23703
845.525	23885
845.661	23589
845.798	23520
845.934	23764
846.07	23638
846.206	23490
846.342	23623
846.478	23600
846.614	23239
846.75	23303
846.886	23292
847.022	23398
847.158	23326
847.294	23315
847.429	23383
847.565	23341
847.701	23440
847.837	22972
847.972	22957
848.108	23197
848.244	23022
848.379	23048
848.515	22938
848.65	22889
848.786	22965
848.921	22812
849.057	23010
849.192	22957
849.328	23079
849.463	22972
849.598	22733
849.734	22843
849.869	22683
850.004	22542
850.14	22706
850.275	22759
850.41	22542
850.545	22713
850.68	22641
850.815	22656
850.95	22603
851.085	22908
851.22	22649
851.355	22645
851.49	22538
851.625	22626
851.76	22561
851.895	22577
852.03	22611
852.165	22679
852.299	22672
852.434	22702
852.569	22835
852.703	22687
852.838	22687
852.973	22820
853.107	22778
853.242	22664
853.376	22478
853.511	22314
853.645	22413
853.78	22455
853.914	22554
854.048	22409
854.183	22523
854.317	22504
854.451	22653
854.585	22424
854.72	22443
854.854	22550
854.988	22375
855.122	22478
855.256	22348
855.39	22390
855.524	22550
855.658	22504
855.792	22550
855.926	22504
856.06	22459
856.194	22641
856.327	22489
856.461	22413
856.595	22421
856.729	22493
856.862	22687
856.996	22432
857.13	22535
857.263	22580
857.397	22584
857.53	22417
857.664	22413
857.797	22557
857.931	22702
858.064	22538
858.197	22782
858.331	22554
858.464	22417
858.597	22382
858.731	22451
858.864	22459
858.997	22421
859.13	22451
859.263	22546
859.396	22649
859.529	22451
859.662	22421
859.795	22443
859.928	22485
860.061	22622
860.194	22691
860.327	22577
860.46	22554
860.592	22679
860.725	22580
860.858	22569
860.99	22367
861.123	22402
861.256	22379
861.388	22462
861.521	23349
861.653	22363
861.786	22363
861.918	22280
862.05	22352
862.183	22287
862.315	22519
862.447	22455
862.58	22344
862.712	22200
862.844	22044
862.976	22234
863.108	22265
863.24	22569
863.372	22101
863.504	22074
863.636	22135
863.768	22128
863.9	22318
864.032	22086
864.164	22169
864.296	22162
864.428	22223
864.559	22284
864.691	22272
864.823	22139
864.954	22128
865.086	22188
865.217	22059
865.349	22029
865.48	22006
865.612	22112
865.743	22139
865.875	22021
866.006	21930
866.137	21998
866.269	21979
866.4	21972
866.531	22032
866.662	21987
866.793	21998
866.924	22017
867.055	22051
867.186	22040
867.317	21899
867.448	21884
867.579	21918
867.71	21892
867.841	21899
867.972	21949
868.103	22010
868.233	22044
868.364	21979
868.495	22219
868.625	22169
868.756	22341
868.886	22188
869.017	22147
869.147	22204
869.278	22287
869.408	22207
869.539	22310
869.669	22337
869.799	22207
869.929	22306
870.06	22344
870.19	22538
870.32	22428
870.45	22535
870.58	22687
870.71	22786
870.84	22626
870.97	22535
871.1	22645
871.23	22816
871.36	22873
871.489	22672
871.619	22862
871.749	22885
871.879	22816
872.008	22881
872.138	22790
872.267	22934
872.397	22721
872.526	22710
872.656	22694
872.785	22679
872.915	22812
873.044	22942
873.173	22767
873.303	22862
873.432	22904
873.561	22866
873.69	22869
873.819	22946
873.948	22919
874.077	22968
874.206	22835
874.335	22740
874.464	22850
874.593	23014
874.722	23033
874.851	23075
874.979	23128
875.108	23048
875.237	22987
875.365	23048
875.494	23029
875.623	23197
875.751	22900
875.88	23071
876.008	23128
876.136	23242
876.265	23444
876.393	23520
876.521	23429
876.65	23482
876.778	23463
876.906	23398
877.034	23368
877.162	23341
877.29	23345
877.418	23486
877.546	23341
877.674	23406
877.802	23379
877.93	23364
878.058	23345
878.185	23242
878.313	23318
878.441	23379
878.568	23143
878.696	23406
878.824	23391
878.951	23444
879.079	23657
879.206	23684
879.333	23467
879.461	23452
879.588	23448
879.715	23619
879.842	23668
879.97	23410
880.097	23277
880.224	23212
880.351	23364
880.478	23250
880.605	23159
880.732	23239
880.859	23414
880.986	23223
881.112	23181
881.239	23014
881.366	22797
881.493	22850
881.619	22755
881.746	22797
881.872	22790
881.999	22736
882.125	22664
882.252	22790
882.378	22862
882.505	22793
882.631	22664
882.757	22523
882.883	22455
883.01	22538
883.136	22519
883.262	22246
883.388	22230
883.514	22432
883.64	22508
883.766	22352
883.892	22253
884.018	22257
884.143	22375
884.269	22436
884.395	22120
884.52	22044
884.646	22074
884.772	22025
884.897	21960
885.023	22063
885.148	22120
885.274	22112
885.399	22238
885.524	22128
885.65	22196
885.775	22036
885.9	22059
886.025	22173
886.15	22196
886.275	22055
886.4	22025
886.525	22025
886.65	21888
886.775	21987
886.9	22082
887.025	22249
887.149	22002
887.274	21888
887.399	21827
887.523	21869
887.648	21808
887.773	21743
887.897	21911
888.021	21915
888.146	21694
888.27	21956
888.395	21945
888.519	21838
888.643	21838
888.767	21812
888.891	21720
889.015	21728
889.139	21762
889.263	21610
889.387	21686
889.511	21812
889.635	21709
889.759	21667
889.883	21606
890.006	21595
890.13	21736
890.254	21523
890.377	21511
890.501	21363
890.624	21401
890.748	21458
890.871	21268
890.995	21085
891.118	21245
891.241	21150
891.364	21070
891.488	21408
891.611	21230
891.734	21127
891.857	21283
891.98	21066
892.103	21173
892.226	21032
892.349	21161
892.471	21058
892.594	21119
892.717	21119
892.839	21043
892.962	21062
893.085	21176
893.207	21066
893.33	21005
893.452	20933
893.575	21165
893.697	21032
893.819	21100
893.941	21214
894.064	21184
894.186	21013
894.308	20990
894.43	21058
894.552	21207
894.674	21058
894.796	20937
894.918	20990
895.04	20963
895.161	21055
895.283	21028
895.405	20975
895.526	21001
895.648	21058
895.769	20891
895.891	20967
896.012	21074
896.134	21066
896.255	21043
896.376	20921
896.498	21043
896.619	21146
896.74	21218
896.861	21028
896.982	21287
897.103	21507
897.224	21252
897.345	21218
897.466	21165
897.587	21298
897.708	21222
897.828	21207
897.949	21195
898.07	21214
898.19	21043
898.311	21355
898.431	21260
898.552	21256
898.672	21302
898.792	21294
898.913	21370
899.033	21047
899.153	21070
899.273	20990
899.393	21017
899.513	20990
899.633	20990
899.753	21005
899.873	20842
899.993	21013
900.113	20975
900.232	20910
900.352	20788
900.472	21020
900.591	20670
900.711	20826
900.83	20663
900.95	20777
901.069	20746
901.189	20575
901.308	20438
901.427	20324
901.546	20404
901.665	20351
901.784	20301
901.904	20119
902.023	19986
902.141	19887
902.26	19852
902.379	19932
902.498	19765
902.617	19814
902.735	19776
902.854	19860
902.973	19734
903.091	19540
903.21	19430
903.328	19472
903.446	19343
903.565	19289
903.683	19297
903.801	19122
903.919	19259
904.038	19225
904.156	19012
904.274	19027
904.392	19027
904.51	18993
904.627	19042
904.745	19061
904.863	19042
904.981	18783
905.098	18749
905.216	18726
905.334	18776
905.451	18741
905.569	18608
905.686	18768
905.803	18639
905.921	18448
906.038	18616
906.155	18479
906.272	18330
906.389	18380
906.506	18190
906.623	18235
906.74	18190
906.857	18114
906.974	18144
907.091	18148
907.208	18357
907.324	18342
907.441	18190
907.557	17874
907.674	17954
907.79	17897
907.907	17916
908.023	17977
908.139	17897
908.256	17939
908.372	17832
908.488	17745
908.604	17752
908.72	17600
908.836	17710
908.952	17573
909.068	17684
909.184	17649
909.3	17596
909.415	17581
909.531	17558
909.647	17406
909.762	17395
909.878	17395
909.993	17273
910.108	17345
910.224	17280
910.339	17349
910.454	17162
910.57	17094
910.685	17075
910.8	17391
910.915	17227
911.03	17117
911.145	16873
911.259	16934
911.374	16946
911.489	16927
911.604	16816
911.718	16733
911.833	16656
911.947	16664
912.062	16538
912.176	16687
912.291	16698
912.405	16649
912.519	16767
912.633	16805
912.748	16687
912.862	16637
912.976	16459
913.09	16299
913.204	16398
913.318	16382
913.431	16561
913.545	16470
913.659	16596
913.772	16394
913.886	16291
914	16230
914.113	16314
914.226	16295
914.34	16375
914.453	16181
914.566	16310
914.68	16109
914.793	16112
914.906	15895
915.019	15793
915.132	15930
915.245	15789
915.358	15827
915.47	15781
915.583	15857
915.696	15892
915.809	15956
915.921	15922
916.034	15819
916.146	15793
916.259	15720
916.371	15842
916.483	15751
916.595	15671
916.708	15762
916.82	15679
916.932	15625
917.044	15557
917.156	15572
917.268	15428
917.38	15511
917.491	15428
917.603	15500
917.715	15519
917.826	15591
917.938	15325
918.049	15283
918.161	15454
918.272	15435
918.384	15591
918.495	15374
918.606	15207
918.717	15131
918.828	15195
918.939	15241
919.05	15306
919.161	15192
919.272	15009
919.383	15001
919.494	15184
919.604	15416
919.715	15138
919.826	15058
919.936	15157
920.047	15317
920.157	15127
920.267	15268
920.378	15192
920.488	15077
920.598	15222
920.708	15431
920.818	15317
920.928	15298
921.038	15458
921.148	15355
921.258	15077
921.368	15039
921.477	14883
921.587	14933
921.697	14693
921.806	14933
921.916	14796
922.025	14670
922.134	14492
922.244	14347
922.353	14606
922.462	14370
922.571	14347
922.68	14142
922.789	14172
922.898	14298
923.007	14153
923.116	14123
923.224	14081
923.333	14149
923.442	14020
923.55	13959
923.659	14027
923.767	13989
923.876	13925
923.984	13947
924.092	13803
924.201	13906
924.309	13921
924.417	13925
924.525	13765
924.633	13852
924.741	14693
924.849	13601
924.956	13655
925.064	13613
925.172	13506
925.279	13563
925.387	13647
925.494	13495
925.602	13719
925.709	13616
925.816	13441
925.924	13460
926.031	13639
926.138	13480
926.245	13529
926.352	13312
926.459	13521
926.566	13495
926.673	13339
926.779	13251
926.886	13206
926.993	13050
927.099	13118
927.206	13012
927.312	13061
927.419	13175
927.525	13012
927.631	13099
927.737	13065
927.843	12989
927.95	12738
928.056	12909
928.162	12871
928.267	12928
928.373	13476
928.479	12894
928.585	12719
928.69	12825
928.796	12840
928.901	12745
929.007	12658
929.112	12734
929.218	12677
929.323	12662
929.428	12570
929.533	12700
929.638	12601
929.743	12517
929.848	12623
929.953	12551
930.058	12467
930.163	12289
930.267	12391
930.372	12502
930.477	12273
930.581	12445
930.685	12346
930.79	12182
930.894	12277
930.998	12098
931.103	12220
931.207	11897
931.311	11764
931.415	11703
931.519	11512
931.623	11501
