Data from test_V78500241_3523.txt Node
Date: Fri Mar 25 16:06:12 CST 2022
User: usil
Spectrometer: V785-0024
Trigger mode: 0
Integration Time (sec): 4.000000E-1
Scans to average: 1
Nonlinearity correction enabled: false
Boxcar width: 0
Storing dark spectrum: false
XAxis mode: Wavelengths
Number of Pixels in Spectrum: 1024
>>>>>Begin Spectral Data<<<<<
801.071	29003
801.214	28885
801.356	28569
801.499	28668
801.641	28557
801.783	28440
801.926	28527
802.068	28535
802.211	28481
802.353	28405
802.496	28333
802.638	28382
802.78	28306
802.923	28139
803.065	28105
803.208	28192
803.35	28325
803.492	28371
803.635	28440
803.777	28398
803.919	28466
804.061	28782
804.204	28512
804.346	28497
804.488	28280
804.63	28554
804.773	28428
804.915	28615
805.057	28592
805.199	28462
805.341	28641
805.483	28778
805.626	28634
805.768	28481
805.91	28675
806.052	28634
806.194	28561
806.336	28733
806.478	28653
806.62	28618
806.762	28740
806.904	28930
807.046	29246
807.188	29075
807.33	29140
807.472	29299
807.614	29048
807.756	29037
807.898	28946
808.04	28900
808.182	28767
808.324	28961
808.465	29086
808.607	29223
808.749	29474
808.891	29608
809.033	29570
809.174	29433
809.316	29292
809.458	29471
809.6	29299
809.741	29406
809.883	29573
810.025	29684
810.166	29752
810.308	29684
810.45	29562
810.591	29585
810.733	29330
810.875	29387
811.016	29512
811.158	29220
811.299	29493
811.441	29638
811.582	29512
811.724	29383
811.865	29436
812.007	29402
812.148	29592
812.29	29387
812.431	29600
812.573	29843
812.714	29870
812.855	29878
812.997	30026
813.138	30152
813.279	29988
813.421	29984
813.562	29954
813.703	29726
813.845	29608
813.986	29277
814.127	29220
814.268	29098
814.41	29200
814.551	29052
814.692	29311
814.833	29200
814.974	28991
815.115	29204
815.256	28987
815.397	28831
815.539	28805
815.68	28961
815.821	28866
815.962	28957
816.103	28858
816.244	28717
816.385	28683
816.526	28706
816.666	28603
816.807	28421
816.948	28538
817.089	28512
817.23	28443
817.371	28386
817.512	28386
817.653	28371
817.793	28318
817.934	28519
818.075	28478
818.216	28428
818.356	28508
818.497	28428
818.638	28246
818.778	28166
818.919	28356
819.06	28360
819.2	28295
819.341	28455
819.481	28504
819.622	28584
819.762	28885
819.903	28831
820.043	28554
820.184	28523
820.324	28516
820.465	28557
820.605	28538
820.746	28527
820.886	28466
821.026	28500
821.167	28462
821.307	28504
821.447	28561
821.588	28303
821.728	28188
821.868	28166
822.008	27903
822.149	27835
822.289	27876
822.429	27671
822.569	27622
822.709	27583
822.849	27462
822.99	27435
823.13	27412
823.27	27466
823.41	27260
823.55	27249
823.69	27359
823.83	27252
823.97	27241
824.11	27123
824.25	27066
824.389	27085
824.529	27081
824.669	27009
824.809	27218
824.949	27123
825.089	27173
825.228	27135
825.368	26868
825.508	26914
825.648	26929
825.787	27039
825.927	26929
826.067	26963
826.206	26971
826.346	26887
826.485	27096
826.625	26948
826.765	27131
826.904	26994
827.044	26705
827.183	26621
827.323	26648
827.462	26762
827.601	26663
827.741	26693
827.88	26727
828.02	26636
828.159	26609
828.298	26701
828.437	26758
828.577	26598
828.716	26876
828.855	26773
828.994	26301
829.134	26286
829.273	26419
829.412	26393
829.551	26301
829.69	26434
829.829	26381
829.968	26377
830.107	26366
830.246	26355
830.385	26404
830.524	26240
830.663	26183
830.802	26077
830.941	26020
831.08	25894
831.219	26062
831.357	26130
831.496	26240
831.635	25944
831.774	25913
831.913	25986
832.051	25746
832.19	25921
832.329	25830
832.467	25742
832.606	25624
832.744	25575
832.883	25613
833.022	25552
833.16	25552
833.299	25826
833.437	25681
833.576	25852
833.714	25723
833.852	25830
833.991	25647
834.129	25761
834.267	25723
834.406	25833
834.544	25689
834.682	25712
834.821	25772
834.959	25917
835.097	25765
835.235	25791
835.373	25616
835.511	25753
835.65	25506
835.788	25521
835.926	25365
836.064	25251
836.202	25438
836.34	25552
836.478	25552
836.615	25407
836.753	25491
836.891	25635
837.029	25620
837.167	25624
837.305	25468
837.443	25426
837.58	25445
837.718	25438
837.856	25312
837.993	25350
838.131	25339
838.269	25171
838.406	25304
838.544	25141
838.681	25118
838.819	25000
838.956	24992
839.094	24753
839.231	24795
839.369	25050
839.506	25221
839.643	25175
839.781	24867
839.918	24734
840.055	24894
840.193	24821
840.33	24681
840.467	24711
840.604	24753
840.742	25061
840.879	24669
841.016	24715
841.153	24669
841.29	24848
841.427	24840
841.564	24722
841.701	24738
841.838	24650
841.975	24540
842.112	24692
842.249	24521
842.385	24620
842.522	24677
842.659	24540
842.796	24471
842.933	24528
843.069	24475
843.206	24372
843.343	24532
843.479	24490
843.616	24612
843.752	24319
843.889	24205
844.025	24346
844.162	24285
844.298	24365
844.435	24270
844.571	24228
844.708	24338
844.844	24384
844.98	24380
845.117	24338
845.253	24258
845.389	24178
845.525	24064
845.661	24041
845.798	23996
845.934	23984
846.07	24053
846.206	23961
846.342	24102
846.478	23996
846.614	23775
846.75	23596
846.886	23691
847.022	23786
847.158	23676
847.294	23676
847.429	23748
847.565	23718
847.701	23939
847.837	23444
847.972	23383
848.108	23505
848.244	23493
848.379	23273
848.515	23239
848.65	23204
848.786	23372
848.921	23292
849.057	23444
849.192	23345
849.328	23341
849.463	23356
849.598	23254
849.734	23212
849.869	23170
850.004	23033
850.14	23117
850.275	23010
850.41	22991
850.545	23162
850.68	22957
850.815	23029
850.95	23117
851.085	23288
851.22	23197
851.355	23048
851.49	23052
851.625	23086
851.76	23170
851.895	23010
852.03	23102
852.165	23003
852.299	23086
852.434	23105
852.569	23037
852.703	22949
852.838	23174
852.973	23208
853.107	23185
853.242	22972
853.376	22790
853.511	22828
853.645	22869
853.78	23090
853.914	22949
854.048	22866
854.183	22923
854.317	23006
854.451	23006
854.585	23006
854.72	22835
854.854	22953
854.988	22835
855.122	23025
855.256	22793
855.39	22862
855.524	23022
855.658	23025
855.792	22908
855.926	22797
856.06	22923
856.194	22930
856.327	22843
856.461	22873
856.595	22866
856.729	22877
856.862	22987
856.996	22892
857.13	22938
857.263	23044
857.397	23109
857.53	22797
857.664	22889
857.797	23033
857.931	22919
858.064	22850
858.197	23071
858.331	22892
858.464	22782
858.597	22717
858.731	22763
858.864	22759
858.997	22892
859.13	22927
859.263	22896
859.396	22980
859.529	22908
859.662	22869
859.795	22892
859.928	22968
860.061	23029
860.194	23079
860.327	22877
860.46	22809
860.592	22957
860.725	23006
860.858	22991
860.99	22999
861.123	22805
861.256	22809
861.388	22889
861.521	23516
861.653	22626
861.786	22664
861.918	22763
862.05	22828
862.183	22782
862.315	22877
862.447	22752
862.58	22790
862.712	22508
862.844	22538
862.976	22577
863.108	22679
863.24	22866
863.372	22615
863.504	22607
863.636	22641
863.768	22580
863.9	22580
864.032	22500
864.164	22577
864.296	22565
864.428	22717
864.559	22577
864.691	22557
864.823	22592
864.954	22478
865.086	22573
865.217	22405
865.349	22306
865.48	22538
865.612	22371
865.743	22565
865.875	22538
866.006	22398
866.137	22291
866.269	22443
866.4	22348
866.531	22424
866.662	22314
866.793	22367
866.924	22295
867.055	22356
867.186	22481
867.317	22185
867.448	22211
867.579	22367
867.71	22352
867.841	22322
867.972	22455
868.103	22341
868.233	22375
868.364	22356
868.495	22531
868.625	22577
868.756	22694
868.886	22573
869.017	22721
869.147	22748
869.278	22744
869.408	22630
869.539	22611
869.669	22660
869.799	22588
869.929	22694
870.06	22710
870.19	22984
870.32	22984
870.45	22866
870.58	22942
870.71	23124
870.84	23113
870.97	23033
871.1	23132
871.23	23155
871.36	23208
871.489	23041
871.619	23117
871.749	22999
871.879	23178
872.008	23383
872.138	23254
872.267	23303
872.397	23086
872.526	23052
872.656	23098
872.785	23075
872.915	23174
873.044	23197
873.173	23258
873.303	23128
873.432	23193
873.561	23254
873.69	23155
873.819	23242
873.948	23311
874.077	23368
874.206	23212
874.335	23277
874.464	23292
874.593	23474
874.722	23261
874.851	23596
874.979	23444
875.108	23505
875.237	23440
875.365	23433
875.494	23455
875.623	23493
875.751	23440
875.88	23490
876.008	23596
876.136	23551
876.265	23802
876.393	23996
876.521	23790
876.65	23847
876.778	23836
876.906	23756
877.034	23836
877.162	23863
877.29	23676
877.418	23729
877.546	23866
877.674	23847
877.802	23847
877.93	23783
878.058	23691
878.185	23566
878.313	23756
878.441	23783
878.568	23592
878.696	23668
878.824	23722
878.951	23794
879.079	23901
879.206	24011
879.333	23965
879.461	23775
879.588	23923
879.715	23843
879.842	24003
879.97	23680
880.097	23592
880.224	23604
880.351	23627
880.478	23528
880.605	23531
880.732	23642
880.859	23775
880.986	23589
881.112	23509
881.239	23497
881.366	23406
881.493	23315
881.619	23181
881.746	23212
881.872	23102
881.999	23147
882.125	23147
882.252	23105
882.378	23071
882.505	23105
882.631	23056
882.757	22953
882.883	22858
883.01	22850
883.136	22793
883.262	22744
883.388	22626
883.514	22877
883.64	22850
883.766	22710
883.892	22584
884.018	22546
884.143	22653
884.269	22858
884.395	22519
884.52	22550
884.646	22405
884.772	22402
884.897	22276
885.023	22546
885.148	22508
885.274	22546
885.399	22584
885.524	22417
885.65	22500
885.775	22481
885.9	22348
886.025	22561
886.15	22466
886.275	22287
886.4	22360
886.525	22459
886.65	22333
886.775	22386
886.9	22554
887.025	22542
887.149	22462
887.274	22257
887.399	22242
887.523	22166
887.648	22128
887.773	22097
887.897	22280
888.021	22261
888.146	22158
888.27	22360
888.395	22242
888.519	22341
888.643	22207
888.767	22242
888.891	22105
889.015	21968
889.139	22021
889.263	21994
889.387	22135
889.511	22268
889.635	22185
889.759	21998
889.883	22044
890.006	22101
890.13	22025
890.254	21953
890.377	21857
890.501	21755
890.624	21709
890.748	21968
890.871	21519
890.995	21542
891.118	21500
891.241	21572
891.364	21568
891.488	21652
891.611	21622
891.734	21523
891.857	21549
891.98	21515
892.103	21553
892.226	21583
892.349	21507
892.471	21401
892.594	21458
892.717	21469
892.839	21336
892.962	21420
893.085	21424
893.207	21408
893.33	21291
893.452	21389
893.575	21336
893.697	21443
893.819	21591
893.941	21686
894.064	21481
894.186	21397
894.308	21211
894.43	21397
894.552	21500
894.674	21538
894.796	21359
894.918	21367
895.04	21424
895.161	21412
895.283	21302
895.405	21272
895.526	21428
895.648	21378
895.769	21359
895.891	21393
896.012	21523
896.134	21447
896.255	21424
896.376	21393
896.498	21382
896.619	21382
896.74	21355
896.861	21412
896.982	21713
897.103	21922
897.224	21660
897.345	21580
897.466	21511
897.587	21637
897.708	21637
897.828	21610
897.949	21618
898.07	21370
898.19	21454
898.311	21599
898.431	21561
898.552	21492
898.672	21572
898.792	21564
898.913	21606
899.033	21306
899.153	21275
899.273	21264
899.393	21294
899.513	21378
899.633	21233
899.753	21317
899.873	21131
899.993	21283
900.113	21268
900.232	21283
900.352	21081
900.472	21154
900.591	21074
900.711	21043
900.83	21005
900.95	21142
901.069	21237
901.189	20982
901.308	20708
901.427	20648
901.546	20663
901.665	20667
901.784	20598
901.904	20533
902.023	20446
902.141	20119
902.26	20161
902.379	20221
902.498	20176
902.617	20100
902.735	20122
902.854	20187
902.973	20058
903.091	19818
903.21	19788
903.328	19784
903.446	19651
903.565	19578
903.683	19635
903.801	19506
903.919	19537
904.038	19552
904.156	19346
904.274	19483
904.392	19301
904.51	19289
904.627	19339
904.745	19350
904.863	19388
904.981	19152
905.098	19129
905.216	18954
905.334	18989
905.451	19061
905.569	18985
905.686	18935
905.803	18970
905.921	18863
906.038	18856
906.155	18684
906.272	18779
906.389	18608
906.506	18616
906.623	18574
906.74	18585
906.857	18479
906.974	18426
907.091	18498
907.208	18612
907.324	18547
907.441	18418
907.557	18266
907.674	18266
907.79	18163
907.907	18209
908.023	18327
908.139	18152
908.256	18167
908.372	18125
908.488	18072
908.604	18026
908.72	18011
908.836	17927
908.952	17904
909.068	18019
909.184	18038
909.3	17912
909.415	17992
909.531	17771
909.647	17710
909.762	17642
909.878	17608
909.993	17672
910.108	17661
910.224	17638
910.339	17596
910.454	17482
910.57	17474
910.685	17315
910.8	17581
910.915	17528
911.03	17463
911.145	17242
911.259	17166
911.374	17204
911.489	17181
911.604	17174
911.718	17010
911.833	16991
911.947	16919
912.062	16767
912.176	16999
912.291	16968
912.405	16885
912.519	17189
912.633	17197
912.748	16968
912.862	16972
912.976	16809
913.09	16664
913.204	16645
913.318	16771
913.431	16854
913.545	16790
913.659	16889
913.772	16683
913.886	16550
914	16550
914.113	16603
914.226	16664
914.34	16584
914.453	16417
914.566	16626
914.68	16413
914.793	16432
914.906	16154
915.019	16097
915.132	16002
915.245	16078
915.358	16128
915.47	16109
915.583	16124
915.696	16158
915.809	16181
915.921	16188
916.034	16036
916.146	15907
916.259	16063
916.371	16063
916.483	16082
916.595	15865
916.708	15888
916.82	15876
916.932	15759
917.044	15846
917.156	15747
917.268	15698
917.38	15766
917.491	15724
917.603	15759
917.715	15739
917.826	15679
917.938	15713
918.049	15496
918.161	15705
918.272	15861
918.384	15789
918.495	15614
918.606	15576
918.717	15389
918.828	15538
918.939	15466
919.05	15374
919.161	15424
919.272	15180
919.383	15294
919.494	15469
919.604	15675
919.715	15469
919.826	15298
919.936	15389
920.047	15477
920.157	15462
920.267	15637
920.378	15454
920.488	15420
920.598	15534
920.708	15667
920.818	15584
920.928	15500
921.038	15660
921.148	15545
921.258	15302
921.368	15245
921.477	15036
921.587	15112
921.697	14937
921.806	15195
921.916	14963
922.025	14834
922.134	14746
922.244	14727
922.353	14777
922.462	14640
922.571	14518
922.68	14438
922.789	14457
922.898	14461
923.007	14351
923.116	14446
923.224	14336
923.333	14393
923.442	14275
923.55	14043
923.659	14256
923.767	14351
923.876	14107
923.984	14237
924.092	14145
924.201	14126
924.309	14142
924.417	14088
924.525	14046
924.633	13970
924.741	14975
924.849	13799
924.956	14020
925.064	13875
925.172	13639
925.279	13811
925.387	13807
925.494	13658
925.602	13795
925.709	13830
925.816	13708
925.924	13803
926.031	13811
926.138	13704
926.245	13677
926.352	13609
926.459	13765
926.566	13700
926.673	13655
926.779	13453
926.886	13441
926.993	13324
927.099	13335
927.206	13289
927.312	13190
927.419	13373
927.525	13396
927.631	13335
927.737	13240
927.843	13091
927.95	12962
928.056	13012
928.162	13031
928.267	13240
928.373	13795
928.479	13107
928.585	12970
928.69	13034
928.796	13091
928.901	12916
929.007	12890
929.112	13008
929.218	12966
929.323	12821
929.428	12787
929.533	12932
929.638	12791
929.743	12749
929.848	12810
929.953	12776
930.058	12616
930.163	12509
930.267	12544
930.372	12639
930.477	12448
930.581	12669
930.685	12563
930.79	12422
930.894	12391
930.998	12372
931.103	12525
931.207	12140
931.311	12011
931.415	11965
931.519	11684
931.623	11672
