Data from test_V78500241_524.txt Node
Date: Fri Mar 25 15:45:25 CST 2022
User: usil
Spectrometer: V785-0024
Trigger mode: 0
Integration Time (sec): 4.000000E-1
Scans to average: 1
Nonlinearity correction enabled: false
Boxcar width: 0
Storing dark spectrum: false
XAxis mode: Wavelengths
Number of Pixels in Spectrum: 1024
>>>>>Begin Spectral Data<<<<<
801.071	27861
801.214	27854
801.356	27770
801.499	27587
801.641	27462
801.783	27519
801.926	27488
802.068	27462
802.211	27500
802.353	27340
802.496	27096
802.638	27161
802.78	27230
802.923	27070
803.065	26998
803.208	27135
803.35	27207
803.492	27264
803.635	27310
803.777	27184
803.919	27389
804.061	27576
804.204	27260
804.346	27249
804.488	27363
804.63	27188
804.773	27180
804.915	27336
805.057	27412
805.199	27405
805.341	27408
805.483	27427
805.626	27435
805.768	27359
805.91	27317
806.052	27336
806.194	27439
806.336	27519
806.478	27374
806.62	27336
806.762	27405
806.904	27682
807.046	27869
807.188	27781
807.33	27838
807.472	27842
807.614	27732
807.756	27766
807.898	27576
808.04	27557
808.182	27622
808.324	27793
808.465	27671
808.607	27800
808.749	28029
808.891	28211
809.033	28169
809.174	28204
809.316	28032
809.458	28135
809.6	28036
809.741	28238
809.883	28181
810.025	28497
810.166	28329
810.308	28519
810.45	28299
810.591	28329
810.733	28105
810.875	28063
811.016	27926
811.158	27987
811.299	28139
811.441	28291
811.582	28219
811.724	28086
811.865	27861
812.007	27926
812.148	28002
812.29	28021
812.431	28097
812.573	28462
812.714	28580
812.855	28706
812.997	28694
813.138	28763
813.279	28679
813.421	28702
813.562	28538
813.703	28401
813.845	28230
813.986	28032
814.127	27774
814.268	27770
814.41	27778
814.551	27682
814.692	27701
814.833	27778
814.974	27705
815.115	27759
815.256	27549
815.397	27644
815.539	27690
815.68	27564
815.821	27450
815.962	27542
816.103	27473
816.244	27450
816.385	27321
816.526	27260
816.666	27306
816.807	26902
816.948	27032
817.089	27051
817.23	27077
817.371	26940
817.512	26944
817.653	27001
817.793	26876
817.934	27009
818.075	27058
818.216	26994
818.356	27074
818.497	26929
818.638	26678
818.778	26781
818.919	26712
819.06	26689
819.2	26872
819.341	26880
819.481	26861
819.622	27230
819.762	27393
819.903	27184
820.043	27218
820.184	27104
820.324	27131
820.465	27222
820.605	27100
820.746	27062
820.886	26872
821.026	27066
821.167	27062
821.307	27104
821.447	27066
821.588	26880
821.728	26845
821.868	26746
822.008	26651
822.149	26389
822.289	26598
822.429	26176
822.569	26358
822.709	26229
822.849	25944
822.99	25909
823.13	25955
823.27	26005
823.41	25921
823.55	25761
823.69	25647
823.83	25746
823.97	25719
824.11	25620
824.25	25540
824.389	25632
824.529	25647
824.669	25681
824.809	25776
824.949	25715
825.089	25811
825.228	25643
825.368	25476
825.508	25529
825.648	25502
825.787	25518
825.927	25518
826.067	25384
826.206	25381
826.346	25571
826.485	25529
826.625	25400
826.765	25529
826.904	25487
827.044	25278
827.183	25145
827.323	25129
827.462	25274
827.601	25053
827.741	25206
827.88	25225
828.02	25088
828.159	25160
828.298	25198
828.437	25225
828.577	25168
828.716	25274
828.855	25107
828.994	24897
829.134	24913
829.273	24894
829.412	24856
829.551	24878
829.69	24977
829.829	25034
829.968	24837
830.107	25015
830.246	25000
830.385	24738
830.524	24848
830.663	24665
830.802	24681
830.941	24384
831.08	24327
831.219	24597
831.357	24620
831.496	24802
831.635	24521
831.774	24330
831.913	24418
832.051	24372
832.19	24194
832.329	24254
832.467	24129
832.606	24277
832.744	24136
832.883	24114
833.022	24171
833.16	24163
833.299	24262
833.437	24232
833.576	24133
833.714	24239
833.852	24346
833.991	24441
834.129	24365
834.267	24319
834.406	24247
834.544	24433
834.682	24251
834.821	24167
834.959	24369
835.097	24060
835.235	24247
835.373	24194
835.511	24144
835.65	24087
835.788	24007
835.926	23954
836.064	23889
836.202	23904
836.34	24057
836.478	24140
836.615	24038
836.753	23992
836.891	24038
837.029	24068
837.167	24060
837.305	24026
837.443	23885
837.58	23790
837.718	24030
837.856	23935
837.993	23866
838.131	23847
838.269	23874
838.406	23745
838.544	23668
838.681	23619
838.819	23391
838.956	23246
839.094	23414
839.231	23531
839.369	23440
839.506	23802
839.643	23585
839.781	23383
839.918	23292
840.055	23292
840.193	23288
840.33	23364
840.467	23326
840.604	23364
840.742	23589
840.879	23143
841.016	23204
841.153	23235
841.29	23482
841.427	23254
841.564	23200
841.701	23220
841.838	23330
841.975	23147
842.112	23170
842.249	23155
842.385	23033
842.522	23311
842.659	23159
842.796	23067
842.933	23086
843.069	23064
843.206	23041
843.343	22930
843.479	22877
843.616	23006
843.752	22755
843.889	22881
844.025	23037
844.162	22748
844.298	22805
844.435	22805
844.571	22698
844.708	22816
844.844	22938
844.98	22957
845.117	22957
845.253	22809
845.389	22645
845.525	22672
845.661	22656
845.798	22512
845.934	22596
846.07	22535
846.206	22596
846.342	22626
846.478	22409
846.614	22287
846.75	22226
846.886	22306
847.022	22284
847.158	22295
847.294	22268
847.429	22291
847.565	22299
847.701	22424
847.837	22006
847.972	21945
848.108	22044
848.244	22059
848.379	21865
848.515	21983
848.65	21895
848.786	21953
848.921	21934
849.057	21911
849.192	21975
849.328	21922
849.463	21812
849.598	21755
849.734	21759
849.869	21637
850.004	21549
850.14	21717
850.275	21610
850.41	21587
850.545	21641
850.68	21485
850.815	21561
850.95	21610
851.085	21823
851.22	21778
851.355	21629
851.49	21610
851.625	21606
851.76	21667
851.895	21534
852.03	21500
852.165	21633
852.299	21644
852.434	21682
852.569	21591
852.703	21599
852.838	21682
852.973	21789
853.107	21857
853.242	21511
853.376	21454
853.511	21477
853.645	21428
853.78	21553
853.914	21515
854.048	21378
854.183	21454
854.317	21454
854.451	21606
854.585	21447
854.72	21443
854.854	21542
854.988	21363
855.122	21545
855.256	21374
855.39	21336
855.524	21481
855.658	21496
855.792	21500
855.926	21519
856.06	21473
856.194	21625
856.327	21359
856.461	21344
856.595	21317
856.729	21519
856.862	21656
856.996	21538
857.13	21488
857.263	21519
857.397	21530
857.53	21370
857.664	21515
857.797	21477
857.931	21523
858.064	21629
858.197	21557
858.331	21428
858.464	21530
858.597	21336
858.731	21466
858.864	21492
858.997	21401
859.13	21393
859.263	21488
859.396	21462
859.529	21382
859.662	21348
859.795	21268
859.928	21428
860.061	21564
860.194	21622
860.327	21504
860.46	21431
860.592	21557
860.725	21591
860.858	21545
860.99	21344
861.123	21310
861.256	21393
861.388	21485
861.521	22032
861.653	21325
861.786	21332
861.918	21348
862.05	21310
862.183	21332
862.315	21275
862.447	21504
862.58	21317
862.712	21074
862.844	21203
862.976	21188
863.108	21218
863.24	21576
863.372	21154
863.504	21180
863.636	21020
863.768	21241
863.9	21138
864.032	21062
864.164	21085
864.296	21264
864.428	21268
864.559	21283
864.691	21150
864.823	21195
864.954	21123
865.086	21077
865.217	20971
865.349	21036
865.48	21157
865.612	20963
865.743	21214
865.875	21127
866.006	21119
866.137	21020
866.269	21157
866.4	21070
866.531	20979
866.662	20998
866.793	21001
866.924	21043
867.055	21024
867.186	21005
867.317	20918
867.448	20842
867.579	20876
867.71	20883
867.841	21009
867.972	20906
868.103	20937
868.233	21001
868.364	20876
868.495	21096
868.625	21180
868.756	21332
868.886	21176
869.017	21211
869.147	21348
869.278	21405
869.408	21009
869.539	21157
869.669	21401
869.799	21382
869.929	21306
870.06	21424
870.19	21462
870.32	21587
870.45	21622
870.58	21610
870.71	21797
870.84	21667
870.97	21576
871.1	21603
871.23	21690
871.36	21827
871.489	21728
871.619	21736
871.749	21770
871.879	21850
872.008	21850
872.138	21854
872.267	21766
872.397	21728
872.526	21679
872.656	21724
872.785	21519
872.915	21785
873.044	21911
873.173	21869
873.303	21892
873.432	21926
873.561	21842
873.69	21781
873.819	21793
873.948	21899
874.077	21899
874.206	21812
874.335	21823
874.464	21972
874.593	22120
874.722	21979
874.851	22017
874.979	22116
875.108	22029
875.237	21880
875.365	21956
875.494	22006
875.623	22109
875.751	22097
875.88	22139
876.008	22223
876.136	22158
876.265	22504
876.393	22683
876.521	22519
876.65	22554
876.778	22402
876.906	22478
877.034	22333
877.162	22402
877.29	22428
877.418	22447
877.546	22447
877.674	22325
877.802	22390
877.93	22402
878.058	22367
878.185	22253
878.313	22382
878.441	22344
878.568	22230
878.696	22375
878.824	22363
878.951	22481
879.079	22485
879.206	22744
879.333	22706
879.461	22402
879.588	22535
879.715	22527
879.842	22736
879.97	22531
880.097	22181
880.224	22207
880.351	22219
880.478	22101
880.605	22188
880.732	22112
880.859	22417
880.986	22367
881.112	22303
881.239	22166
881.366	21987
881.493	21918
881.619	21736
881.746	22025
881.872	21797
881.999	21770
882.125	21675
882.252	21751
882.378	21781
882.505	21816
882.631	21728
882.757	21572
882.883	21686
883.01	21504
883.136	21408
883.262	21386
883.388	21321
883.514	21606
883.64	21507
883.766	21351
883.892	21214
884.018	21317
884.143	21443
884.269	21408
884.395	21241
884.52	21135
884.646	21119
884.772	21077
884.897	21043
885.023	21260
885.148	21249
885.274	21264
885.399	21294
885.524	21100
885.65	21135
885.775	21256
885.9	21074
886.025	21123
886.15	21275
886.275	20967
886.4	20902
886.525	21108
886.65	21024
886.775	20982
886.9	21226
887.025	21408
887.149	21123
887.274	21051
887.399	20975
887.523	20815
887.648	20849
887.773	20819
887.897	20967
888.021	20956
888.146	20861
888.27	21009
888.395	20937
888.519	21005
888.643	21024
888.767	20960
888.891	20781
889.015	20777
889.139	20743
889.263	20708
889.387	20785
889.511	20849
889.635	20902
889.759	20701
889.883	20845
890.006	20712
890.13	20781
890.254	20545
890.377	20712
890.501	20404
890.624	20492
890.748	20511
890.871	20271
890.995	20240
891.118	20130
891.241	20195
891.364	20183
891.488	20404
891.611	20252
891.734	20221
891.857	20259
891.98	20240
892.103	20351
892.226	20244
892.349	20214
892.471	20096
892.594	20206
892.717	20202
892.839	20218
892.962	20145
893.085	20233
893.207	20164
893.33	20149
893.452	20134
893.575	20271
893.697	20168
893.819	20324
893.941	20305
894.064	20248
894.186	20172
894.308	20153
894.43	20229
894.552	20313
894.674	20267
894.796	20088
894.918	20107
895.04	20153
895.161	20286
895.283	20145
895.405	20031
895.526	20195
895.648	20100
895.769	20145
895.891	20218
896.012	20366
896.134	20164
896.255	20183
896.376	20054
896.498	20195
896.619	20248
896.74	20161
896.861	20202
896.982	20564
897.103	20731
897.224	20362
897.345	20404
897.466	20362
897.587	20499
897.708	20571
897.828	20457
897.949	20419
898.07	20214
898.19	20195
898.311	20381
898.431	20415
898.552	20442
898.672	20427
898.792	20427
898.913	20393
899.033	20199
899.153	20149
899.273	20054
899.393	20275
899.513	20050
899.633	20221
899.753	20161
899.873	20069
899.993	20221
900.113	20138
900.232	20050
900.352	20054
900.472	20016
900.591	19940
900.711	19959
900.83	19906
900.95	20031
901.069	20031
901.189	19803
901.308	19518
901.427	19575
901.546	19540
901.665	19510
901.784	19510
901.904	19350
902.023	19274
902.141	19107
902.26	19114
902.379	19122
902.498	19072
902.617	18970
902.735	18993
902.854	18954
902.973	18909
903.091	18635
903.21	18642
903.328	18673
903.446	18559
903.565	18517
903.683	18407
903.801	18353
903.919	18479
904.038	18376
904.156	18327
904.274	18285
904.392	18251
904.51	18182
904.627	18304
904.745	18300
904.863	18308
904.981	18068
905.098	17912
905.216	17946
905.334	17984
905.451	17954
905.569	17904
905.686	17969
905.803	17855
905.921	17783
906.038	17882
906.155	17767
906.272	17608
906.389	17657
906.506	17463
906.623	17486
906.74	17455
906.857	17288
906.974	17414
907.091	17516
907.208	17646
907.324	17490
907.441	17383
907.557	17067
907.674	17246
907.79	17037
907.907	17128
908.023	17185
908.139	17159
908.256	17170
908.372	17113
908.488	17128
908.604	16824
908.72	16843
908.836	16942
908.952	16801
909.068	16965
909.184	16946
909.3	16942
909.415	16854
909.531	16778
909.647	16542
909.762	16588
909.878	16588
909.993	16599
910.108	16508
910.224	16481
910.339	16588
910.454	16421
910.57	16413
910.685	16257
910.8	16580
910.915	16542
911.03	16470
911.145	16185
911.259	16192
911.374	16310
911.489	16128
911.604	16048
911.718	15884
911.833	15918
911.947	15793
912.062	15831
912.176	16029
912.291	15991
912.405	15854
912.519	16112
912.633	16204
912.748	16010
912.862	15857
912.976	15667
913.09	15698
913.204	15679
913.318	15728
913.431	15793
913.545	15816
913.659	15873
913.772	15622
913.886	15603
914	15515
914.113	15606
914.226	15622
914.34	15507
914.453	15488
914.566	15568
914.68	15515
914.793	15416
914.906	15222
915.019	15135
915.132	15108
915.245	15154
915.358	15218
915.47	15226
915.583	15161
915.696	15165
915.809	15302
915.921	15386
916.034	15100
916.146	15135
916.259	15077
916.371	15127
916.483	15085
916.595	15081
916.708	15028
916.82	15051
916.932	15009
917.044	15020
917.156	14864
917.268	14910
917.38	14750
917.491	14891
917.603	14807
917.715	14910
917.826	14994
917.938	14811
918.049	14724
918.161	14773
918.272	14902
918.384	14876
918.495	14792
918.606	14617
918.717	14571
918.828	14693
918.939	14644
919.05	14552
919.161	14606
919.272	14423
919.383	14457
919.494	14674
919.604	14815
919.715	14686
919.826	14610
919.936	14533
920.047	14689
920.157	14583
920.267	14697
920.378	14549
920.488	14606
920.598	14773
920.708	14906
920.818	14777
920.928	14667
921.038	14845
921.148	14769
921.258	14476
921.368	14511
921.477	14377
921.587	14457
921.697	14142
921.806	14408
921.916	14168
922.025	14043
922.134	13978
922.244	13909
922.353	14031
922.462	13887
922.571	13772
922.68	13666
922.789	13647
922.898	13601
923.007	13487
923.116	13502
923.224	13586
923.333	13556
923.442	13430
923.55	13377
923.659	13411
923.767	13453
923.876	13339
923.984	13396
924.092	13312
924.201	13282
924.309	13384
924.417	13285
924.525	13251
924.633	13213
924.741	14008
924.849	13050
924.956	13282
925.064	12985
925.172	12859
925.279	13015
925.387	13076
925.494	13031
925.602	13103
925.709	13076
925.816	12894
925.924	13091
926.031	13004
926.138	12901
926.245	12962
926.352	12924
926.459	13015
926.566	13008
926.673	12901
926.779	12787
926.886	12768
926.993	12631
927.099	12517
927.206	12547
927.312	12471
927.419	12604
927.525	12616
927.631	12612
927.737	12414
927.843	12441
927.95	12391
928.056	12376
928.162	12399
928.267	12448
928.373	13019
928.479	12509
928.585	12251
928.69	12285
928.796	12369
928.901	12155
929.007	12239
929.112	12300
929.218	12277
929.323	12095
929.428	12148
929.533	12254
929.638	12053
929.743	12114
929.848	12125
929.953	12087
930.058	11969
930.163	11741
930.267	11817
930.372	11923
930.477	11718
930.581	12060
930.685	11821
930.79	11661
930.894	11691
930.998	11748
931.103	11726
931.207	11524
931.311	11360
931.415	11250
931.519	11094
931.623	11117
