Data from test_V78500241_1975.txt Node
Date: Fri Mar 25 15:55:28 CST 2022
User: usil
Spectrometer: V785-0024
Trigger mode: 0
Integration Time (sec): 4.000000E-1
Scans to average: 1
Nonlinearity correction enabled: false
Boxcar width: 0
Storing dark spectrum: false
XAxis mode: Wavelengths
Number of Pixels in Spectrum: 1024
>>>>>Begin Spectral Data<<<<<
801.071	27542
801.214	27340
801.356	27081
801.499	27203
801.641	27093
801.783	26994
801.926	27051
802.068	27009
802.211	26929
802.353	26788
802.496	26788
802.638	26659
802.78	26777
802.923	26526
803.065	26560
803.208	26560
803.35	26655
803.492	26754
803.635	26781
803.777	26625
803.919	26796
804.061	27096
804.204	26788
804.346	26785
804.488	26705
804.63	26853
804.773	26819
804.915	26777
805.057	26823
805.199	26815
805.341	27013
805.483	26940
805.626	26956
805.768	26868
805.91	26940
806.052	26929
806.194	26864
806.336	27089
806.478	27039
806.62	27127
806.762	27074
806.904	27165
807.046	27443
807.188	27363
807.33	27401
807.472	27447
807.614	27488
807.756	27173
807.898	27317
808.04	27138
808.182	27135
808.324	27192
808.465	27252
808.607	27382
808.749	27553
808.891	27641
809.033	27812
809.174	27606
809.316	27637
809.458	27447
809.6	27515
809.741	27698
809.883	27701
810.025	27705
810.166	27690
810.308	27743
810.45	27698
810.591	27709
810.733	27534
810.875	27534
811.016	27245
811.158	27283
811.299	27504
811.441	27736
811.582	27660
811.724	27519
811.865	27500
812.007	27469
812.148	27439
812.29	27500
812.431	27648
812.573	27759
812.714	27994
812.855	27987
812.997	28219
813.138	28131
813.279	28097
813.421	27987
813.562	28021
813.703	27895
813.845	27679
813.986	27458
814.127	27344
814.268	27272
814.41	27279
814.551	27218
814.692	27226
814.833	27203
814.974	27070
815.115	27180
815.256	27058
815.397	27020
815.539	27119
815.68	27036
815.821	26899
815.962	27020
816.103	27066
816.244	27001
816.385	26830
816.526	26792
816.666	26488
816.807	26492
816.948	26545
817.089	26579
817.23	26438
817.371	26533
817.512	26503
817.653	26461
817.793	26473
817.934	26427
818.075	26476
818.216	26511
818.356	26355
818.497	26385
818.638	26115
818.778	26214
818.919	26187
819.06	26381
819.2	26351
819.341	26446
819.481	26377
819.622	26507
819.762	26720
819.903	26674
820.043	26834
820.184	26571
820.324	26556
820.465	26545
820.605	26594
820.746	26571
820.886	26511
821.026	26511
821.167	26571
821.307	26571
821.447	26492
821.588	26317
821.728	26294
821.868	26107
822.008	26100
822.149	25917
822.289	25845
822.429	25674
822.569	25674
822.709	25643
822.849	25487
822.99	25491
823.13	25483
823.27	25411
823.41	25194
823.55	25061
823.69	25259
823.83	25251
823.97	25301
824.11	25042
824.25	24992
824.389	25012
824.529	25145
824.669	25091
824.809	25289
824.949	25194
825.089	25168
825.228	25217
825.368	24859
825.508	24962
825.648	25027
825.787	24951
825.927	24989
826.067	24894
826.206	24996
826.346	25008
826.485	24992
826.625	24962
826.765	25091
826.904	25072
827.044	24844
827.183	24654
827.323	24658
827.462	24757
827.601	24669
827.741	24635
827.88	24639
828.02	24479
828.159	24601
828.298	24620
828.437	24719
828.577	24684
828.716	24692
828.855	24551
828.994	24437
829.134	24311
829.273	24327
829.412	24311
829.551	24289
829.69	24266
829.829	24292
829.968	24464
830.107	24441
830.246	24304
830.385	24319
830.524	24220
830.663	24152
830.802	24114
830.941	23935
831.08	23828
831.219	24079
831.357	24022
831.496	24041
831.635	23920
831.774	23889
831.913	23961
832.051	23760
832.19	23589
832.329	23798
832.467	23672
832.606	23551
832.744	23531
832.883	23687
833.022	23585
833.16	23619
833.299	23718
833.437	23528
833.576	23722
833.714	23665
833.852	23752
833.991	23653
834.129	23726
834.267	23684
834.406	23585
834.544	23684
834.682	23760
834.821	23604
834.959	23882
835.097	23649
835.235	23745
835.373	23828
835.511	23672
835.65	23581
835.788	23501
835.926	23330
836.064	23379
836.202	23429
836.34	23585
836.478	23577
836.615	23528
836.753	23554
836.891	23577
837.029	23520
837.167	23509
837.305	23391
837.443	23406
837.58	23334
837.718	23345
837.856	23387
837.993	23337
838.131	23322
838.269	23166
838.406	23330
838.544	23269
838.681	23018
838.819	23014
838.956	22790
839.094	22847
839.231	22843
839.369	23052
839.506	23235
839.643	23056
839.781	22812
839.918	22710
840.055	22869
840.193	22748
840.33	22763
840.467	22691
840.604	22839
840.742	23025
840.879	22660
841.016	22713
841.153	22531
841.29	22900
841.427	22664
841.564	22771
841.701	22736
841.838	22725
841.975	22694
842.112	22668
842.249	22573
842.385	22512
842.522	22637
842.659	22440
842.796	22470
842.933	22485
843.069	22398
843.206	22443
843.343	22641
843.479	22584
843.616	22428
843.752	22276
843.889	22150
844.025	22405
844.162	22276
844.298	22500
844.435	22318
844.571	22268
844.708	22318
844.844	22527
844.98	22516
845.117	22424
845.253	22246
845.389	22128
845.525	22177
845.661	22040
845.798	21979
845.934	22116
846.07	22070
846.206	22055
846.342	22086
846.478	22051
846.614	21762
846.75	21774
846.886	21648
847.022	21797
847.158	21861
847.294	21717
847.429	21751
847.565	21785
847.701	21968
847.837	21526
847.972	21355
848.108	21473
848.244	21545
848.379	21317
848.515	21386
848.65	21340
848.786	21389
848.921	21329
849.057	21447
849.192	21374
849.328	21454
849.463	21252
849.598	21268
849.734	21268
849.869	21188
850.004	21142
850.14	21036
850.275	21226
850.41	21051
850.545	21043
850.68	21173
850.815	21161
850.95	21100
851.085	21203
851.22	21249
851.355	21180
851.49	21081
851.625	21028
851.76	21013
851.895	20975
852.03	21024
852.165	21096
852.299	21241
852.434	21252
852.569	21093
852.703	21100
852.838	21123
852.973	21275
853.107	21169
853.242	21024
853.376	20971
853.511	20826
853.645	20910
853.78	21074
853.914	20986
854.048	21017
854.183	20819
854.317	20891
854.451	21116
854.585	20986
854.72	20811
854.854	20971
854.988	20944
855.122	20975
855.256	20800
855.39	20956
855.524	20929
855.658	21017
855.792	20944
855.926	20956
856.06	20944
856.194	21028
856.327	20979
856.461	20986
856.595	20994
856.729	20842
856.862	20944
856.996	21085
857.13	20982
857.263	21032
857.397	20967
857.53	21066
857.664	20910
857.797	21024
857.931	20975
858.064	20956
858.197	21104
858.331	20872
858.464	20845
858.597	20819
858.731	20948
858.864	20960
858.997	20960
859.13	20845
859.263	20986
859.396	21017
859.529	20914
859.662	20853
859.795	20853
859.928	20967
860.061	21123
860.194	21161
860.327	20998
860.46	20948
860.592	21070
860.725	21085
860.858	20998
860.99	21062
861.123	20872
861.256	20880
861.388	20937
861.521	21774
861.653	20921
861.786	20826
861.918	20762
862.05	20765
862.183	20933
862.315	20781
862.447	20994
862.58	20883
862.712	20701
862.844	20590
862.976	20727
863.108	20644
863.24	21062
863.372	20712
863.504	20629
863.636	20621
863.768	20644
863.9	20693
864.032	20640
864.164	20739
864.296	20511
864.428	20743
864.559	20781
864.691	20746
864.823	20686
864.954	20716
865.086	20613
865.217	20518
865.349	20511
865.48	20651
865.612	20705
865.743	20678
865.875	20549
866.006	20526
866.137	20648
866.269	20560
866.4	20412
866.531	20556
866.662	20450
866.793	20442
866.924	20423
867.055	20438
867.186	20545
867.317	20632
867.448	20358
867.579	20400
867.71	20362
867.841	20404
867.972	20465
868.103	20522
868.233	20564
868.364	20438
868.495	20480
868.625	20727
868.756	20937
868.886	20731
869.017	20564
869.147	20986
869.278	20929
869.408	20773
869.539	20811
869.669	20792
869.799	20891
869.929	20838
870.06	20800
870.19	21070
870.32	21055
870.45	21112
870.58	21104
870.71	21154
870.84	21165
870.97	21093
871.1	21123
871.23	21294
871.36	21378
871.489	21260
871.619	21222
871.749	21264
871.879	21302
872.008	21344
872.138	21370
872.267	21401
872.397	21272
872.526	21135
872.656	21302
872.785	21176
872.915	21447
873.044	21469
873.173	21469
873.303	21363
873.432	21507
873.561	21481
873.69	21431
873.819	21538
873.948	21431
874.077	21477
874.206	21389
874.335	21496
874.464	21492
874.593	21622
874.722	21610
874.851	21572
874.979	21610
875.108	21633
875.237	21610
875.365	21534
875.494	21603
875.623	21667
875.751	21553
875.88	21682
876.008	21694
876.136	21717
876.265	21998
876.393	22143
876.521	22025
876.65	22063
876.778	22036
876.906	21892
877.034	21873
877.162	21934
877.29	21968
877.418	21873
877.546	21983
877.674	21903
877.802	21846
877.93	21937
878.058	22010
878.185	21759
878.313	21888
878.441	21915
878.568	21869
878.696	21869
878.824	21953
878.951	21953
879.079	22162
879.206	22310
879.333	22207
879.461	21941
879.588	22139
879.715	22139
879.842	22173
879.97	22029
880.097	21838
880.224	21838
880.351	21804
880.478	21751
880.605	21770
880.732	21812
880.859	22006
880.986	21747
881.112	21770
881.239	21663
881.366	21599
881.493	21534
881.619	21416
881.746	21329
881.872	21382
881.999	21230
882.125	21298
882.252	21511
882.378	21336
882.505	21466
882.631	21131
882.757	21165
882.883	21089
883.01	21157
883.136	20906
883.262	20929
883.388	21013
883.514	21036
883.64	21070
883.766	21028
883.892	20785
884.018	20864
884.143	20899
884.269	21131
884.395	20765
884.52	20716
884.646	20804
884.772	20720
884.897	20609
885.023	20773
885.148	20819
885.274	20880
885.399	20731
885.524	20693
885.65	20750
885.775	20712
885.9	20663
886.025	20910
886.15	20883
886.275	20682
886.4	20617
886.525	20625
886.65	20613
886.775	20701
886.9	20773
887.025	20826
887.149	20659
887.274	20461
887.399	20495
887.523	20594
887.648	20476
887.773	20385
887.897	20575
888.021	20438
888.146	20492
888.27	20571
888.395	20495
888.519	20480
888.643	20454
888.767	20564
888.891	20267
889.015	20305
889.139	20278
889.263	20244
889.387	20415
889.511	20454
889.635	20358
889.759	20290
889.883	20252
890.006	20271
890.13	20374
890.254	20176
890.377	20149
890.501	20046
890.624	20020
890.748	20065
890.871	19978
890.995	19868
891.118	19852
891.241	19871
891.364	19936
891.488	20001
891.611	19750
891.734	19940
891.857	19925
891.98	19928
892.103	19887
892.226	19860
892.349	19830
892.471	19719
892.594	19841
892.717	19868
892.839	19799
892.962	19837
893.085	19871
893.207	19830
893.33	19685
893.452	19651
893.575	19890
893.697	19898
893.819	19936
893.941	20027
894.064	19841
894.186	19750
894.308	19738
894.43	19803
894.552	19871
894.674	19818
894.796	19700
894.918	19784
895.04	19780
895.161	19788
895.283	19902
895.405	19757
895.526	19822
895.648	19742
895.769	19852
895.891	19902
896.012	19909
896.134	19788
896.255	19849
896.376	19753
896.498	19807
896.619	19822
896.74	19704
896.861	19967
896.982	20134
897.103	20347
897.224	20107
897.345	19959
897.466	20050
897.587	20043
897.708	20180
897.828	20081
897.949	20012
898.07	19830
898.19	19982
898.311	19974
898.431	20031
898.552	20008
898.672	20065
898.792	20138
898.913	20035
899.033	19871
899.153	19833
899.273	19689
899.393	19620
899.513	19818
899.633	19780
899.753	19772
899.873	19620
899.993	19715
900.113	19708
900.232	19814
900.352	19776
900.472	19632
900.591	19537
900.711	19491
900.83	19567
900.95	19662
901.069	19700
901.189	19480
901.308	19198
901.427	19095
901.546	19038
901.665	19152
901.784	19194
901.904	19057
902.023	18947
902.141	18722
902.26	18741
902.379	18768
902.498	18620
902.617	18639
902.735	18738
902.854	18646
902.973	18551
903.091	18388
903.21	18319
903.328	18334
903.446	18266
903.565	18174
903.683	18087
903.801	17980
903.919	18163
904.038	18148
904.156	17958
904.274	17984
904.392	17840
904.51	17809
904.627	17969
904.745	17954
904.863	17889
904.981	17695
905.098	17558
905.216	17627
905.334	17589
905.451	17520
905.569	17615
905.686	17680
905.803	17516
905.921	17425
906.038	17482
906.155	17402
906.272	17277
906.389	17330
906.506	17090
906.623	17178
906.74	17166
906.857	17022
906.974	17022
907.091	17242
907.208	17193
907.324	17235
907.441	17018
907.557	16942
907.674	16721
907.79	16702
907.907	16687
908.023	16904
908.139	16801
908.256	16820
908.372	16740
908.488	16774
908.604	16596
908.72	16542
908.836	16561
908.952	16493
909.068	16565
909.184	16683
909.3	16592
909.415	16535
909.531	16512
909.647	16257
909.762	16306
909.878	16192
909.993	16226
910.108	16226
910.224	16268
910.339	16257
910.454	16154
910.57	16181
910.685	15956
910.8	16398
910.915	16265
911.03	16082
911.145	15941
911.259	15785
911.374	15873
911.489	15766
911.604	15660
911.718	15580
911.833	15580
911.947	15667
912.062	15523
912.176	15667
912.291	15679
912.405	15561
912.519	15755
912.633	15759
912.748	15595
912.862	15553
912.976	15542
913.09	15386
913.204	15344
913.318	15447
913.431	15496
913.545	15450
913.659	15412
913.772	15416
913.886	15279
914	15252
914.113	15355
914.226	15321
914.34	15310
914.453	14982
914.566	15272
914.68	15131
914.793	15138
914.906	14792
915.019	14849
915.132	14876
915.245	14895
915.358	14891
915.47	14929
915.583	14902
915.696	14952
915.809	14834
915.921	14861
916.034	14887
916.146	14804
916.259	14708
916.371	14845
916.483	14842
916.595	14708
916.708	14693
916.82	14651
916.932	14674
917.044	14754
917.156	14697
917.268	14446
917.38	14564
917.491	14473
917.603	14533
917.715	14571
917.826	14594
917.938	14450
918.049	14393
918.161	14385
918.272	14549
918.384	14682
918.495	14488
918.606	14252
918.717	14240
918.828	14328
918.939	14309
919.05	14252
919.161	14259
919.272	14103
919.383	14119
919.494	14339
919.604	14423
919.715	14259
919.826	14161
919.936	14210
920.047	14248
920.157	14237
920.267	14400
920.378	14294
920.488	14218
920.598	14362
920.708	14438
920.818	14396
920.928	14324
921.038	14613
921.148	14522
921.258	14149
921.368	14149
921.477	14058
921.587	13970
921.697	13894
921.806	14024
921.916	13902
922.025	13742
922.134	13685
922.244	13586
922.353	13613
922.462	13567
922.571	13537
922.68	13312
922.789	13369
922.898	13343
923.007	13228
923.116	13362
923.224	13308
923.333	13179
923.442	13217
923.55	13069
923.659	13160
923.767	13198
923.876	13015
923.984	13065
924.092	13091
924.201	13114
924.309	12966
924.417	13034
924.525	12951
924.633	12932
924.741	13849
924.849	12795
924.956	12981
925.064	12707
925.172	12703
925.279	12662
925.387	12681
925.494	12707
925.602	12806
925.709	12745
925.816	12696
925.924	12753
926.031	12734
926.138	12639
926.245	12711
926.352	12570
926.459	12700
926.566	12817
926.673	12612
926.779	12464
926.886	12540
926.993	12346
927.099	12254
927.206	12182
927.312	12228
927.419	12262
927.525	12201
927.631	12285
927.737	12171
927.843	12148
927.95	12140
928.056	12060
928.162	12095
928.267	12167
928.373	12760
928.479	12308
928.585	11942
928.69	12076
928.796	12098
928.901	11901
929.007	11851
929.112	12007
929.218	11931
929.323	11954
929.428	11828
929.533	12041
929.638	11783
929.743	11847
929.848	11904
929.953	11840
930.058	11760
930.163	11543
930.267	11520
930.372	11691
930.477	11562
930.581	11714
930.685	11615
930.79	11433
930.894	11471
930.998	11414
931.103	11589
931.207	11261
931.311	11155
931.415	11060
931.519	10847
931.623	10908
