Data from test_V78500241_2308.txt Node
Date: Fri Mar 25 15:57:47 CST 2022
User: usil
Spectrometer: V785-0024
Trigger mode: 0
Integration Time (sec): 4.000000E-1
Scans to average: 1
Nonlinearity correction enabled: false
Boxcar width: 0
Storing dark spectrum: false
XAxis mode: Wavelengths
Number of Pixels in Spectrum: 1024
>>>>>Begin Spectral Data<<<<<
801.071	28854
801.214	28831
801.356	28626
801.499	28569
801.641	28485
801.783	28314
801.926	28542
802.068	28489
802.211	28329
802.353	28249
802.496	28135
802.638	28169
802.78	28105
802.923	27968
803.065	28063
803.208	28116
803.35	28181
803.492	28284
803.635	28394
803.777	28390
803.919	28379
804.061	28664
804.204	28497
804.346	28344
804.488	28261
804.63	28493
804.773	28284
804.915	28493
805.057	28493
805.199	28474
805.341	28455
805.483	28485
805.626	28470
805.768	28508
805.91	28455
806.052	28611
806.194	28618
806.336	28752
806.478	28611
806.62	28542
806.762	28668
806.904	28892
807.046	28987
807.188	29014
807.33	29014
807.472	29064
807.614	28942
807.756	29117
807.898	28976
808.04	28797
808.182	28847
808.324	29006
808.465	29094
808.607	29128
808.749	29185
808.891	29292
809.033	29425
809.174	29337
809.316	29242
809.458	29273
809.6	29216
809.741	29143
809.883	29425
810.025	29528
810.166	29589
810.308	29554
810.45	29455
810.591	29452
810.733	29372
810.875	29353
811.016	29162
811.158	29353
811.299	29341
811.441	29440
811.582	29452
811.724	29341
811.865	29231
812.007	29250
812.148	29239
812.29	29429
812.431	29387
812.573	29467
812.714	29726
812.855	29870
812.997	29920
813.138	30007
813.279	29988
813.421	29813
813.562	29840
813.703	29649
813.845	29524
813.986	29455
814.127	29124
814.268	29204
814.41	29117
814.551	28934
814.692	29105
814.833	28850
814.974	28991
815.115	29018
815.256	28831
815.397	28858
815.539	28736
815.68	28908
815.821	28702
815.962	28927
816.103	28923
816.244	28725
816.385	28451
816.526	28531
816.666	28493
816.807	28253
816.948	28382
817.089	28322
817.23	28329
817.371	28375
817.512	28367
817.653	28401
817.793	28242
817.934	28367
818.075	28447
818.216	28329
818.356	28204
818.497	28082
818.638	27991
818.778	28154
818.919	28010
819.06	28067
819.2	28265
819.341	28318
819.481	28379
819.622	28375
819.762	28607
819.903	28710
820.043	28596
820.184	28382
820.324	28443
820.465	28512
820.605	28401
820.746	28413
820.886	28360
821.026	28493
821.167	28470
821.307	28508
821.447	28333
821.588	28249
821.728	28173
821.868	27960
822.008	27903
822.149	27899
822.289	27827
822.429	27633
822.569	27466
822.709	27591
822.849	27412
822.99	27283
823.13	27325
823.27	27165
823.41	27154
823.55	27116
823.69	27256
823.83	27032
823.97	27043
824.11	26998
824.25	26952
824.389	26925
824.529	27131
824.669	27005
824.809	26975
824.949	26975
825.089	27077
825.228	27028
825.368	26853
825.508	26876
825.648	26902
825.787	26963
825.927	26834
826.067	26815
826.206	26864
826.346	26967
826.485	26861
826.625	26845
826.765	26853
826.904	26842
827.044	26568
827.183	26674
827.323	26537
827.462	26792
827.601	26545
827.741	26625
827.88	26636
828.02	26499
828.159	26560
828.298	26571
828.437	26625
828.577	26507
828.716	26651
828.855	26389
828.994	26263
829.134	26256
829.273	26271
829.412	26199
829.551	26111
829.69	26339
829.829	26313
829.968	26214
830.107	26324
830.246	26191
830.385	26073
830.524	26100
830.663	26058
830.802	26020
830.941	25803
831.08	25818
831.219	25970
831.357	25925
831.496	26081
831.635	25856
831.774	25731
831.913	25811
832.051	25620
832.19	25601
832.329	25590
832.467	25563
832.606	25544
832.744	25430
832.883	25506
833.022	25483
833.16	25552
833.299	25521
833.437	25647
833.576	25590
833.714	25582
833.852	25624
833.991	25670
834.129	25658
834.267	25677
834.406	25613
834.544	25643
834.682	25552
834.821	25533
834.959	25639
835.097	25441
835.235	25658
835.373	25582
835.511	25510
835.65	25464
835.788	25388
835.926	25365
836.064	25198
836.202	25179
836.34	25266
836.478	25430
836.615	25411
836.753	25392
836.891	25373
837.029	25388
837.167	25327
837.305	25270
837.443	25293
837.58	25145
837.718	25244
837.856	25122
837.993	25141
838.131	25213
838.269	25152
838.406	25118
838.544	25015
838.681	24825
838.819	24692
838.956	24715
839.094	24631
839.231	24722
839.369	24871
839.506	25122
839.643	24905
839.781	24734
839.918	24559
840.055	24673
840.193	24604
840.33	24639
840.467	24483
840.604	24578
840.742	25069
840.879	24452
841.016	24418
841.153	24505
841.29	24673
841.427	24555
841.564	24551
841.701	24589
841.838	24494
841.975	24483
842.112	24437
842.249	24384
842.385	24281
842.522	24483
842.659	24422
842.796	24292
842.933	24388
843.069	24319
843.206	24216
843.343	24323
843.479	24391
843.616	24292
843.752	24148
843.889	24159
844.025	24273
844.162	24178
844.298	24194
844.435	24038
844.571	23969
844.708	24171
844.844	24308
844.98	24239
845.117	24102
845.253	24034
845.389	24076
845.525	24125
845.661	23950
845.798	23863
845.934	23885
846.07	23901
846.206	23923
846.342	23927
846.478	23843
846.614	23600
846.75	23573
846.886	23528
847.022	23562
847.158	23512
847.294	23551
847.429	23843
847.565	23551
847.701	23821
847.837	23220
847.972	23250
848.108	23387
848.244	23345
848.379	23155
848.515	23132
848.65	23170
848.786	23189
848.921	23185
849.057	23288
849.192	23277
849.328	23140
849.463	23185
849.598	23071
849.734	23010
849.869	22923
850.004	22885
850.14	22896
850.275	22869
850.41	22889
850.545	22805
850.68	22885
850.815	22831
850.95	23033
851.085	23102
851.22	23060
851.355	22972
851.49	22790
851.625	22862
851.76	22949
851.895	22809
852.03	22793
852.165	22900
852.299	22972
852.434	22972
852.569	22961
852.703	22820
852.838	22927
852.973	23079
853.107	22987
853.242	22839
853.376	22790
853.511	22645
853.645	22736
853.78	22847
853.914	22831
854.048	22691
854.183	22729
854.317	22687
854.451	22949
854.585	22618
854.72	22778
854.854	22748
854.988	22569
855.122	22691
855.256	22725
855.39	22710
855.524	22759
855.658	22778
855.792	22683
855.926	22710
856.06	22660
856.194	22706
856.327	22816
856.461	22694
856.595	22660
856.729	22771
856.862	22881
856.996	22729
857.13	22809
857.263	22812
857.397	22771
857.53	22637
857.664	22736
857.797	22717
857.931	22771
858.064	22653
858.197	22942
858.331	22733
858.464	22618
858.597	22668
858.731	22634
858.864	22721
858.997	22645
859.13	22668
859.263	22717
859.396	22805
859.529	22607
859.662	22508
859.795	22626
859.928	22683
860.061	23048
860.194	22930
860.327	22626
860.46	22683
860.592	22729
860.725	22889
860.858	22843
860.99	22744
861.123	22763
861.256	22694
861.388	22660
861.521	23452
861.653	22675
861.786	22641
861.918	22531
862.05	22516
862.183	22664
862.315	22790
862.447	22679
862.58	22645
862.712	22352
862.844	22314
862.976	22432
863.108	22474
863.24	22908
863.372	22424
863.504	22474
863.636	22344
863.768	22493
863.9	22421
864.032	22367
864.164	22455
864.296	22493
864.428	22508
864.559	22455
864.691	22497
864.823	22379
864.954	22390
865.086	22436
865.217	22314
865.349	22276
865.48	22466
865.612	22299
865.743	22527
865.875	22261
866.006	22382
866.137	22447
866.269	22337
866.4	22211
866.531	22196
866.662	22173
866.793	22223
866.924	22219
867.055	22181
867.186	22249
867.317	22204
867.448	22139
867.579	22268
867.71	22230
867.841	22265
867.972	22131
868.103	22128
868.233	22207
868.364	22375
868.495	22299
868.625	22470
868.756	22531
868.886	22360
869.017	22607
869.147	22615
869.278	22630
869.408	22500
869.539	22432
869.669	22519
869.799	22413
869.929	22531
870.06	22550
870.19	22809
870.32	22752
870.45	22767
870.58	22831
870.71	23041
870.84	22843
870.97	22835
871.1	22904
871.23	23067
871.36	22946
871.489	22961
871.619	22892
871.749	23041
871.879	23003
872.008	23208
872.138	23048
872.267	23048
872.397	22930
872.526	22965
872.656	22961
872.785	22835
872.915	23083
873.044	23204
873.173	23136
873.303	23060
873.432	23208
873.561	23311
873.69	23143
873.819	23071
873.948	23025
874.077	23052
874.206	22953
874.335	23162
874.464	23136
874.593	23296
874.722	23254
874.851	23239
874.979	23284
875.108	23372
875.237	23280
875.365	23258
875.494	23288
875.623	23326
875.751	23189
875.88	23330
876.008	23341
876.136	23509
876.265	23608
876.393	23847
876.521	23687
876.65	23824
876.778	23741
876.906	23608
877.034	23642
877.162	23695
877.29	23589
877.418	23627
877.546	23627
877.674	23649
877.802	23600
877.93	23634
878.058	23623
878.185	23634
878.313	23516
878.441	23543
878.568	23482
878.696	23558
878.824	23691
878.951	23642
879.079	23790
879.206	23950
879.333	23695
879.461	23539
879.588	23813
879.715	23923
879.842	23882
879.97	23699
880.097	23535
880.224	23402
880.351	23501
880.478	23482
880.605	23341
880.732	23398
880.859	23623
880.986	23383
881.112	23433
881.239	23383
881.366	23159
881.493	23246
881.619	22934
881.746	23014
881.872	23052
881.999	22984
882.125	22934
882.252	23029
882.378	23083
882.505	23067
882.631	22729
882.757	22820
882.883	22771
883.01	22683
883.136	22580
883.262	22500
883.388	22512
883.514	22668
883.64	22702
883.766	22687
883.892	22371
884.018	22470
884.143	22596
884.269	22717
884.395	22379
884.52	22386
884.646	22344
884.772	22268
884.897	22230
885.023	22417
885.148	22516
885.274	22333
885.399	22284
885.524	22303
885.65	22295
885.775	22348
885.9	22162
886.025	22402
886.15	22402
886.275	22325
886.4	22291
886.525	22230
886.65	22223
886.775	22158
886.9	22261
887.025	22470
887.149	22398
887.274	22082
887.399	22067
887.523	22135
887.648	22017
887.773	22010
887.897	22101
888.021	22048
888.146	21987
888.27	22154
888.395	22211
888.519	22021
888.643	22078
888.767	21991
888.891	22013
889.015	21964
889.139	21888
889.263	21816
889.387	21880
889.511	22074
889.635	21869
889.759	21823
889.883	21842
890.006	21812
890.13	21987
890.254	21838
890.377	21838
890.501	21679
890.624	21469
890.748	21587
890.871	21397
890.995	21344
891.118	21329
891.241	21336
891.364	21439
891.488	21561
891.611	21374
891.734	21439
891.857	21408
891.98	21428
892.103	21397
892.226	21294
892.349	21420
892.471	21165
892.594	21389
892.717	21351
892.839	21249
892.962	21249
893.085	21313
893.207	21336
893.33	21146
893.452	21332
893.575	21351
893.697	21272
893.819	21332
893.941	21488
894.064	21435
894.186	21184
894.308	21157
894.43	21374
894.552	21355
894.674	21374
894.796	21214
894.918	21287
895.04	21169
895.161	21268
895.283	21192
895.405	21313
895.526	21123
895.648	21180
895.769	21359
895.891	21222
896.012	21363
896.134	21393
896.255	21393
896.376	21233
896.498	21363
896.619	21252
896.74	21211
896.861	21287
896.982	21568
897.103	21705
897.224	21519
897.345	21389
897.466	21408
897.587	21530
897.708	21557
897.828	21538
897.949	21241
898.07	21348
898.19	21416
898.311	21481
898.431	21466
898.552	21481
898.672	21542
898.792	21488
898.913	21412
899.033	21370
899.153	21298
899.273	21176
899.393	21131
899.513	21336
899.633	21195
899.753	21104
899.873	21093
899.993	21192
900.113	21036
900.232	21226
900.352	21047
900.472	20944
900.591	20906
900.711	21058
900.83	20887
900.95	21062
901.069	21116
901.189	20842
901.308	20667
901.427	20457
901.546	20488
901.665	20495
901.784	20423
901.904	20275
902.023	20290
902.141	20088
902.26	20027
902.379	20145
902.498	20077
902.617	20031
902.735	20035
902.854	19997
902.973	19913
903.091	19753
903.21	19712
903.328	19681
903.446	19552
903.565	19464
903.683	19480
903.801	19282
903.919	19369
904.038	19396
904.156	19198
904.274	19194
904.392	19171
904.51	19213
904.627	19122
904.745	19358
904.863	19312
904.981	19019
905.098	18878
905.216	18913
905.334	18894
905.451	18886
905.569	18848
905.686	19019
905.803	18719
905.921	18684
906.038	18772
906.155	18566
906.272	18513
906.389	18661
906.506	18361
906.623	18448
906.74	18452
906.857	18369
906.974	18330
907.091	18384
907.208	18403
907.324	18464
907.441	18338
907.557	18197
907.674	18152
907.79	18030
907.907	18064
908.023	18079
908.139	18178
908.256	18106
908.372	18106
908.488	17889
908.604	17817
908.72	17805
908.836	17847
908.952	17760
909.068	17874
909.184	17969
909.3	17786
909.415	17859
909.531	17718
909.647	17680
909.762	17455
909.878	17429
909.993	17592
910.108	17539
910.224	17471
910.339	17600
910.454	17391
910.57	17246
910.685	17147
910.8	17501
910.915	17455
911.03	17383
911.145	17170
911.259	17037
911.374	17117
911.489	16957
911.604	16843
911.718	16873
911.833	16908
911.947	16744
912.062	16713
912.176	16889
912.291	16908
912.405	16858
912.519	17048
912.633	17022
912.748	16919
912.862	16812
912.976	16607
913.09	16649
913.204	16561
913.318	16691
913.431	16725
913.545	16752
913.659	16717
913.772	16550
913.886	16443
914	16398
914.113	16535
914.226	16580
914.34	16508
914.453	16398
914.566	16489
914.68	16322
914.793	16341
914.906	16112
915.019	16025
915.132	15945
915.245	16078
915.358	16093
915.47	15960
915.583	16010
915.696	16051
915.809	16139
915.921	16109
916.034	15968
916.146	15865
916.259	15800
916.371	15975
916.483	15949
916.595	15816
916.708	15800
916.82	15892
916.932	15720
917.044	15739
917.156	15838
917.268	15686
917.38	15671
917.491	15656
917.603	15526
917.715	15732
917.826	15641
917.938	15515
918.049	15458
918.161	15580
918.272	15656
918.384	15663
918.495	15450
918.606	15431
918.717	15306
918.828	15374
918.939	15416
919.05	15264
919.161	15447
919.272	15127
919.383	15188
919.494	15428
919.604	15564
919.715	15370
919.826	15245
919.936	15294
920.047	15397
920.157	15218
920.267	15542
920.378	15378
920.488	15291
920.598	15500
920.708	15564
920.818	15492
920.928	15424
921.038	15599
921.148	15568
921.258	15203
921.368	15100
921.477	15093
921.587	14979
921.697	14937
921.806	15097
921.916	14883
922.025	14705
922.134	14674
922.244	14701
922.353	14705
922.462	14549
922.571	14446
922.68	14294
922.789	14298
922.898	14309
923.007	14271
923.116	14351
923.224	14301
923.333	14286
923.442	14130
923.55	14180
923.659	14130
923.767	14214
923.876	14103
923.984	14103
924.092	13978
924.201	14058
924.309	14092
924.417	14123
924.525	13967
924.633	13974
924.741	14918
924.849	13795
924.956	13887
925.064	13655
925.172	13613
925.279	13689
925.387	13719
925.494	13651
925.602	13788
925.709	13753
925.816	13590
925.924	13772
926.031	13681
926.138	13601
926.245	13590
926.352	13441
926.459	13719
926.566	13753
926.673	13537
926.779	13400
926.886	13381
926.993	13350
927.099	13301
927.206	13221
927.312	13149
927.419	13179
927.525	13225
927.631	13228
927.737	13110
927.843	13031
927.95	12932
928.056	13072
928.162	13027
928.267	13076
928.373	13750
928.479	13034
928.585	12814
928.69	12970
928.796	13103
928.901	12863
929.007	12719
929.112	12916
929.218	12863
929.323	12726
929.428	12715
929.533	12814
929.638	12612
929.743	12673
929.848	12753
929.953	12662
930.058	12547
930.163	12350
930.267	12467
930.372	12551
930.477	12334
930.581	12597
930.685	12456
930.79	12201
930.894	12254
930.998	12270
931.103	12346
931.207	12068
931.311	11969
931.415	11817
931.519	11554
931.623	11608
