Data from test_V78500241_3681.txt Node
Date: Fri Mar 25 16:07:18 CST 2022
User: usil
Spectrometer: V785-0024
Trigger mode: 0
Integration Time (sec): 4.000000E-1
Scans to average: 1
Nonlinearity correction enabled: false
Boxcar width: 0
Storing dark spectrum: false
XAxis mode: Wavelengths
Number of Pixels in Spectrum: 1024
>>>>>Begin Spectral Data<<<<<
801.071	27922
801.214	27972
801.356	27644
801.499	27625
801.641	27595
801.783	27557
801.926	27614
802.068	27458
802.211	27424
802.353	27511
802.496	27173
802.638	27214
802.78	27142
802.923	27017
803.065	27074
803.208	27116
803.35	27252
803.492	27249
803.635	27256
803.777	27245
803.919	27367
804.061	27667
804.204	27272
804.346	27359
804.488	27351
804.63	27424
804.773	27233
804.915	27450
805.057	27671
805.199	27485
805.341	27507
805.483	27469
805.626	27519
805.768	27420
805.91	27568
806.052	27591
806.194	27302
806.336	27629
806.478	27568
806.62	27443
806.762	27686
806.904	27838
807.046	28036
807.188	27987
807.33	27983
807.472	28025
807.614	27861
807.756	27835
807.898	27610
808.04	27785
808.182	27583
808.324	27667
808.465	27789
808.607	27953
808.749	28238
808.891	28341
809.033	28341
809.174	28128
809.316	28291
809.458	28147
809.6	28093
809.741	28341
809.883	28272
810.025	28451
810.166	28409
810.308	28447
810.45	28398
810.591	28291
810.733	28150
810.875	28234
811.016	28097
811.158	28082
811.299	28280
811.441	28421
811.582	28284
811.724	28188
811.865	28246
812.007	28097
812.148	28150
812.29	28299
812.431	28295
812.573	28519
812.714	28527
812.855	28698
812.997	28668
813.138	28869
813.279	28831
813.421	28698
813.562	28485
813.703	28478
813.845	28405
813.986	28048
814.127	27937
814.268	27831
814.41	27789
814.551	27804
814.692	28048
814.833	27823
814.974	27717
815.115	27975
815.256	27671
815.397	27656
815.539	27679
815.68	27694
815.821	27580
815.962	27663
816.103	27644
816.244	27462
816.385	27447
816.526	27340
816.666	27241
816.807	27127
816.948	27116
817.089	27211
817.23	27161
817.371	27146
817.512	27138
817.653	27245
817.793	27093
817.934	27096
818.075	27176
818.216	27249
818.356	27062
818.497	27051
818.638	26994
818.778	26921
818.919	26845
819.06	26921
819.2	27020
819.341	27157
819.481	27013
819.622	27321
819.762	27466
819.903	27348
820.043	27279
820.184	27241
820.324	27211
820.465	27378
820.605	27416
820.746	27154
820.886	27062
821.026	27157
821.167	27116
821.307	27272
821.447	27180
821.588	27017
821.728	26842
821.868	26834
822.008	26689
822.149	26762
822.289	26655
822.429	26412
822.569	26218
822.709	26457
822.849	26077
822.99	26084
823.13	26164
823.27	26005
823.41	26024
823.55	25791
823.69	25966
823.83	25940
823.97	25947
824.11	25677
824.25	25666
824.389	25921
824.529	25814
824.669	25845
824.809	25833
824.949	25890
825.089	25727
825.228	25963
825.368	25552
825.508	25567
825.648	25643
825.787	25658
825.927	25567
826.067	25548
826.206	25616
826.346	25559
826.485	25700
826.625	25483
826.765	25769
826.904	25613
827.044	25502
827.183	25495
827.323	25335
827.462	25487
827.601	25499
827.741	25358
827.88	25232
828.02	25244
828.159	25266
828.298	25270
828.437	25297
828.577	25282
828.716	25270
828.855	25183
828.994	25053
829.134	25065
829.273	25065
829.412	24916
829.551	24947
829.69	25008
829.829	25091
829.968	25187
830.107	25107
830.246	24973
830.385	24905
830.524	24909
830.663	24871
830.802	24703
830.941	24532
831.08	24654
831.219	24658
831.357	24696
831.496	24810
831.635	24616
831.774	24448
831.913	24403
832.051	24456
832.19	24475
832.329	24490
832.467	24311
832.606	24197
832.744	24232
832.883	24311
833.022	24399
833.16	24277
833.299	24350
833.437	24319
833.576	24334
833.714	24308
833.852	24528
833.991	24433
834.129	24395
834.267	24327
834.406	24467
834.544	24456
834.682	24414
834.821	24342
834.959	24338
835.097	24304
835.235	24273
835.373	24285
835.511	24304
835.65	24296
835.788	24228
835.926	24045
836.064	24057
836.202	24018
836.34	24057
836.478	24254
836.615	24140
836.753	24277
836.891	24213
837.029	24251
837.167	24091
837.305	24083
837.443	23920
837.58	23984
837.718	24140
837.856	24133
837.993	23950
838.131	23996
838.269	23904
838.406	23950
838.544	23813
838.681	23726
838.819	23657
838.956	23630
839.094	23509
839.231	23539
839.369	23615
839.506	23786
839.643	23832
839.781	23520
839.918	23433
840.055	23528
840.193	23573
840.33	23341
840.467	23356
840.604	23474
840.742	23604
840.879	23311
841.016	23322
841.153	23197
841.29	23543
841.427	23387
841.564	23410
841.701	23463
841.838	23345
841.975	23379
842.112	23383
842.249	23151
842.385	23143
842.522	23356
842.659	23254
842.796	23151
842.933	23166
843.069	23159
843.206	23117
843.343	23326
843.479	23178
843.616	23151
843.752	22801
843.889	22927
844.025	23197
844.162	22892
844.298	23041
844.435	23060
844.571	23044
844.708	23090
844.844	23079
844.98	23151
845.117	23044
845.253	22938
845.389	22824
845.525	22812
845.661	22797
845.798	22584
845.934	22744
846.07	22653
846.206	22793
846.342	22889
846.478	22744
846.614	22371
846.75	22352
846.886	22242
847.022	22447
847.158	22287
847.294	22417
847.429	22379
847.565	22402
847.701	22580
847.837	22021
847.972	22101
848.108	22261
848.244	22207
848.379	21987
848.515	21953
848.65	21964
848.786	21960
848.921	22120
849.057	22150
849.192	22101
849.328	22051
849.463	22025
849.598	22021
849.734	21956
849.869	21827
850.004	21873
850.14	21911
850.275	21751
850.41	21705
850.545	21739
850.68	21770
850.815	21785
850.95	21774
851.085	21911
851.22	21789
851.355	21804
851.49	21652
851.625	21568
851.76	21728
851.895	21690
852.03	21694
852.165	21880
852.299	21770
852.434	21964
852.569	21797
852.703	21770
852.838	21774
852.973	21949
853.107	21804
853.242	21739
853.376	21557
853.511	21523
853.645	21549
853.78	21629
853.914	21755
854.048	21564
854.183	21648
854.317	21519
854.451	21797
854.585	21583
854.72	21698
854.854	21690
854.988	21488
855.122	21629
855.256	21458
855.39	21443
855.524	21599
855.658	21675
855.792	21515
855.926	21557
856.06	21686
856.194	21759
856.327	21568
856.461	21545
856.595	21557
856.729	21561
856.862	21625
856.996	21572
857.13	21599
857.263	21747
857.397	21728
857.53	21583
857.664	21633
857.797	21736
857.931	21675
858.064	21679
858.197	21701
858.331	21610
858.464	21458
858.597	21447
858.731	21667
858.864	21454
858.997	21595
859.13	21511
859.263	21553
859.396	21610
859.529	21595
859.662	21408
859.795	21511
859.928	21686
860.061	21751
860.194	21701
860.327	21606
860.46	21591
860.592	21724
860.725	21781
860.858	21614
860.99	21576
861.123	21523
861.256	21561
861.388	21568
861.521	22421
861.653	21405
861.786	21260
861.918	21466
862.05	21469
862.183	21515
862.315	21622
862.447	21564
862.58	21523
862.712	21374
862.844	21344
862.976	21378
863.108	21340
863.24	21797
863.372	21302
863.504	21340
863.636	21287
863.768	21279
863.9	21268
864.032	21298
864.164	21317
864.296	21485
864.428	21389
864.559	21382
864.691	21302
864.823	21348
864.954	21249
865.086	21268
865.217	21180
865.349	21070
865.48	21161
865.612	21211
865.743	21374
865.875	21233
866.006	21192
866.137	21226
866.269	21188
866.4	21157
866.531	21096
866.662	21066
866.793	21096
866.924	21135
867.055	21218
867.186	21135
867.317	21108
867.448	21146
867.579	21066
867.71	21089
867.841	21062
867.972	21127
868.103	21089
868.233	21100
868.364	21199
868.495	21142
868.625	21367
868.756	21401
868.886	21252
869.017	21306
869.147	21458
869.278	21481
869.408	21351
869.539	21424
869.669	21526
869.799	21428
869.929	21564
870.06	21534
870.19	21732
870.32	21644
870.45	21804
870.58	21781
870.71	21884
870.84	21778
870.97	21846
871.1	21747
871.23	21854
871.36	21880
871.489	21808
871.619	21991
871.749	21945
871.879	21934
872.008	22021
872.138	21873
872.267	21968
872.397	21934
872.526	21812
872.656	21899
872.785	21854
872.915	21949
873.044	22154
873.173	21994
873.303	22070
873.432	22173
873.561	22055
873.69	21979
873.819	22059
873.948	22097
874.077	22093
874.206	21941
874.335	21823
874.464	22139
874.593	22257
874.722	22139
874.851	22188
874.979	22196
875.108	22234
875.237	22135
875.365	22166
875.494	22185
875.623	22265
875.751	22219
875.88	22325
876.008	22367
876.136	22447
876.265	22634
876.393	22771
876.521	22740
876.65	22672
876.778	22637
876.906	22630
877.034	22500
877.162	22546
877.29	22344
877.418	22588
877.546	22584
877.674	22573
877.802	22546
877.93	22683
878.058	22489
878.185	22519
878.313	22508
878.441	22546
878.568	22394
878.696	22550
878.824	22596
878.951	22675
879.079	22725
879.206	22843
879.333	22702
879.461	22622
879.588	22656
879.715	22698
879.842	22801
879.97	22641
880.097	22523
880.224	22375
880.351	22424
880.478	22436
880.605	22352
880.732	22356
880.859	22634
880.986	22413
881.112	22402
881.239	22299
881.366	22070
881.493	22093
881.619	21994
881.746	22013
881.872	21953
881.999	21793
882.125	21926
882.252	22002
882.378	21892
882.505	21960
882.631	21816
882.757	21709
882.883	21895
883.01	21770
883.136	21663
883.262	21660
883.388	21485
883.514	21720
883.64	21667
883.766	21572
883.892	21348
884.018	21572
884.143	21629
884.269	21713
884.395	21306
884.52	21233
884.646	21275
884.772	21275
884.897	21112
885.023	21313
885.148	21363
885.274	21401
885.399	21397
885.524	21329
885.65	21264
885.775	21203
885.9	21348
886.025	21447
886.15	21393
886.275	21287
886.4	21203
886.525	21252
886.65	21127
886.775	21176
886.9	21485
887.025	21469
887.149	21222
887.274	21131
887.399	20994
887.523	20952
887.648	21024
887.773	21100
887.897	21123
888.021	21169
888.146	21047
888.27	20986
888.395	21203
888.519	21036
888.643	21032
888.767	21055
888.891	20941
889.015	20838
889.139	21001
889.263	20769
889.387	20956
889.511	21089
889.635	21013
889.759	20868
889.883	20887
890.006	20876
890.13	20887
890.254	20838
890.377	20876
890.501	20689
890.624	20750
890.748	20758
890.871	20450
890.995	20427
891.118	20309
891.241	20393
891.364	20450
891.488	20492
891.611	20336
891.734	20492
891.857	20492
891.98	20381
892.103	20514
892.226	20457
892.349	20320
892.471	20286
892.594	20385
892.717	20366
892.839	20446
892.962	20282
893.085	20332
893.207	20366
893.33	20180
893.452	20168
893.575	20305
893.697	20282
893.819	20503
893.941	20560
894.064	20320
894.186	20347
894.308	20332
894.43	20442
894.552	20423
894.674	20358
894.796	20180
894.918	20267
895.04	20206
895.161	20427
895.283	20419
895.405	20252
895.526	20305
895.648	20347
895.769	20328
895.891	20351
896.012	20347
896.134	20389
896.255	20381
896.376	20248
896.498	20282
896.619	20259
896.74	20248
896.861	20415
896.982	20674
897.103	20773
897.224	20613
897.345	20678
897.466	20488
897.587	20583
897.708	20762
897.828	20537
897.949	20495
898.07	20385
898.19	20511
898.311	20583
898.431	20495
898.552	20579
898.672	20609
898.792	20636
898.913	20602
899.033	20385
899.153	20332
899.273	20233
899.393	20332
899.513	20252
899.633	20320
899.753	20263
899.873	20149
899.993	20446
900.113	20275
900.232	20320
900.352	20183
900.472	20153
900.591	20054
900.711	20134
900.83	19959
900.95	20195
901.069	20107
901.189	19921
901.308	19753
901.427	19655
901.546	19666
901.665	19540
901.784	19582
901.904	19419
902.023	19476
902.141	19164
902.26	19122
902.379	19312
902.498	19190
902.617	19164
902.735	19209
902.854	19133
902.973	19122
903.091	18817
903.21	18833
903.328	18726
903.446	18814
903.565	18688
903.683	18661
903.801	18429
903.919	18555
904.038	18563
904.156	18441
904.274	18426
904.392	18384
904.51	18327
904.627	18509
904.745	18395
904.863	18407
904.981	18144
905.098	18049
905.216	18057
905.334	17984
905.451	18083
905.569	18038
905.686	18026
905.803	18194
905.921	17980
906.038	18060
906.155	17874
906.272	17817
906.389	17790
906.506	17535
906.623	17608
906.74	17710
906.857	17406
906.974	17589
907.091	17646
907.208	17710
907.324	17592
907.441	17471
907.557	17315
907.674	17242
907.79	17200
907.907	17296
908.023	17273
908.139	17315
908.256	17303
908.372	17124
908.488	17124
908.604	16957
908.72	17029
908.836	17033
908.952	16972
909.068	17045
909.184	17067
909.3	16942
909.415	17166
909.531	17018
909.647	16778
909.762	16713
909.878	16660
909.993	16755
910.108	16691
910.224	16630
910.339	16778
910.454	16542
910.57	16523
910.685	16516
910.8	16694
910.915	16694
911.03	16424
911.145	16348
911.259	16382
911.374	16360
911.489	16272
911.604	16223
911.718	16063
911.833	16071
911.947	15899
912.062	15899
912.176	16055
912.291	16067
912.405	16154
912.519	16158
912.633	16147
912.748	16112
912.862	16071
912.976	15915
913.09	15781
913.204	15789
913.318	15949
913.431	15922
913.545	16032
913.659	16025
913.772	15793
913.886	15743
914	15644
914.113	15663
914.226	15816
914.34	15724
914.453	15644
914.566	15713
914.68	15599
914.793	15500
914.906	15321
915.019	15313
915.132	15260
915.245	15169
915.358	15340
915.47	15260
915.583	15237
915.696	15283
915.809	15355
915.921	15370
916.034	15272
916.146	15135
916.259	15119
916.371	15260
916.483	15230
916.595	15165
916.708	15146
916.82	15070
916.932	15066
917.044	15127
917.156	15051
917.268	14895
917.38	14906
917.491	14914
917.603	14952
917.715	14994
917.826	14994
917.938	14902
918.049	14785
918.161	14838
918.272	14994
918.384	14941
918.495	14868
918.606	14663
918.717	14682
918.828	14712
918.939	14670
919.05	14590
919.161	14663
919.272	14499
919.383	14552
919.494	14689
919.604	14929
919.715	14689
919.826	14568
919.936	14644
920.047	14712
920.157	14724
920.267	14857
920.378	14655
920.488	14610
920.598	14777
920.708	14891
920.818	14746
920.928	14743
921.038	14815
921.148	14838
921.258	14552
921.368	14484
921.477	14423
921.587	14309
921.697	14252
921.806	14347
921.916	14225
922.025	14039
922.134	14012
922.244	13993
922.353	14005
922.462	13986
922.571	13860
922.68	13628
922.789	13628
922.898	13616
923.007	13502
923.116	13597
923.224	13666
923.333	13689
923.442	13529
923.55	13422
923.659	13476
923.767	13586
923.876	13453
923.984	13525
924.092	13308
924.201	13381
924.309	13434
924.417	13411
924.525	13373
924.633	13430
924.741	14240
924.849	13065
924.956	13190
925.064	13152
925.172	13110
925.279	13091
925.387	13088
925.494	13065
925.602	13141
925.709	13122
925.816	13061
925.924	13008
926.031	13126
926.138	12985
926.245	13027
926.352	12886
926.459	13084
926.566	13099
926.673	12943
926.779	12821
926.886	12791
926.993	12722
927.099	12612
927.206	12623
927.312	12536
927.419	12642
927.525	12616
927.631	12677
927.737	12536
927.843	12483
927.95	12422
928.056	12380
928.162	12498
928.267	12585
928.373	13114
928.479	12521
928.585	12330
928.69	12467
928.796	12403
928.901	12327
929.007	12140
929.112	12380
929.218	12224
929.323	12197
929.428	12136
929.533	12220
929.638	12152
929.743	12140
929.848	12076
929.953	12121
930.058	12060
930.163	11847
930.267	11878
930.372	11912
930.477	11790
930.581	12087
930.685	11901
930.79	11775
930.894	11863
930.998	11840
931.103	11889
931.207	11539
931.311	11455
931.415	11368
931.519	11064
931.623	11075
