Data from test_V78500241_1072.txt Node
Date: Fri Mar 25 15:49:13 CST 2022
User: usil
Spectrometer: V785-0024
Trigger mode: 0
Integration Time (sec): 4.000000E-1
Scans to average: 1
Nonlinearity correction enabled: false
Boxcar width: 0
Storing dark spectrum: false
XAxis mode: Wavelengths
Number of Pixels in Spectrum: 1024
>>>>>Begin Spectral Data<<<<<
801.071	28417
801.214	28386
801.356	28010
801.499	28051
801.641	27926
801.783	27857
801.926	27926
802.068	27838
802.211	27960
802.353	27701
802.496	27538
802.638	27504
802.78	27515
802.923	27606
803.065	27412
803.208	27488
803.35	27599
803.492	27713
803.635	27808
803.777	27671
803.919	27819
804.061	28211
804.204	27854
804.346	27709
804.488	27739
804.63	27751
804.773	27686
804.915	27804
805.057	27994
805.199	27675
805.341	27865
805.483	27869
805.626	27907
805.768	27831
805.91	27987
806.052	27907
806.194	27892
806.336	28143
806.478	27968
806.62	27937
806.762	28090
806.904	28150
807.046	28500
807.188	28421
807.33	28333
807.472	28394
807.614	28398
807.756	28443
807.898	28078
808.04	28306
808.182	28188
808.324	28238
808.465	28223
808.607	28637
808.749	28645
808.891	28580
809.033	28656
809.174	28687
809.316	28478
809.458	28744
809.6	28470
809.741	28736
809.883	28790
810.025	28957
810.166	28980
810.308	28877
810.45	28999
810.591	28938
810.733	28645
810.875	28691
811.016	28615
811.158	28611
811.299	28888
811.441	28839
811.582	28839
811.724	28603
811.865	28634
812.007	28618
812.148	28626
812.29	28713
812.431	28748
812.573	28885
812.714	29052
812.855	29124
812.997	29166
813.138	29467
813.279	29379
813.421	29235
813.562	29170
813.703	28987
813.845	28790
813.986	28706
814.127	28474
814.268	28341
814.41	28405
814.551	28306
814.692	28382
814.833	28318
814.974	28318
815.115	28360
815.256	28287
815.397	28093
815.539	28230
815.68	28112
815.821	28055
815.962	28086
816.103	28139
816.244	28097
816.385	27937
816.526	27892
816.666	27774
816.807	27637
816.948	27705
817.089	27816
817.23	27709
817.371	27701
817.512	27656
817.653	27652
817.793	27549
817.934	27622
818.075	27656
818.216	27770
818.356	27587
818.497	27530
818.638	27545
818.778	27313
818.919	27370
819.06	27488
819.2	27599
819.341	27675
819.481	27663
819.622	27736
819.762	28051
819.903	28067
820.043	27831
820.184	27652
820.324	27747
820.465	27709
820.605	27781
820.746	27770
820.886	27690
821.026	27618
821.167	27762
821.307	27838
821.447	27656
821.588	27462
821.728	27393
821.868	27275
822.008	27184
822.149	27192
822.289	27123
822.429	26929
822.569	26746
822.709	26899
822.849	26575
822.99	26682
823.13	26727
823.27	26640
823.41	26530
823.55	26324
823.69	26396
823.83	26427
823.97	26328
824.11	26225
824.25	26214
824.389	26328
824.529	26324
824.669	26324
824.809	26294
824.949	26434
825.089	26278
825.228	26221
825.368	26073
825.508	26161
825.648	26107
825.787	26164
825.927	26221
826.067	26244
826.206	26039
826.346	26111
826.485	26142
826.625	26100
826.765	26282
826.904	26100
827.044	25856
827.183	25818
827.323	25807
827.462	25955
827.601	25906
827.741	25913
827.88	25928
828.02	25734
828.159	25818
828.298	25890
828.437	25928
828.577	25772
828.716	25966
828.855	25700
828.994	25582
829.134	25605
829.273	25457
829.412	25571
829.551	25552
829.69	25537
829.829	25575
829.968	25685
830.107	25609
830.246	25495
830.385	25590
830.524	25407
830.663	25377
830.802	25285
830.941	25217
831.08	25152
831.219	25343
831.357	25187
831.496	25430
831.635	25263
831.774	25084
831.913	25042
832.051	24989
832.19	25008
832.329	25034
832.467	24867
832.606	24764
832.744	24909
832.883	24878
833.022	24726
833.16	24916
833.299	24935
833.437	24749
833.576	25012
833.714	24916
833.852	24977
833.991	24989
834.129	25042
834.267	25095
834.406	24856
834.544	24837
834.682	24962
834.821	24901
834.959	25023
835.097	24909
835.235	24985
835.373	24848
835.511	24924
835.65	24806
835.788	24779
835.926	24665
836.064	24612
836.202	24585
836.34	24806
836.478	24817
836.615	24760
836.753	24711
836.891	24791
837.029	24700
837.167	24646
837.305	24661
837.443	24665
837.58	24513
837.718	24673
837.856	24646
837.993	24403
838.131	24509
838.269	24414
838.406	24441
838.544	24395
838.681	24194
838.819	24235
838.956	23996
839.094	23958
839.231	24133
839.369	24155
839.506	24414
839.643	24258
839.781	24034
839.918	24076
840.055	23958
840.193	23923
840.33	23908
840.467	23882
840.604	23969
840.742	24270
840.879	23840
841.016	23889
841.153	23817
841.29	24171
841.427	23939
841.564	23912
841.701	23980
841.838	24007
841.975	23661
842.112	23840
842.249	23851
842.385	23805
842.522	23923
842.659	23737
842.796	23585
842.933	23714
843.069	23554
843.206	23551
843.343	23809
843.479	23695
843.616	23627
843.752	23505
843.889	23383
844.025	23589
844.162	23440
844.298	23554
844.435	23433
844.571	23474
844.708	23592
844.844	23524
844.98	23531
845.117	23516
845.253	23258
845.389	23303
845.525	23337
845.661	23311
845.798	23235
845.934	23155
846.07	23075
846.206	23223
846.342	23345
846.478	23159
846.614	22991
846.75	22809
846.886	22847
847.022	22984
847.158	22873
847.294	22904
847.429	22927
847.565	22919
847.701	23048
847.837	22744
847.972	22584
848.108	22664
848.244	22573
848.379	22402
848.515	22493
848.65	22390
848.786	22584
848.921	22577
849.057	22584
849.192	22561
849.328	22546
849.463	22497
849.598	22481
849.734	22291
849.869	22272
850.004	22341
850.14	22261
850.275	22223
850.41	22181
850.545	22215
850.68	22211
850.815	22291
850.95	22337
851.085	22500
851.22	22333
851.355	22268
851.49	22257
851.625	22147
851.76	22200
851.895	22219
852.03	22150
852.165	22173
852.299	22371
852.434	22337
852.569	22348
852.703	22200
852.838	22303
852.973	22390
853.107	22436
853.242	22295
853.376	22215
853.511	21956
853.645	21892
853.78	22154
853.914	22158
854.048	22059
854.183	22078
854.317	22051
854.451	22150
854.585	22173
854.72	22204
854.854	22211
854.988	22090
855.122	22086
855.256	21941
855.39	22044
855.524	22169
855.658	22090
855.792	21987
855.926	22207
856.06	22246
856.194	22143
856.327	22013
856.461	21998
856.595	21941
856.729	22135
856.862	22143
856.996	22181
857.13	22131
857.263	22291
857.397	22109
857.53	22070
857.664	22166
857.797	22147
857.931	22230
858.064	21941
858.197	22150
858.331	22166
858.464	22086
858.597	21956
858.731	22139
858.864	22010
858.997	22086
859.13	22101
859.263	22010
859.396	22082
859.529	22029
859.662	21991
859.795	21926
859.928	22116
860.061	22272
860.194	22226
860.327	22196
860.46	22120
860.592	22200
860.725	22135
860.858	22082
860.99	22067
861.123	21934
861.256	22078
861.388	22109
861.521	22881
861.653	21873
861.786	21869
861.918	21922
862.05	21876
862.183	22166
862.315	22002
862.447	22074
862.58	22059
862.712	21835
862.844	21808
862.976	21922
863.108	21838
863.24	22162
863.372	21797
863.504	21759
863.636	21606
863.768	21804
863.9	21686
864.032	21804
864.164	21633
864.296	21686
864.428	21880
864.559	22002
864.691	21835
864.823	21774
864.954	21709
865.086	21720
865.217	21686
865.349	21679
865.48	21557
865.612	21675
865.743	21816
865.875	21759
866.006	21538
866.137	21663
866.269	21572
866.4	21717
866.531	21709
866.662	21614
866.793	21610
866.924	21660
867.055	21561
867.186	21538
867.317	21599
867.448	21641
867.579	21526
867.71	21424
867.841	21557
867.972	21686
868.103	21591
868.233	21496
868.364	21530
868.495	21679
868.625	21736
868.756	21960
868.886	21759
869.017	21823
869.147	21937
869.278	21895
869.408	21850
869.539	21876
869.669	21835
869.799	21903
869.929	22002
870.06	21953
870.19	22147
870.32	22211
870.45	22188
870.58	22177
870.71	22314
870.84	22371
870.97	22116
871.1	22314
871.23	22474
871.36	22398
871.489	22310
871.619	22402
871.749	22356
871.879	22424
872.008	22580
872.138	22409
872.267	22451
872.397	22451
872.526	22124
872.656	22204
872.785	22223
872.915	22272
873.044	22664
873.173	22478
873.303	22481
873.432	22618
873.561	22618
873.69	22462
873.819	22409
873.948	22417
874.077	22459
874.206	22356
874.335	22421
874.464	22584
874.593	22679
874.722	22554
874.851	22733
874.979	22736
875.108	22664
875.237	22698
875.365	22550
875.494	22577
875.623	22736
875.751	22618
875.88	22626
876.008	22843
876.136	22862
876.265	23041
876.393	23185
876.521	23109
876.65	23189
876.778	23041
876.906	22942
877.034	22991
877.162	22953
877.29	23010
877.418	23018
877.546	23143
877.674	22972
877.802	23064
877.93	23018
878.058	22938
878.185	22793
878.313	22919
878.441	23098
878.568	22862
878.696	22923
878.824	23052
878.951	22995
879.079	23143
879.206	23345
879.333	23056
879.461	23113
879.588	23208
879.715	23223
879.842	23379
879.97	23128
880.097	22812
880.224	22965
880.351	22854
880.478	22930
880.605	22771
880.732	22748
880.859	23044
880.986	22763
881.112	22839
881.239	22710
881.366	22637
881.493	22607
881.619	22489
881.746	22421
881.872	22428
881.999	22417
882.125	22360
882.252	22451
882.378	22310
882.505	22455
882.631	22150
882.757	22010
882.883	22215
883.01	22192
883.136	22070
883.262	21953
883.388	22025
883.514	22215
883.64	22147
883.766	21979
883.892	21953
884.018	21918
884.143	21991
884.269	22185
884.395	21797
884.52	21766
884.646	21816
884.772	21701
884.897	21599
885.023	21785
885.148	21724
885.274	21880
885.399	21903
885.524	21637
885.65	21709
885.775	21789
885.9	21743
886.025	21835
886.15	21755
886.275	21625
886.4	21698
886.525	21576
886.65	21549
886.775	21614
886.9	21838
887.025	22010
887.149	21770
887.274	21428
887.399	21515
887.523	21519
887.648	21435
887.773	21355
887.897	21568
888.021	21545
888.146	21466
888.27	21591
888.395	21641
888.519	21382
888.643	21466
888.767	21500
888.891	21545
889.015	21370
889.139	21306
889.263	21363
889.387	21329
889.511	21496
889.635	21431
889.759	21294
889.883	21161
890.006	21195
890.13	21317
890.254	21226
890.377	21184
890.501	20975
890.624	21001
890.748	21047
890.871	21074
890.995	20785
891.118	20663
891.241	20758
891.364	20914
891.488	20891
891.611	20842
891.734	20800
891.857	20823
891.98	20868
892.103	20762
892.226	20785
892.349	20815
892.471	20537
892.594	20678
892.717	20701
892.839	20625
892.962	20727
893.085	20731
893.207	20693
893.33	20720
893.452	20735
893.575	20804
893.697	20667
893.819	20819
893.941	20956
894.064	20902
894.186	20575
894.308	20678
894.43	20887
894.552	20868
894.674	20777
894.796	20636
894.918	20621
895.04	20716
895.161	20708
895.283	20785
895.405	20807
895.526	20689
895.648	20697
895.769	20739
895.891	20697
896.012	20743
896.134	20845
896.255	20598
896.376	20804
896.498	20651
896.619	20830
896.74	20807
896.861	20823
896.982	21020
897.103	21058
897.224	20956
897.345	20895
897.466	20880
897.587	20891
897.708	21032
897.828	20944
897.949	20807
898.07	20613
898.19	20838
898.311	20986
898.431	20823
898.552	20876
898.672	20971
898.792	21020
898.913	20929
899.033	20807
899.153	20754
899.273	20617
899.393	20724
899.513	20598
899.633	20754
899.753	20602
899.873	20552
899.993	20560
900.113	20602
900.232	20594
900.352	20556
900.472	20564
900.591	20370
900.711	20533
900.83	20438
900.95	20526
901.069	20560
901.189	20381
901.308	19989
901.427	19967
901.546	20046
901.665	19967
901.784	20027
901.904	19963
902.023	19746
902.141	19578
902.26	19620
902.379	19605
902.498	19499
902.617	19544
902.735	19544
902.854	19464
902.973	19495
903.091	19198
903.21	19129
903.328	19187
903.446	19057
903.565	18966
903.683	18932
903.801	18844
903.919	18909
904.038	19000
904.156	18802
904.274	18798
904.392	18684
904.51	18738
904.627	18608
904.745	18848
904.863	18749
904.981	18601
905.098	18399
905.216	18448
905.334	18376
905.451	18372
905.569	18376
905.686	18384
905.803	18372
905.921	18178
906.038	18289
906.155	18125
906.272	17958
906.389	18194
906.506	17958
906.623	17942
906.74	17851
906.857	17752
906.974	17828
907.091	17942
907.208	18095
907.324	18011
907.441	17733
907.557	17642
907.674	17566
907.79	17558
907.907	17642
908.023	17627
908.139	17611
908.256	17512
908.372	17516
908.488	17619
908.604	17303
908.72	17395
908.836	17341
908.952	17326
909.068	17372
909.184	17459
909.3	17296
909.415	17379
909.531	17284
909.647	17094
909.762	17113
909.878	17003
909.993	17067
910.108	16984
910.224	16908
910.339	16999
910.454	16816
910.57	16892
910.685	16710
910.8	16965
910.915	16972
911.03	16774
911.145	16634
911.259	16588
911.374	16649
911.489	16592
911.604	16573
911.718	16363
911.833	16375
911.947	16329
912.062	16238
912.176	16474
912.291	16417
912.405	16386
912.519	16493
912.633	16550
912.748	16329
912.862	16276
912.976	16188
913.09	16029
913.204	16226
913.318	16238
913.431	16337
913.545	16268
913.659	16299
913.772	16059
913.886	16086
914	15994
914.113	16112
914.226	16112
914.34	15956
914.453	15895
914.566	16021
914.68	15778
914.793	15804
914.906	15568
915.019	15652
915.132	15538
915.245	15549
915.358	15572
915.47	15614
915.583	15542
915.696	15599
915.809	15717
915.921	15804
916.034	15428
916.146	15450
916.259	15443
916.371	15485
916.483	15663
916.595	15412
916.708	15405
916.82	15408
916.932	15389
917.044	15389
917.156	15367
917.268	15169
917.38	15249
917.491	15233
917.603	15195
917.715	15294
917.826	15264
917.938	15127
918.049	15070
918.161	15169
918.272	15272
918.384	15222
918.495	15199
918.606	15024
918.717	14883
918.828	14994
918.939	15009
919.05	14845
919.161	14941
919.272	14670
919.383	14773
919.494	14921
919.604	15123
919.715	15066
919.826	14834
919.936	14925
920.047	14998
920.157	14880
920.267	15142
920.378	14864
920.488	14902
920.598	15017
920.708	15176
920.818	14990
920.928	15058
921.038	15176
921.148	15104
921.258	14849
921.368	14686
921.477	14648
921.587	14746
921.697	14545
921.806	14644
921.916	14526
922.025	14355
922.134	14282
922.244	14313
922.353	14362
922.462	14164
922.571	14039
922.68	13951
922.789	13917
922.898	13982
923.007	13852
923.116	13913
923.224	13841
923.333	13928
923.442	13742
923.55	13746
923.659	13750
923.767	13864
923.876	13681
923.984	13723
924.092	13613
924.201	13700
924.309	13636
924.417	13601
924.525	13533
924.633	13575
924.741	14343
924.849	13350
924.956	13525
925.064	13362
925.172	13240
925.279	13308
925.387	13297
925.494	13301
925.602	13441
925.709	13293
925.816	13171
925.924	13171
926.031	13377
926.138	13255
926.245	13304
926.352	13244
926.459	13225
926.566	13304
926.673	13240
926.779	13103
926.886	13042
926.993	12973
927.099	12890
927.206	12817
927.312	12829
927.419	12867
927.525	12897
927.631	12882
927.737	12787
927.843	12681
927.95	12589
928.056	12631
928.162	12692
928.267	12684
928.373	13312
928.479	12688
928.585	12570
928.69	12726
928.796	12627
928.901	12547
929.007	12369
929.112	12479
929.218	12517
929.323	12445
929.428	12418
929.533	12540
929.638	12262
929.743	12300
929.848	12429
929.953	12258
930.058	12292
930.163	12095
930.267	12034
930.372	12190
930.477	12140
930.581	12311
930.685	12041
930.79	12011
930.894	12045
930.998	11942
931.103	12068
931.207	11676
931.311	11627
931.415	11615
931.519	11391
931.623	11406
