Data from test_V78500241_488.txt Node
Date: Fri Mar 25 15:45:10 CST 2022
User: usil
Spectrometer: V785-0024
Trigger mode: 0
Integration Time (sec): 4.000000E-1
Scans to average: 1
Nonlinearity correction enabled: false
Boxcar width: 0
Storing dark spectrum: false
XAxis mode: Wavelengths
Number of Pixels in Spectrum: 1024
>>>>>Begin Spectral Data<<<<<
801.071	27523
801.214	27275
801.356	27013
801.499	27028
801.641	26895
801.783	26933
801.926	26975
802.068	26788
802.211	26693
802.353	26602
802.496	26415
802.638	26442
802.78	26431
802.923	26309
803.065	26453
803.208	26484
803.35	26484
803.492	26648
803.635	26678
803.777	26404
803.919	26492
804.061	26937
804.204	26697
804.346	26526
804.488	26492
804.63	26503
804.773	26492
804.915	26609
805.057	26743
805.199	26484
805.341	26720
805.483	26659
805.626	26727
805.768	26617
805.91	26739
806.052	26712
806.194	26663
806.336	26880
806.478	26644
806.62	26659
806.762	26857
806.904	26887
807.046	27256
807.188	27127
807.33	27089
807.472	27131
807.614	27039
807.756	27058
807.898	26735
808.04	26872
808.182	26921
808.324	26918
808.465	27009
808.607	27154
808.749	27260
808.891	27336
809.033	27427
809.174	27363
809.316	27302
809.458	27393
809.6	27348
809.741	27321
809.883	27427
810.025	27545
810.166	27545
810.308	27500
810.45	27450
810.591	27557
810.733	27401
810.875	27237
811.016	27249
811.158	27336
811.299	27405
811.441	27599
811.582	27557
811.724	27252
811.865	27329
812.007	27249
812.148	27188
812.29	27355
812.431	27397
812.573	27583
812.714	27625
812.855	27941
812.997	28017
813.138	28112
813.279	27899
813.421	27755
813.562	27713
813.703	27667
813.845	27507
813.986	27260
814.127	27062
814.268	27047
814.41	26952
814.551	27036
814.692	27093
814.833	26963
814.974	27055
815.115	26762
815.256	26781
815.397	26944
815.539	27001
815.68	26762
815.821	26724
815.962	26720
816.103	26834
816.244	26701
816.385	26488
816.526	26537
816.666	26343
816.807	26271
816.948	26313
817.089	26473
817.23	26275
817.371	26214
817.512	26244
817.653	26240
817.793	26138
817.934	26168
818.075	26256
818.216	26214
818.356	26267
818.497	26138
818.638	25951
818.778	26016
818.919	25947
819.06	25928
819.2	26191
819.341	26168
819.481	26164
819.622	26275
819.762	26651
819.903	26419
820.043	26412
820.184	26404
820.324	26355
820.465	26339
820.605	26415
820.746	26370
820.886	26088
821.026	26282
821.167	26248
821.307	26358
821.447	26210
821.588	26119
821.728	26191
821.868	25864
822.008	25670
822.149	25639
822.289	25677
822.429	25381
822.569	25343
822.709	25400
822.849	25107
822.99	25137
823.13	25187
823.27	25088
823.41	25103
823.55	24863
823.69	25065
823.83	25122
823.97	25042
824.11	24772
824.25	24669
824.389	24760
824.529	24882
824.669	24848
824.809	24901
824.949	25004
825.089	24947
825.228	24844
825.368	24616
825.508	24559
825.648	24741
825.787	24738
825.927	24795
826.067	24726
826.206	24722
826.346	24745
826.485	24837
826.625	24692
826.765	24825
826.904	24825
827.044	24525
827.183	24388
827.323	24563
827.462	24330
827.601	24486
827.741	24296
827.88	24483
828.02	24209
828.159	24266
828.298	24494
828.437	24475
828.577	24525
828.716	24448
828.855	24300
828.994	24087
829.134	24079
829.273	24041
829.412	24022
829.551	24079
829.69	24007
829.829	24110
829.968	24205
830.107	24140
830.246	24022
830.385	23980
830.524	23996
830.663	23893
830.802	23703
830.941	23741
831.08	23623
831.219	23680
831.357	23847
831.496	23813
831.635	23710
831.774	23493
831.913	23539
832.051	23471
832.19	23440
832.329	23376
832.467	23345
832.606	23345
832.744	23364
832.883	23509
833.022	23254
833.16	23299
833.299	23463
833.437	23459
833.576	23486
833.714	23463
833.852	23539
833.991	23478
834.129	23440
834.267	23566
834.406	23429
834.544	23356
834.682	23566
834.821	23337
834.959	23657
835.097	23433
835.235	23455
835.373	23356
835.511	23436
835.65	23345
835.788	23337
835.926	23071
836.064	23090
836.202	23071
836.34	23376
836.478	23296
836.615	23189
836.753	23239
836.891	23337
837.029	23231
837.167	23258
837.305	23094
837.443	23041
837.58	23071
837.718	23018
837.856	23193
837.993	23041
838.131	23140
838.269	22957
838.406	23067
838.544	22843
838.681	22717
838.819	22637
838.956	22584
839.094	22489
839.231	22637
839.369	22896
839.506	22957
839.643	22953
839.781	22649
839.918	22512
840.055	22489
840.193	22538
840.33	22561
840.467	22557
840.604	22531
840.742	22820
840.879	22375
841.016	22394
841.153	22470
841.29	22611
841.427	22546
841.564	22569
841.701	22504
841.838	22546
841.975	22424
842.112	22428
842.249	22230
842.385	22295
842.522	22512
842.659	22238
842.796	22310
842.933	22318
843.069	22238
843.206	22287
843.343	22246
843.479	22272
843.616	22166
843.752	21945
843.889	22112
844.025	22162
844.162	22013
844.298	22128
844.435	22063
844.571	21869
844.708	22040
844.844	22162
844.98	22200
845.117	22059
845.253	21941
845.389	21865
845.525	21953
845.661	21804
845.798	21759
845.934	21964
846.07	21656
846.206	21873
846.342	21998
846.478	21743
846.614	21534
846.75	21500
846.886	21351
847.022	21561
847.158	21538
847.294	21485
847.429	21466
847.565	21447
847.701	21694
847.837	21294
847.972	21264
848.108	21256
848.244	21283
848.379	21142
848.515	21066
848.65	21009
848.786	20929
848.921	21058
849.057	21028
849.192	21131
849.328	21077
849.463	21173
849.598	20944
849.734	21020
849.869	20979
850.004	20819
850.14	20918
850.275	20834
850.41	20842
850.545	20758
850.68	20925
850.815	20845
850.95	20769
851.085	20979
851.22	21017
851.355	20941
851.49	20853
851.625	20883
851.76	20811
851.895	20895
852.03	20731
852.165	20887
852.299	20902
852.434	21032
852.569	20788
852.703	20800
852.838	20937
852.973	21043
853.107	21074
853.242	20788
853.376	20644
853.511	20568
853.645	20617
853.78	20830
853.914	20731
854.048	20629
854.183	20739
854.317	20556
854.451	20777
854.585	20693
854.72	20629
854.854	20807
854.988	20606
855.122	20625
855.256	20484
855.39	20583
855.524	20701
855.658	20678
855.792	20636
855.926	20655
856.06	20819
856.194	20792
856.327	20556
856.461	20541
856.595	20552
856.729	20697
856.862	20842
856.996	20762
857.13	20716
857.263	20792
857.397	20857
857.53	20758
857.664	20629
857.797	20762
857.931	20762
858.064	20750
858.197	20758
858.331	20682
858.464	20644
858.597	20568
858.731	20678
858.864	20594
858.997	20731
859.13	20804
859.263	20777
859.396	20815
859.529	20640
859.662	20549
859.795	20575
859.928	20549
860.061	20716
860.194	20899
860.327	20739
860.46	20674
860.592	20765
860.725	20750
860.858	20765
860.99	20644
861.123	20667
861.256	20518
861.388	20571
861.521	21199
861.653	20530
861.786	20446
861.918	20480
862.05	20571
862.183	20533
862.315	20708
862.447	20648
862.58	20541
862.712	20446
862.844	20298
862.976	20412
863.108	20374
863.24	20804
863.372	20324
863.504	20446
863.636	20366
863.768	20370
863.9	20438
864.032	20183
864.164	20214
864.296	20473
864.428	20522
864.559	20309
864.691	20381
864.823	20393
864.954	20347
865.086	20267
865.217	20263
865.349	20278
865.48	20225
865.612	20290
865.743	20450
865.875	20210
866.006	20275
866.137	20301
866.269	20187
866.4	20206
866.531	20149
866.662	20149
866.793	20271
866.924	20362
867.055	20286
867.186	20309
867.317	20145
867.448	20145
867.579	20229
867.71	20130
867.841	20134
867.972	20233
868.103	20237
868.233	20244
868.364	20237
868.495	20275
868.625	20465
868.756	20499
868.886	20351
869.017	20514
869.147	20533
869.278	20571
869.408	20522
869.539	20488
869.669	20606
869.799	20625
869.929	20602
870.06	20514
870.19	20872
870.32	20716
870.45	20823
870.58	20994
870.71	20921
870.84	20941
870.97	20830
871.1	20910
871.23	20982
871.36	21039
871.489	20933
871.619	21009
871.749	21055
871.879	21100
872.008	21188
872.138	21020
872.267	21028
872.397	20975
872.526	20971
872.656	20952
872.785	20883
872.915	21039
873.044	21199
873.173	21024
873.303	21176
873.432	21085
873.561	21260
873.69	21055
873.819	21062
873.948	21188
874.077	21131
874.206	21119
874.335	21112
874.464	21310
874.593	21230
874.722	21291
874.851	21363
874.979	21450
875.108	21370
875.237	21325
875.365	21291
875.494	21374
875.623	21481
875.751	21317
875.88	21249
876.008	21370
876.136	21492
876.265	21675
876.393	21857
876.521	21793
876.65	21793
876.778	21717
876.906	21667
877.034	21641
877.162	21705
877.29	21603
877.418	21701
877.546	21774
877.674	21610
877.802	21519
877.93	21606
878.058	21591
878.185	21587
878.313	21652
878.441	21633
878.568	21488
878.696	21629
878.824	21701
878.951	21739
879.079	21888
879.206	22059
879.333	21854
879.461	21698
879.588	21903
879.715	21857
879.842	21949
879.97	21857
880.097	21504
880.224	21435
880.351	21549
880.478	21496
880.605	21462
880.732	21553
880.859	21690
880.986	21408
881.112	21504
881.239	21397
881.366	21176
881.493	21214
881.619	21028
881.746	21108
881.872	21123
881.999	21009
882.125	21093
882.252	21131
882.378	21013
882.505	21249
882.631	20963
882.757	20819
882.883	20773
883.01	20849
883.136	20686
883.262	20640
883.388	20552
883.514	20769
883.64	20823
883.766	20689
883.892	20560
884.018	20701
884.143	20724
884.269	20830
884.395	20583
884.52	20343
884.646	20434
884.772	20336
884.897	20301
885.023	20465
885.148	20514
885.274	20568
885.399	20492
885.524	20366
885.65	20389
885.775	20469
885.9	20328
886.025	20370
886.15	20552
886.275	20393
886.4	20309
886.525	20389
886.65	20355
886.775	20328
886.9	20537
887.025	20594
887.149	20305
887.274	20191
887.399	20237
887.523	20111
887.648	20012
887.773	20130
887.897	20320
888.021	20100
888.146	20115
888.27	20237
888.395	20396
888.519	20221
888.643	20214
888.767	20324
888.891	20122
889.015	19894
889.139	20157
889.263	20005
889.387	20153
889.511	20267
889.635	20229
889.759	19978
889.883	19967
890.006	20107
890.13	20096
890.254	19993
890.377	19940
890.501	19837
890.624	19830
890.748	19814
890.871	19662
890.995	19624
891.118	19506
891.241	19590
891.364	19662
891.488	19753
891.611	19552
891.734	19537
891.857	19594
891.98	19491
892.103	19601
892.226	19601
892.349	19445
892.471	19449
892.594	19495
892.717	19677
892.839	19480
892.962	19556
893.085	19620
893.207	19438
893.33	19316
893.452	19403
893.575	19525
893.697	19491
893.819	19696
893.941	19734
894.064	19670
894.186	19533
894.308	19362
894.43	19651
894.552	19639
894.674	19548
894.796	19415
894.918	19510
895.04	19514
895.161	19533
895.283	19578
895.405	19518
895.526	19537
895.648	19502
895.769	19548
895.891	19544
896.012	19620
896.134	19575
896.255	19506
896.376	19483
896.498	19533
896.619	19620
896.74	19544
896.861	19605
896.982	19894
897.103	20043
897.224	19849
897.345	19769
897.466	19708
897.587	19712
897.708	19883
897.828	19708
897.949	19723
898.07	19616
898.19	19708
898.311	19784
898.431	19803
898.552	19822
898.672	19700
898.792	19864
898.913	19776
899.033	19635
899.153	19662
899.273	19419
899.393	19499
899.513	19685
899.633	19472
899.753	19480
899.873	19487
899.993	19559
900.113	19430
900.232	19518
900.352	19518
900.472	19362
900.591	19331
900.711	19343
900.83	19297
900.95	19339
901.069	19441
901.189	19251
901.308	19008
901.427	18928
901.546	19057
901.665	19038
901.784	18913
901.904	18814
902.023	18650
902.141	18578
902.26	18521
902.379	18479
902.498	18414
902.617	18407
902.735	18486
902.854	18464
902.973	18388
903.091	18239
903.21	18072
903.328	18026
903.446	17984
903.565	17954
903.683	17828
903.801	17855
903.919	17802
904.038	17802
904.156	17710
904.274	17760
904.392	17661
904.51	17699
904.627	17748
904.745	17733
904.863	17802
904.981	17429
905.098	17364
905.216	17296
905.334	17387
905.451	17429
905.569	17235
905.686	17376
905.803	17330
905.921	17109
906.038	17189
906.155	17265
906.272	16991
906.389	17124
906.506	16999
906.623	16919
906.74	16835
906.857	16816
906.974	16778
907.091	16915
907.208	17010
907.324	16904
907.441	16801
907.557	16702
907.674	16573
907.79	16527
907.907	16546
908.023	16618
908.139	16573
908.256	16546
908.372	16561
908.488	16489
908.604	16253
908.72	16196
908.836	16268
908.952	16318
909.068	16246
909.184	16341
909.3	16329
909.415	16272
909.531	16325
909.647	16010
909.762	16124
909.878	16044
909.993	16044
910.108	16002
910.224	16036
910.339	15960
910.454	15937
910.57	15880
910.685	15705
910.8	16036
910.915	15926
911.03	15869
911.145	15568
911.259	15633
911.374	15622
911.489	15561
911.604	15542
911.718	15469
911.833	15443
911.947	15378
912.062	15249
912.176	15447
912.291	15401
912.405	15397
912.519	15488
912.633	15618
912.748	15447
912.862	15397
912.976	15241
913.09	15131
913.204	15184
913.318	15199
913.431	15336
913.545	15256
913.659	15192
913.772	15062
913.886	15058
914	14971
914.113	15112
914.226	15112
914.34	15112
914.453	14941
914.566	15047
914.68	14925
914.793	14796
914.906	14762
915.019	14678
915.132	14568
915.245	14636
915.358	14686
915.47	14511
915.583	14651
915.696	14697
915.809	14720
915.921	14754
916.034	14602
916.146	14545
916.259	14511
916.371	14636
916.483	14541
916.595	14469
916.708	14450
916.82	14480
916.932	14393
917.044	14423
917.156	14385
917.268	14320
917.38	14347
917.491	14336
917.603	14259
917.715	14408
917.826	14431
917.938	14256
918.049	14202
918.161	14199
918.272	14423
918.384	14381
918.495	14187
918.606	14100
918.717	14054
918.828	14142
918.939	14054
919.05	13928
919.161	14065
919.272	13894
919.383	14001
919.494	14065
919.604	14301
919.715	14065
919.826	13898
919.936	14012
920.047	14168
920.157	13989
920.267	14202
920.378	14092
920.488	13978
920.598	14187
920.708	14347
920.818	14187
920.928	14187
921.038	14275
921.148	14259
921.258	13936
921.368	13993
921.477	13875
921.587	13734
921.697	13651
921.806	13902
921.916	13552
922.025	13533
922.134	13480
922.244	13358
922.353	13575
922.462	13274
922.571	13251
922.68	13110
922.789	13152
922.898	13126
923.007	13076
923.116	13152
923.224	13019
923.333	13038
923.442	12920
923.55	12939
923.659	12993
923.767	12901
923.876	12810
923.984	13053
924.092	12798
924.201	12810
924.309	12814
924.417	12924
924.525	12829
924.633	12779
924.741	13639
924.849	12612
924.956	12764
925.064	12642
925.172	12467
925.279	12528
925.387	12566
925.494	12604
925.602	12741
925.709	12544
925.816	12490
925.924	12467
926.031	12612
926.138	12506
926.245	12490
926.352	12395
926.459	12574
926.566	12551
926.673	12410
926.779	12315
926.886	12209
926.993	12213
927.099	12087
927.206	12049
927.312	12106
927.419	12121
927.525	12057
927.631	12045
927.737	11999
927.843	12076
927.95	11870
928.056	11992
928.162	11878
928.267	11984
928.373	12536
928.479	12064
928.585	11783
928.69	11904
928.796	11920
928.901	11798
929.007	11741
929.112	11809
929.218	11843
929.323	11783
929.428	11638
929.533	11802
929.638	11638
929.743	11646
929.848	11634
929.953	11619
930.058	11551
930.163	11429
930.267	11368
930.372	11608
930.477	11296
930.581	11661
930.685	11467
930.79	11330
930.894	11292
930.998	11330
931.103	11372
931.207	11071
931.311	10946
931.415	10839
931.519	10774
931.623	10664
