Data from test_V78500241_3734.txt Node
Date: Fri Mar 25 16:07:40 CST 2022
User: usil
Spectrometer: V785-0024
Trigger mode: 0
Integration Time (sec): 4.000000E-1
Scans to average: 1
Nonlinearity correction enabled: false
Boxcar width: 0
Storing dark spectrum: false
XAxis mode: Wavelengths
Number of Pixels in Spectrum: 1024
>>>>>Begin Spectral Data<<<<<
801.071	28090
801.214	28147
801.356	27918
801.499	27816
801.641	27816
801.783	27804
801.926	27743
802.068	27759
802.211	27785
802.353	27675
802.496	27443
802.638	27424
802.78	27249
802.923	27344
803.065	27313
803.208	27275
803.35	27393
803.492	27496
803.635	27648
803.777	27534
803.919	27561
804.061	27964
804.204	27675
804.346	27549
804.488	27515
804.63	27618
804.773	27523
804.915	27618
805.057	27743
805.199	27473
805.341	27728
805.483	27690
805.626	27804
805.768	27679
805.91	27816
806.052	27835
806.194	27622
806.336	27774
806.478	27778
806.62	27675
806.762	27876
806.904	27888
807.046	28299
807.188	28226
807.33	28192
807.472	28325
807.614	28097
807.756	28143
807.898	28067
808.04	28048
808.182	27941
808.324	28059
808.465	28090
808.607	28173
808.749	28592
808.891	28401
809.033	28573
809.174	28561
809.316	28417
809.458	28516
809.6	28375
809.741	28573
809.883	28554
810.025	28752
810.166	28618
810.308	28706
810.45	28748
810.591	28626
810.733	28417
810.875	28455
811.016	28375
811.158	28405
811.299	28447
811.441	28645
811.582	28607
811.724	28478
811.865	28409
812.007	28394
812.148	28474
812.29	28489
812.431	28641
812.573	28835
812.714	28793
812.855	28908
812.997	29113
813.138	29178
813.279	29075
813.421	28995
813.562	28881
813.703	28896
813.845	28713
813.986	28375
814.127	28147
814.268	28128
814.41	28143
814.551	27975
814.692	28101
814.833	28040
814.974	28116
815.115	28017
815.256	27964
815.397	27998
815.539	28013
815.68	27895
815.821	27720
815.962	27850
816.103	27964
816.244	27835
816.385	27690
816.526	27705
816.666	27587
816.807	27458
816.948	27485
817.089	27439
817.23	27340
817.371	27298
817.512	27344
817.653	27431
817.793	27412
817.934	27226
818.075	27401
818.216	27355
818.356	27427
818.497	27275
818.638	27214
818.778	27066
818.919	27165
819.06	27230
819.2	27222
819.341	27332
819.481	27336
819.622	27625
819.762	27663
819.903	27781
820.043	27743
820.184	27519
820.324	27553
820.465	27583
820.605	27591
820.746	27481
820.886	27389
821.026	27439
821.167	27511
821.307	27557
821.447	27458
821.588	27405
821.728	27112
821.868	26975
822.008	26883
822.149	26834
822.289	26804
822.429	26587
822.569	26651
822.709	26552
822.849	26465
822.99	26385
823.13	26370
823.27	26473
823.41	26191
823.55	26271
823.69	26328
823.83	26214
823.97	26153
824.11	26024
824.25	26020
824.389	25986
824.529	26111
824.669	26119
824.809	26008
824.949	26233
825.089	26077
825.228	26183
825.368	25795
825.508	25830
825.648	25936
825.787	26005
825.927	25898
826.067	25944
826.206	25951
826.346	26069
826.485	26039
826.625	25906
826.765	25940
826.904	25936
827.044	25852
827.183	25658
827.323	25567
827.462	25753
827.601	25609
827.741	25460
827.88	25658
828.02	25464
828.159	25529
828.298	25548
828.437	25715
828.577	25658
828.716	25594
828.855	25559
828.994	25274
829.134	25331
829.273	25232
829.412	25225
829.551	25247
829.69	25187
829.829	25327
829.968	25464
830.107	25438
830.246	25327
830.385	25278
830.524	25240
830.663	25179
830.802	25027
830.941	25038
831.08	24844
831.219	24905
831.357	25038
831.496	25175
831.635	24916
831.774	24734
831.913	24817
832.051	24791
832.19	24730
832.329	24863
832.467	24490
832.606	24483
832.744	24604
832.883	24597
833.022	24570
833.16	24604
833.299	24585
833.437	24559
833.576	24608
833.714	24757
833.852	24787
833.991	24779
834.129	24722
834.267	24722
834.406	24696
834.544	24776
834.682	24658
834.821	24646
834.959	24848
835.097	24631
835.235	24711
835.373	24677
835.511	24532
835.65	24597
835.788	24608
835.926	24361
836.064	24304
836.202	24262
836.34	24479
836.478	24654
836.615	24399
836.753	24483
836.891	24696
837.029	24460
837.167	24441
837.305	24384
837.443	24323
837.58	24327
837.718	24384
837.856	24205
837.993	24289
838.131	24319
838.269	24194
838.406	24319
838.544	23992
838.681	23866
838.819	23923
838.956	23684
839.094	23771
839.231	23863
839.369	23878
839.506	24129
839.643	24053
839.781	23779
839.918	23824
840.055	23824
840.193	23684
840.33	23756
840.467	23741
840.604	23699
840.742	23973
840.879	23501
841.016	23672
841.153	23581
841.29	23680
841.427	23604
841.564	23745
841.701	23752
841.838	23680
841.975	23570
842.112	23642
842.249	23501
842.385	23478
842.522	23733
842.659	23474
842.796	23440
842.933	23349
843.069	23421
843.206	23497
843.343	23417
843.479	23395
843.616	23589
843.752	23318
843.889	23193
844.025	23311
844.162	23292
844.298	23440
844.435	23246
844.571	23212
844.708	23162
844.844	23520
844.98	23410
845.117	23398
845.253	23151
845.389	23086
845.525	23159
845.661	22968
845.798	22896
845.934	23071
846.07	22953
846.206	23071
846.342	23178
846.478	22984
846.614	22717
846.75	22637
846.886	22675
847.022	22812
847.158	22622
847.294	22664
847.429	22622
847.565	22653
847.701	22946
847.837	22451
847.972	22409
848.108	22462
848.244	22455
848.379	22333
848.515	22348
848.65	22261
848.786	22329
848.921	22242
849.057	22367
849.192	22352
849.328	22546
849.463	22322
849.598	22226
849.734	22265
849.869	22139
850.004	22090
850.14	22143
850.275	22059
850.41	22010
850.545	21968
850.68	22013
850.815	21991
850.95	22025
851.085	22257
851.22	22162
851.355	22048
851.49	21987
851.625	22032
851.76	21934
851.895	21937
852.03	21903
852.165	22013
852.299	22055
852.434	22166
852.569	22128
852.703	22029
852.838	22078
852.973	22154
853.107	22204
853.242	21827
853.376	21884
853.511	21785
853.645	21827
853.78	21934
853.914	21857
854.048	21899
854.183	21861
854.317	21907
854.451	22051
854.585	21911
854.72	21823
854.854	21823
854.988	21804
855.122	21880
855.256	21873
855.39	21835
855.524	21937
855.658	21842
855.792	21960
855.926	21876
856.06	21926
856.194	21937
856.327	21892
856.461	21968
856.595	21751
856.729	21937
856.862	21979
856.996	22040
857.13	21895
857.263	22036
857.397	21934
857.53	21816
857.664	21884
857.797	22086
857.931	21895
858.064	22055
858.197	22021
858.331	21930
858.464	21873
858.597	21793
858.731	21857
858.864	21728
858.997	21846
859.13	21800
859.263	21899
859.396	21972
859.529	21819
859.662	21789
859.795	21808
859.928	21865
860.061	21930
860.194	22207
860.327	21899
860.46	21998
860.592	21945
860.725	22021
860.858	21949
860.99	21842
861.123	21819
861.256	21850
861.388	21979
861.521	22588
861.653	21770
861.786	21675
861.918	21686
862.05	21694
862.183	21819
862.315	21823
862.447	21907
862.58	21785
862.712	21564
862.844	21549
862.976	21610
863.108	21526
863.24	22040
863.372	21473
863.504	21504
863.636	21545
863.768	21755
863.9	21549
864.032	21553
864.164	21587
864.296	21587
864.428	21614
864.559	21576
864.691	21603
864.823	21591
864.954	21515
865.086	21542
865.217	21564
865.349	21408
865.48	21370
865.612	21477
865.743	21545
865.875	21519
866.006	21507
866.137	21519
866.269	21416
866.4	21492
866.531	21370
866.662	21374
866.793	21401
866.924	21367
867.055	21466
867.186	21435
867.317	21332
867.448	21279
867.579	21325
867.71	21294
867.841	21332
867.972	21431
868.103	21382
868.233	21408
868.364	21496
868.495	21526
868.625	21610
868.756	21797
868.886	21603
869.017	21538
869.147	21663
869.278	21671
869.408	21698
869.539	21542
869.669	21781
869.799	21736
869.929	21861
870.06	21800
870.19	22013
870.32	22002
870.45	22055
870.58	21945
870.71	22109
870.84	22223
870.97	22029
871.1	22010
871.23	22158
871.36	22059
871.489	22048
871.619	22310
871.749	22276
871.879	22242
872.008	22421
872.138	22219
872.267	22333
872.397	22090
872.526	22010
872.656	22135
872.785	22055
872.915	22230
873.044	22363
873.173	22413
873.303	22287
873.432	22291
873.561	22421
873.69	22409
873.819	22219
873.948	22341
874.077	22325
874.206	22192
874.335	22348
874.464	22348
874.593	22402
874.722	22455
874.851	22519
874.979	22538
875.108	22557
875.237	22436
875.365	22306
875.494	22535
875.623	22580
875.751	22440
875.88	22459
876.008	22603
876.136	22637
876.265	22858
876.393	22957
876.521	22999
876.65	22965
876.778	22812
876.906	22915
877.034	22869
877.162	22824
877.29	22854
877.418	22904
877.546	22843
877.674	22930
877.802	22908
877.93	22843
878.058	22767
878.185	22664
878.313	22771
878.441	22679
878.568	22668
878.696	22877
878.824	22904
878.951	22881
879.079	23006
879.206	23231
879.333	23060
879.461	22850
879.588	23029
879.715	22896
879.842	23159
879.97	22877
880.097	22622
880.224	22683
880.351	22679
880.478	22748
880.605	22660
880.732	22687
880.859	22877
880.986	22626
881.112	22702
881.239	22447
881.366	22443
881.493	22382
881.619	22249
881.746	22188
881.872	22177
881.999	22135
882.125	22200
882.252	22253
882.378	22295
882.505	22337
882.631	22010
882.757	21918
882.883	21987
883.01	21827
883.136	21930
883.262	21755
883.388	21759
883.514	21998
883.64	21979
883.766	21854
883.892	21732
884.018	21701
884.143	21774
884.269	21873
884.395	21622
884.52	21576
884.646	21660
884.772	21507
884.897	21599
885.023	21538
885.148	21698
885.274	21564
885.399	21534
885.524	21481
885.65	21561
885.775	21515
885.9	21420
886.025	21698
886.15	21671
886.275	21561
886.4	21507
886.525	21431
886.65	21393
886.775	21435
886.9	21641
887.025	21865
887.149	21469
887.274	21252
887.399	21348
887.523	21367
887.648	21218
887.773	21207
887.897	21401
888.021	21469
888.146	21374
888.27	21458
888.395	21382
888.519	21424
888.643	21298
888.767	21378
888.891	21180
889.015	21093
889.139	21222
889.263	21077
889.387	21245
889.511	21443
889.635	21135
889.759	21142
889.883	21005
890.006	21036
890.13	21116
890.254	20986
890.377	21024
890.501	20845
890.624	20834
890.748	20952
890.871	20735
890.995	20663
891.118	20533
891.241	20705
891.364	20678
891.488	20830
891.611	20625
891.734	20762
891.857	20724
891.98	20621
892.103	20796
892.226	20674
892.349	20701
892.471	20507
892.594	20579
892.717	20560
892.839	20560
892.962	20621
893.085	20758
893.207	20678
893.33	20389
893.452	20476
893.575	20587
893.697	20480
893.819	20667
893.941	20724
894.064	20670
894.186	20370
894.308	20511
894.43	20663
894.552	20689
894.674	20667
894.796	20415
894.918	20621
895.04	20374
895.161	20667
895.283	20480
895.405	20438
895.526	20549
895.648	20625
895.769	20613
895.891	20514
896.012	20629
896.134	20514
896.255	20556
896.376	20537
896.498	20495
896.619	20606
896.74	20560
896.861	20617
896.982	20807
897.103	21066
897.224	20823
897.345	20678
897.466	20644
897.587	20727
897.708	20857
897.828	20781
897.949	20693
898.07	20476
898.19	20617
898.311	20883
898.431	20750
898.552	20739
898.672	20872
898.792	20887
898.913	20720
899.033	20663
899.153	20705
899.273	20533
899.393	20461
899.513	20552
899.633	20545
899.753	20533
899.873	20469
899.993	20636
900.113	20336
900.232	20545
900.352	20427
900.472	20317
900.591	20301
900.711	20358
900.83	20294
900.95	20427
901.069	20313
901.189	20202
901.308	19947
901.427	19906
901.546	19860
901.665	19921
901.784	19909
901.904	19696
902.023	19677
902.141	19419
902.26	19411
902.379	19445
902.498	19377
902.617	19392
902.735	19468
902.854	19327
902.973	19274
903.091	18932
903.21	19019
903.328	19008
903.446	18852
903.565	18913
903.683	18814
903.801	18741
903.919	18848
904.038	18715
904.156	18578
904.274	18654
904.392	18578
904.51	18456
904.627	18623
904.745	18665
904.863	18631
904.981	18445
905.098	18258
905.216	18273
905.334	18235
905.451	18235
905.569	18277
905.686	18323
905.803	18304
905.921	18007
906.038	18098
906.155	18163
906.272	17893
906.389	17992
906.506	17923
906.623	17843
906.74	17832
906.857	17665
906.974	17718
907.091	17836
907.208	17935
907.324	17813
907.441	17615
907.557	17516
907.674	17433
907.79	17379
907.907	17520
908.023	17566
908.139	17532
908.256	17585
908.372	17444
908.488	17345
908.604	17303
908.72	17174
908.836	17212
908.952	17315
909.068	17197
909.184	17360
909.3	17124
909.415	17200
909.531	17280
909.647	17064
909.762	16927
909.878	16873
909.993	16961
910.108	16854
910.224	16839
910.339	16919
910.454	16702
910.57	16771
910.685	16713
910.8	16885
910.915	16885
911.03	16729
911.145	16554
911.259	16481
911.374	16561
911.489	16348
911.604	16405
911.718	16246
911.833	16352
911.947	16143
912.062	16166
912.176	16329
912.291	16306
912.405	16211
912.519	16489
912.633	16405
912.748	16329
912.862	16268
912.976	16116
913.09	16010
913.204	16029
913.318	16055
913.431	16109
913.545	16192
913.659	16192
913.772	16093
913.886	15876
914	15884
914.113	16017
914.226	15994
914.34	15941
914.453	15797
914.566	15850
914.68	15778
914.793	15720
914.906	15538
915.019	15405
915.132	15393
915.245	15496
915.358	15519
915.47	15439
915.583	15561
915.696	15462
915.809	15523
915.921	15534
916.034	15336
916.146	15351
916.259	15389
916.371	15439
916.483	15450
916.595	15363
916.708	15211
916.82	15389
916.932	15230
917.044	15245
917.156	15123
917.268	15135
917.38	15138
917.491	15150
917.603	15009
917.715	15222
917.826	15275
917.938	15043
918.049	14979
918.161	15085
918.272	15245
918.384	15154
918.495	15028
918.606	14929
918.717	14800
918.828	14864
918.939	14826
919.05	14769
919.161	14906
919.272	14674
919.383	14659
919.494	14864
919.604	15058
919.715	14853
919.826	14735
919.936	14811
920.047	14883
920.157	14834
920.267	14990
920.378	14762
920.488	14788
920.598	14914
920.708	15138
920.818	14998
920.928	15020
921.038	15081
921.148	15009
921.258	14731
921.368	14587
921.477	14541
921.587	14587
921.697	14415
921.806	14503
921.916	14454
922.025	14164
922.134	14172
922.244	14157
922.353	14214
922.462	14054
922.571	14016
922.68	13826
922.789	13928
922.898	13898
923.007	13803
923.116	13830
923.224	13803
923.333	13757
923.442	13636
923.55	13636
923.659	13727
923.767	13639
923.876	13628
923.984	13643
924.092	13506
924.201	13613
924.309	13540
924.417	13529
924.525	13483
924.633	13506
924.741	14206
924.849	13232
924.956	13434
925.064	13263
925.172	13179
925.279	13228
925.387	13327
925.494	13202
925.602	13377
925.709	13164
925.816	13114
925.924	13187
926.031	13202
926.138	13221
926.245	13190
926.352	13076
926.459	13187
926.566	13278
926.673	13076
926.779	12954
926.886	13057
926.993	12878
927.099	12738
927.206	12639
927.312	12745
927.419	12776
927.525	12783
927.631	12878
927.737	12772
927.843	12608
927.95	12502
928.056	12532
928.162	12604
928.267	12639
928.373	13278
928.479	12677
928.585	12448
928.69	12578
928.796	12570
928.901	12410
929.007	12350
929.112	12388
929.218	12384
929.323	12338
929.428	12399
929.533	12532
929.638	12277
929.743	12228
929.848	12327
929.953	12266
930.058	12167
930.163	11878
930.267	11942
930.372	12148
930.477	11977
930.581	12171
930.685	12098
930.79	11805
930.894	11863
930.998	11824
931.103	12015
931.207	11661
931.311	11547
931.415	11463
931.519	11212
931.623	11254
