Data from test_V78500241_2627.txt Node
Date: Fri Mar 25 15:59:59 CST 2022
User: usil
Spectrometer: V785-0024
Trigger mode: 0
Integration Time (sec): 4.000000E-1
Scans to average: 1
Nonlinearity correction enabled: false
Boxcar width: 0
Storing dark spectrum: false
XAxis mode: Wavelengths
Number of Pixels in Spectrum: 1024
>>>>>Begin Spectral Data<<<<<
801.071	28927
801.214	28782
801.356	28866
801.499	28656
801.641	28554
801.783	28447
801.926	28596
802.068	28550
802.211	28485
802.353	28447
802.496	28276
802.638	28284
802.78	28166
802.923	28207
803.065	28173
803.208	28265
803.35	28238
803.492	28382
803.635	28432
803.777	28485
803.919	28603
804.061	28881
804.204	28588
804.346	28504
804.488	28455
804.63	28493
804.773	28542
804.915	28584
805.057	28767
805.199	28500
805.341	28618
805.483	28733
805.626	28675
805.768	28717
805.91	28675
806.052	28721
806.194	28512
806.336	28816
806.478	28702
806.62	28748
806.762	28809
806.904	28991
807.046	29227
807.188	29277
807.33	29170
807.472	29220
807.614	29147
807.756	29132
807.898	29006
808.04	28991
808.182	29052
808.324	28976
808.465	29094
808.607	29402
808.749	29425
808.891	29535
809.033	29665
809.174	29482
809.316	29254
809.458	29471
809.6	29486
809.741	29493
809.883	29512
810.025	29866
810.166	29566
810.308	29733
810.45	29703
810.591	29623
810.733	29535
810.875	29375
811.016	29448
811.158	29318
811.299	29372
811.441	29619
811.582	29649
811.724	29490
811.865	29505
812.007	29353
812.148	29554
812.29	29528
812.431	29722
812.573	29828
812.714	29916
812.855	30057
812.997	30136
813.138	30133
813.279	29996
813.421	30091
813.562	29687
813.703	29954
813.845	29581
813.986	29337
814.127	29086
814.268	29010
814.41	29227
814.551	29124
814.692	29318
814.833	29117
814.974	29014
815.115	29246
815.256	29010
815.397	29121
815.539	29071
815.68	28934
815.821	29014
815.962	28888
816.103	28862
816.244	28790
816.385	28702
816.526	28721
816.666	28508
816.807	28329
816.948	28592
817.089	28588
817.23	28698
817.371	28424
817.512	28413
817.653	28466
817.793	28329
817.934	28474
818.075	28401
818.216	28421
818.356	28626
818.497	28542
818.638	28238
818.778	28143
818.919	28306
819.06	28200
819.2	28375
819.341	28462
819.481	28478
819.622	28797
819.762	28877
819.903	28710
820.043	28691
820.184	28611
820.324	28527
820.465	28618
820.605	28694
820.746	28588
820.886	28440
821.026	28698
821.167	28611
821.307	28580
821.447	28500
821.588	28455
821.728	28249
821.868	28188
822.008	28078
822.149	27960
822.289	27934
822.429	27652
822.569	27576
822.709	27591
822.849	27435
822.99	27595
823.13	27462
823.27	27363
823.41	27401
823.55	27287
823.69	27367
823.83	27302
823.97	27104
824.11	27127
824.25	27138
824.389	26960
824.529	27108
824.669	26998
824.809	27374
824.949	27249
825.089	27222
825.228	27195
825.368	26933
825.508	26994
825.648	26990
825.787	27058
825.927	27074
826.067	27032
826.206	27089
826.346	27013
826.485	27093
826.625	26948
826.765	26994
826.904	27009
827.044	26868
827.183	26891
827.323	26689
827.462	26712
827.601	26739
827.741	26735
827.88	26815
828.02	26488
828.159	26644
828.298	26697
828.437	26632
828.577	26629
828.716	26765
828.855	26708
828.994	26381
829.134	26507
829.273	26492
829.412	26309
829.551	26259
829.69	26415
829.829	26404
829.968	26362
830.107	26473
830.246	26423
830.385	26282
830.524	26233
830.663	26263
830.802	26069
830.941	26069
831.08	26069
831.219	26031
831.357	26043
831.496	26157
831.635	25928
831.774	25959
831.913	25860
832.051	25864
832.19	25928
832.329	25928
832.467	25769
832.606	25590
832.744	25563
832.883	25639
833.022	25693
833.16	25712
833.299	25734
833.437	25689
833.576	25715
833.714	25791
833.852	25788
833.991	25776
834.129	25795
834.267	25776
834.406	25765
834.544	25852
834.682	25826
834.821	25780
834.959	25970
835.097	25734
835.235	25655
835.373	25681
835.511	25757
835.65	25639
835.788	25620
835.926	25430
836.064	25514
836.202	25441
836.34	25491
836.478	25689
836.615	25597
836.753	25582
836.891	25715
837.029	25544
837.167	25533
837.305	25308
837.443	25346
837.58	25415
837.718	25479
837.856	25350
837.993	25324
838.131	25457
838.269	25168
838.406	25430
838.544	25202
838.681	25053
838.819	25012
838.956	24867
839.094	24848
839.231	24985
839.369	25038
839.506	25141
839.643	25126
839.781	24878
839.918	24840
840.055	24840
840.193	24920
840.33	24730
840.467	24722
840.604	24882
840.742	25019
840.879	24665
841.016	24627
841.153	24631
841.29	24913
841.427	24730
841.564	24787
841.701	24772
841.838	24848
841.975	24563
842.112	24719
842.249	24612
842.385	24498
842.522	24776
842.659	24452
842.796	24502
842.933	24528
843.069	24380
843.206	24445
843.343	24566
843.479	24525
843.616	24570
843.752	24384
843.889	24342
844.025	24426
844.162	24285
844.298	24418
844.435	24300
844.571	24338
844.708	24311
844.844	24365
844.98	24327
845.117	24350
845.253	24186
845.389	24117
845.525	24087
845.661	24152
845.798	24110
845.934	24159
846.07	24068
846.206	24022
846.342	24167
846.478	24041
846.614	23756
846.75	23558
846.886	23824
847.022	23737
847.158	23707
847.294	23779
847.429	23634
847.565	23646
847.701	23855
847.837	23524
847.972	23573
848.108	23558
848.244	23440
848.379	23356
848.515	23387
848.65	23197
848.786	23273
848.921	23311
849.057	23524
849.192	23265
849.328	23303
849.463	23395
849.598	23117
849.734	23140
849.869	23128
850.004	23193
850.14	23220
850.275	23060
850.41	23029
850.545	23071
850.68	23022
850.815	23151
850.95	23044
851.085	23212
851.22	23200
851.355	23048
851.49	23193
851.625	22999
851.76	23083
851.895	22995
852.03	22991
852.165	23113
852.299	23197
852.434	23121
852.569	23044
852.703	23044
852.838	23113
852.973	23288
853.107	23117
853.242	23056
853.376	23090
853.511	22809
853.645	22824
853.78	23128
853.914	22957
854.048	22957
854.183	23022
854.317	22866
854.451	23029
854.585	22885
854.72	22942
854.854	23044
854.988	22824
855.122	22771
855.256	22755
855.39	22774
855.524	23018
855.658	22976
855.792	22873
855.926	23037
856.06	22896
856.194	22965
856.327	22782
856.461	22889
856.595	22843
856.729	22790
856.862	22995
856.996	22927
857.13	23033
857.263	22995
857.397	23067
857.53	22858
857.664	22942
857.797	23079
857.931	23041
858.064	22957
858.197	23003
858.331	22934
858.464	22637
858.597	22816
858.731	22919
858.864	22881
858.997	22866
859.13	22900
859.263	22809
859.396	22980
859.529	22805
859.662	22828
859.795	22809
859.928	22904
860.061	23044
860.194	23113
860.327	22923
860.46	22965
860.592	22984
860.725	23140
860.858	22946
860.99	22995
861.123	22839
861.256	22927
861.388	22900
861.521	23729
861.653	22847
861.786	22630
861.918	22611
862.05	22812
862.183	22786
862.315	22858
862.447	22812
862.58	22824
862.712	22626
862.844	22561
862.976	22596
863.108	22740
863.24	22980
863.372	22557
863.504	22622
863.636	22580
863.768	22683
863.9	22679
864.032	22618
864.164	22466
864.296	22675
864.428	22713
864.559	22793
864.691	22637
864.823	22557
864.954	22615
865.086	22679
865.217	22379
865.349	22402
865.48	22436
865.612	22516
865.743	22554
865.875	22443
866.006	22565
866.137	22333
866.269	22402
866.4	22493
866.531	22500
866.662	22344
866.793	22481
866.924	22432
867.055	22394
867.186	22440
867.317	22394
867.448	22246
867.579	22428
867.71	22230
867.841	22356
867.972	22417
868.103	22299
868.233	22386
868.364	22417
868.495	22554
868.625	22557
868.756	22736
868.886	22497
869.017	22630
869.147	22740
869.278	22710
869.408	22698
869.539	22698
869.669	22706
869.799	22702
869.929	22820
870.06	22801
870.19	22972
870.32	22805
870.45	22995
870.58	23052
870.71	23174
870.84	23124
870.97	23037
871.1	23044
871.23	23227
871.36	23181
871.489	23041
871.619	23235
871.749	23292
871.879	23189
872.008	23299
872.138	23269
872.267	23212
872.397	23113
872.526	23056
872.656	23048
872.785	23147
872.915	23235
873.044	23349
873.173	23246
873.303	23379
873.432	23299
873.561	23356
873.69	23239
873.819	23185
873.948	23318
874.077	23212
874.206	23269
874.335	23166
874.464	23334
874.593	23471
874.722	23497
874.851	23471
874.979	23440
875.108	23429
875.237	23299
875.365	23277
875.494	23337
875.623	23516
875.751	23455
875.88	23452
876.008	23562
876.136	23646
876.265	24022
876.393	24003
876.521	23904
876.65	23908
876.778	23813
876.906	23741
877.034	23855
877.162	23847
877.29	23752
877.418	23798
877.546	23824
877.674	23870
877.802	23714
877.93	23752
878.058	23581
878.185	23676
878.313	23707
878.441	23733
878.568	23642
878.696	23733
878.824	23764
878.951	23878
879.079	23954
879.206	23954
879.333	23954
879.461	23946
879.588	23817
879.715	23923
879.842	24041
879.97	23942
880.097	23672
880.224	23638
880.351	23794
880.478	23718
880.605	23501
880.732	23870
880.859	23783
880.986	23471
881.112	23646
881.239	23398
881.366	23220
881.493	23261
881.619	23143
881.746	23242
881.872	23204
881.999	23235
882.125	23079
882.252	23178
882.378	23178
882.505	23296
882.631	23014
882.757	22976
882.883	22987
883.01	22793
883.136	22790
883.262	22691
883.388	22694
883.514	22816
883.64	22930
883.766	22885
883.892	22497
884.018	22611
884.143	22755
884.269	22896
884.395	22626
884.52	22451
884.646	22489
884.772	22470
884.897	22424
885.023	22443
885.148	22596
885.274	22550
885.399	22497
885.524	22459
885.65	22451
885.775	22493
885.9	22421
886.025	22451
886.15	22554
886.275	22375
886.4	22318
886.525	22329
886.65	22363
886.775	22413
886.9	22618
887.025	22653
887.149	22527
887.274	22329
887.399	22398
887.523	22173
887.648	22306
887.773	22070
887.897	22207
888.021	22185
888.146	22230
888.27	22204
888.395	22276
888.519	22169
888.643	22291
888.767	22234
888.891	22143
889.015	22010
889.139	22109
889.263	21972
889.387	22299
889.511	22181
889.635	22173
889.759	21956
889.883	22048
890.006	22010
890.13	22002
890.254	21899
890.377	22017
890.501	21808
890.624	21846
890.748	21781
890.871	21637
890.995	21629
891.118	21454
891.241	21557
891.364	21694
891.488	21816
891.611	21587
891.734	21739
891.857	21652
891.98	21622
892.103	21637
892.226	21568
892.349	21583
892.471	21428
892.594	21454
892.717	21671
892.839	21530
892.962	21496
893.085	21553
893.207	21382
893.33	21351
893.452	21359
893.575	21534
893.697	21424
893.819	21717
893.941	21717
894.064	21610
894.186	21504
894.308	21351
894.43	21424
894.552	21473
894.674	21553
894.796	21298
894.918	21420
895.04	21389
895.161	21641
895.283	21542
895.405	21481
895.526	21408
895.648	21245
895.769	21412
895.891	21382
896.012	21447
896.134	21458
896.255	21363
896.376	21435
896.498	21519
896.619	21466
896.74	21477
896.861	21538
896.982	21778
897.103	21979
897.224	21720
897.345	21717
897.466	21538
897.587	21671
897.708	21785
897.828	21717
897.949	21557
898.07	21447
898.19	21561
898.311	21747
898.431	21542
898.552	21545
898.672	21736
898.792	21667
898.913	21580
899.033	21557
899.153	21325
899.273	21264
899.393	21397
899.513	21363
899.633	21340
899.753	21496
899.873	21131
899.993	21310
900.113	21241
900.232	21260
900.352	21374
900.472	21287
900.591	21085
900.711	21169
900.83	21058
900.95	21123
901.069	21146
901.189	21001
901.308	20807
901.427	20629
901.546	20568
901.665	20636
901.784	20598
901.904	20674
902.023	20625
902.141	20275
902.26	20199
902.379	20278
902.498	20073
902.617	20172
902.735	20126
902.854	20210
902.973	20119
903.091	19833
903.21	19849
903.328	19921
903.446	19727
903.565	19731
903.683	19719
903.801	19525
903.919	19635
904.038	19670
904.156	19480
904.274	19635
904.392	19518
904.51	19373
904.627	19278
904.745	19480
904.863	19388
904.981	19179
905.098	19084
905.216	19095
905.334	18977
905.451	19061
905.569	19095
905.686	19072
905.803	18966
905.921	18817
906.038	18901
906.155	18924
906.272	18806
906.389	18635
906.506	18620
906.623	18604
906.74	18612
906.857	18365
906.974	18407
907.091	18608
907.208	18661
907.324	18547
907.441	18483
907.557	18380
907.674	18182
907.79	18228
907.907	18186
908.023	18369
908.139	18327
908.256	18258
908.372	18178
908.488	18091
908.604	18095
908.72	17954
908.836	18045
908.952	17999
909.068	18041
909.184	18057
909.3	17980
909.415	17996
909.531	18117
909.647	17764
909.762	17748
909.878	17729
909.993	17733
910.108	17630
910.224	17668
910.339	17615
910.454	17501
910.57	17512
910.685	17471
910.8	17661
910.915	17623
911.03	17474
911.145	17288
911.259	17296
911.374	17277
911.489	17204
911.604	17132
911.718	16976
911.833	17014
911.947	16892
912.062	16767
912.176	16984
912.291	17143
912.405	16911
912.519	17155
912.633	17216
912.748	17025
912.862	16915
912.976	16847
913.09	16717
913.204	16767
913.318	16866
913.431	16869
913.545	16873
913.659	16831
913.772	16721
913.886	16645
914	16519
914.113	16687
914.226	16725
914.34	16725
914.453	16440
914.566	16554
914.68	16447
914.793	16398
914.906	16257
915.019	16230
915.132	16074
915.245	16188
915.358	16135
915.47	16086
915.583	16188
915.696	16215
915.809	16291
915.921	16272
916.034	16124
916.146	16032
916.259	16093
916.371	16147
916.483	15937
916.595	16063
916.708	16063
916.82	15941
916.932	15930
917.044	15956
917.156	15964
917.268	15869
917.38	15888
917.491	15736
917.603	15747
917.715	15846
917.826	15835
917.938	15686
918.049	15507
918.161	15705
918.272	15880
918.384	15861
918.495	15675
918.606	15492
918.717	15481
918.828	15549
918.939	15553
919.05	15477
919.161	15416
919.272	15389
919.383	15389
919.494	15603
919.604	15682
919.715	15496
919.826	15416
919.936	15374
920.047	15568
920.157	15477
920.267	15724
920.378	15424
920.488	15477
920.598	15530
920.708	15789
920.818	15603
920.928	15511
921.038	15804
921.148	15717
921.258	15485
921.368	15237
921.477	15142
921.587	15104
921.697	15081
921.806	15089
921.916	14982
922.025	14868
922.134	14811
922.244	14819
922.353	14807
922.462	14674
922.571	14598
922.68	14415
922.789	14355
922.898	14530
923.007	14298
923.116	14545
923.224	14431
923.333	14423
923.442	14275
923.55	14244
923.659	14317
923.767	14332
923.876	14210
923.984	14244
924.092	14153
924.201	14210
924.309	14259
924.417	14214
924.525	14027
924.633	14096
924.741	15081
924.849	13799
924.956	13909
925.064	13868
925.172	13734
925.279	13788
925.387	13822
925.494	13746
925.602	13944
925.709	13837
925.816	13613
925.924	13807
926.031	13894
926.138	13746
926.245	13727
926.352	13628
926.459	13803
926.566	13864
926.673	13666
926.779	13567
926.886	13540
926.993	13369
927.099	13304
927.206	13327
927.312	13324
927.419	13373
927.525	13312
927.631	13358
927.737	13247
927.843	13168
927.95	13034
928.056	13198
928.162	13221
928.267	13152
928.373	13727
928.479	13255
928.585	13034
928.69	13175
928.796	13072
928.901	13038
929.007	12852
929.112	12894
929.218	12996
929.323	12810
929.428	12814
929.533	12962
929.638	12654
929.743	12768
929.848	12856
929.953	12806
930.058	12662
930.163	12544
930.267	12574
930.372	12612
930.477	12521
930.581	12684
930.685	12650
930.79	12403
930.894	12422
930.998	12330
931.103	12528
931.207	12079
931.311	12053
931.415	12034
931.519	11752
931.623	11779
