Data from test_V78500241_1712.txt Node
Date: Fri Mar 25 15:53:39 CST 2022
User: usil
Spectrometer: V785-0024
Trigger mode: 0
Integration Time (sec): 4.000000E-1
Scans to average: 1
Nonlinearity correction enabled: false
Boxcar width: 0
Storing dark spectrum: false
XAxis mode: Wavelengths
Number of Pixels in Spectrum: 1024
>>>>>Begin Spectral Data<<<<<
801.071	28367
801.214	28143
801.356	27823
801.499	27914
801.641	27884
801.783	27850
801.926	27975
802.068	27899
802.211	27823
802.353	27732
802.496	27431
802.638	27454
802.78	27519
802.923	27466
803.065	27427
803.208	27500
803.35	27530
803.492	27656
803.635	27667
803.777	27492
803.919	27778
804.061	27987
804.204	27797
804.346	27663
804.488	27671
804.63	27846
804.773	27644
804.915	27865
805.057	27846
805.199	27766
805.341	27831
805.483	27922
805.626	27854
805.768	27850
805.91	27884
806.052	27865
806.194	27831
806.336	28002
806.478	28021
806.62	27930
806.762	27926
806.904	28207
807.046	28249
807.188	28204
807.33	28306
807.472	28455
807.614	28169
807.756	28447
807.898	28303
808.04	28246
808.182	28032
808.324	28207
808.465	28329
808.607	28500
808.749	28531
808.891	28599
809.033	28630
809.174	28675
809.316	28455
809.458	28516
809.6	28504
809.741	28618
809.883	28706
810.025	28911
810.166	28744
810.308	28820
810.45	28675
810.591	28858
810.733	28554
810.875	28649
811.016	28512
811.158	28550
811.299	28519
811.441	28713
811.582	28653
811.724	28615
811.865	28535
812.007	28531
812.148	28489
812.29	28557
812.431	28801
812.573	28915
812.714	28957
812.855	28930
812.997	29041
813.138	29254
813.279	29277
813.421	29132
813.562	29204
813.703	28847
813.845	28797
813.986	28466
814.127	28478
814.268	28223
814.41	28253
814.551	28257
814.692	28382
814.833	28238
814.974	28181
815.115	28337
815.256	28055
815.397	28044
815.539	28128
815.68	28109
815.821	27975
815.962	27987
816.103	28059
816.244	27903
816.385	27911
816.526	27827
816.666	27682
816.807	27644
816.948	27629
817.089	27701
817.23	27618
817.371	27671
817.512	27523
817.653	27450
817.793	27500
817.934	27641
818.075	27568
818.216	27511
818.356	27466
818.497	27447
818.638	27256
818.778	27408
818.919	27348
819.06	27279
819.2	27325
819.341	27778
819.481	27507
819.622	27641
819.762	27899
819.903	27812
820.043	27751
820.184	27778
820.324	27766
820.465	27671
820.605	27629
820.746	27637
820.886	27526
821.026	27759
821.167	27603
821.307	27759
821.447	27427
821.588	27427
821.728	27298
821.868	27116
822.008	26937
822.149	26963
822.289	27077
822.429	26788
822.569	26712
822.709	26773
822.849	26609
822.99	26514
823.13	26488
823.27	26526
823.41	26408
823.55	26210
823.69	26385
823.83	26366
823.97	26210
824.11	26214
824.25	26092
824.389	26225
824.529	26305
824.669	26145
824.809	26419
824.949	26343
825.089	26206
825.228	26286
825.368	26122
825.508	26027
825.648	26039
825.787	26077
825.927	26237
826.067	26024
826.206	26092
826.346	25963
826.485	26149
826.625	26058
826.765	26168
826.904	25986
827.044	25830
827.183	25875
827.323	25662
827.462	25833
827.601	25807
827.741	25833
827.88	25841
828.02	25746
828.159	25780
828.298	25818
828.437	25837
828.577	25704
828.716	25731
828.855	25734
828.994	25506
829.134	25586
829.273	25582
829.412	25540
829.551	25468
829.69	25453
829.829	25453
829.968	25506
830.107	25575
830.246	25411
830.385	25377
830.524	25331
830.663	25274
830.802	25274
830.941	25042
831.08	24935
831.219	25190
831.357	25118
831.496	25251
831.635	25156
831.774	24954
831.913	24916
832.051	24848
832.19	24924
832.329	24939
832.467	24768
832.606	24715
832.744	24726
832.883	24817
833.022	24642
833.16	24829
833.299	24787
833.437	24749
833.576	24817
833.714	24814
833.852	24882
833.991	24768
834.129	24905
834.267	24791
834.406	24848
834.544	24867
834.682	24749
834.821	24757
834.959	24943
835.097	24779
835.235	24890
835.373	24894
835.511	24776
835.65	24642
835.788	24696
835.926	24563
836.064	24509
836.202	24357
836.34	24612
836.478	24620
836.615	24604
836.753	24738
836.891	24517
837.029	24601
837.167	24517
837.305	24422
837.443	24475
837.58	24464
837.718	24547
837.856	24426
837.993	24369
838.131	24475
838.269	24338
838.406	24350
838.544	24239
838.681	24007
838.819	24186
838.956	23840
839.094	23904
839.231	23961
839.369	24003
839.506	24391
839.643	24167
839.781	23980
839.918	23927
840.055	23931
840.193	23897
840.33	23882
840.467	23798
840.604	23840
840.742	24110
840.879	23649
841.016	23828
841.153	23756
841.29	24011
841.427	23893
841.564	23863
841.701	23707
841.838	23661
841.975	23764
842.112	23729
842.249	23596
842.385	23471
842.522	23733
842.659	23760
842.796	23592
842.933	23592
843.069	23486
843.206	23436
843.343	23596
843.479	23604
843.616	23577
843.752	23322
843.889	23368
844.025	23592
844.162	23402
844.298	23547
844.435	23414
844.571	23311
844.708	23345
844.844	23554
844.98	23493
845.117	23566
845.253	23417
845.389	23231
845.525	23174
845.661	23178
845.798	23014
845.934	23181
846.07	23117
846.206	23159
846.342	23181
846.478	23185
846.614	22930
846.75	22660
846.886	22820
847.022	22881
847.158	22839
847.294	22660
847.429	22862
847.565	22774
847.701	23067
847.837	22569
847.972	22622
848.108	22672
848.244	22603
848.379	22561
848.515	22466
848.65	22375
848.786	22398
848.921	22436
849.057	22538
849.192	22478
849.328	22451
849.463	22337
849.598	22303
849.734	22379
849.869	22242
850.004	22128
850.14	22215
850.275	22261
850.41	22025
850.545	22116
850.68	22299
850.815	22219
850.95	22154
851.085	22447
851.22	22196
851.355	22188
851.49	22242
851.625	22226
851.76	22109
851.895	22074
852.03	22090
852.165	22124
852.299	22284
852.434	22276
852.569	22234
852.703	22131
852.838	22207
852.973	22360
853.107	22185
853.242	22109
853.376	22006
853.511	21945
853.645	21983
853.78	22188
853.914	22158
854.048	22074
854.183	22010
854.317	22010
854.451	22147
854.585	21884
854.72	21941
854.854	22135
854.988	22059
855.122	21953
855.256	21838
855.39	21934
855.524	21968
855.658	21991
855.792	22090
855.926	21918
856.06	22032
856.194	22044
856.327	22025
856.461	21926
856.595	21956
856.729	22006
856.862	22086
856.996	22070
857.13	22128
857.263	22185
857.397	22116
857.53	22131
857.664	22029
857.797	22101
857.931	22177
858.064	22013
858.197	22135
858.331	22048
858.464	21934
858.597	21899
858.731	22025
858.864	21941
858.997	21918
859.13	21895
859.263	21941
859.396	21941
859.529	21911
859.662	21968
859.795	21831
859.928	22040
860.061	22109
860.194	22200
860.327	22029
860.46	21987
860.592	22192
860.725	22166
860.858	22116
860.99	21987
861.123	21930
861.256	21960
861.388	21972
861.521	22691
861.653	21979
861.786	21930
861.918	21816
862.05	21884
862.183	21926
862.315	21899
862.447	22021
862.58	21949
862.712	21736
862.844	21652
862.976	21743
863.108	21705
863.24	22082
863.372	21610
863.504	21781
863.636	21663
863.768	21713
863.9	21789
864.032	21625
864.164	21709
864.296	21846
864.428	21732
864.559	21682
864.691	21739
864.823	21739
864.954	21724
865.086	21622
865.217	21671
865.349	21504
865.48	21568
865.612	21622
865.743	21656
865.875	21610
866.006	21530
866.137	21534
866.269	21583
866.4	21526
866.531	21454
866.662	21526
866.793	21576
866.924	21447
867.055	21633
867.186	21466
867.317	21408
867.448	21416
867.579	21477
867.71	21351
867.841	21344
867.972	21530
868.103	21454
868.233	21545
868.364	21576
868.495	21534
868.625	21857
868.756	21816
868.886	21591
869.017	21599
869.147	21785
869.278	21892
869.408	21831
869.539	21770
869.669	21804
869.799	21751
869.929	21918
870.06	21823
870.19	22010
870.32	22017
870.45	22124
870.58	22162
870.71	22337
870.84	22287
870.97	22261
871.1	22135
871.23	22352
871.36	22280
871.489	22360
871.619	22322
871.749	22367
871.879	22344
872.008	22413
872.138	22356
872.267	22329
872.397	22280
872.526	22253
872.656	22268
872.785	22360
872.915	22356
873.044	22554
873.173	22462
873.303	22459
873.432	22504
873.561	22428
873.69	22356
873.819	22329
873.948	22443
874.077	22512
874.206	22219
874.335	22432
874.464	22409
874.593	22573
874.722	22500
874.851	22683
874.979	22569
875.108	22672
875.237	22523
875.365	22485
875.494	22668
875.623	22599
875.751	22683
875.88	22710
876.008	22752
876.136	22946
876.265	22984
876.393	23124
876.521	22999
876.65	23246
876.778	23143
876.906	22961
877.034	22881
877.162	23010
877.29	22946
877.418	23025
877.546	22949
877.674	22919
877.802	22930
877.93	22911
878.058	22873
878.185	22919
878.313	22938
878.441	22911
878.568	22752
878.696	22900
878.824	22873
878.951	23022
879.079	23064
879.206	23174
879.333	23189
879.461	23022
879.588	23086
879.715	23029
879.842	23189
879.97	23056
880.097	22824
880.224	22748
880.351	22683
880.478	22736
880.605	22615
880.732	22721
880.859	23010
880.986	22759
881.112	22828
881.239	22599
881.366	22535
881.493	22497
881.619	22394
881.746	22394
881.872	22322
881.999	22363
882.125	22246
882.252	22451
882.378	22382
882.505	22455
882.631	22147
882.757	22063
882.883	22093
883.01	22036
883.136	21903
883.262	21892
883.388	21808
883.514	22051
883.64	21968
883.766	21888
883.892	21850
884.018	21823
884.143	21983
884.269	22124
884.395	21671
884.52	21724
884.646	21701
884.772	21530
884.897	21576
885.023	21686
885.148	21656
885.274	21819
885.399	21785
885.524	21667
885.65	21686
885.775	21671
885.9	21656
886.025	21766
886.15	21682
886.275	21698
886.4	21435
886.525	21610
886.65	21583
886.775	21644
886.9	21778
887.025	21941
887.149	21622
887.274	21447
887.399	21393
887.523	21412
887.648	21310
887.773	21336
887.897	21458
888.021	21397
888.146	21336
888.27	21591
888.395	21515
888.519	21515
888.643	21538
888.767	21507
888.891	21355
889.015	21195
889.139	21222
889.263	21142
889.387	21230
889.511	21344
889.635	21355
889.759	21058
889.883	21233
890.006	21249
890.13	21386
890.254	21188
890.377	21135
890.501	20960
890.624	20941
890.748	20941
890.871	20823
890.995	20830
891.118	20731
891.241	20868
891.364	20781
891.488	20925
891.611	20750
891.734	20792
891.857	20807
891.98	20811
892.103	20819
892.226	20861
892.349	20735
892.471	20533
892.594	20686
892.717	20720
892.839	20720
892.962	20663
893.085	20705
893.207	20651
893.33	20590
893.452	20651
893.575	20785
893.697	20514
893.819	20845
893.941	20967
894.064	20792
894.186	20648
894.308	20549
894.43	20625
894.552	20731
894.674	20689
894.796	20571
894.918	20629
895.04	20602
895.161	20826
895.283	20678
895.405	20587
895.526	20560
895.648	20575
895.769	20701
895.891	20651
896.012	20746
896.134	20701
896.255	20648
896.376	20720
896.498	20678
896.619	20629
896.74	20629
896.861	20667
896.982	21028
897.103	21150
897.224	20982
897.345	20880
897.466	20762
897.587	20762
897.708	20960
897.828	21005
897.949	20872
898.07	20720
898.19	20777
898.311	20925
898.431	20777
898.552	20815
898.672	20914
898.792	20921
898.913	20967
899.033	20769
899.153	20655
899.273	20587
899.393	20701
899.513	20670
899.633	20613
899.753	20632
899.873	20606
899.993	20526
900.113	20613
900.232	20590
900.352	20415
900.472	20393
900.591	20313
900.711	20404
900.83	20286
900.95	20507
901.069	20465
901.189	20275
901.308	20016
901.427	19997
901.546	19970
901.665	20111
901.784	20001
901.904	19871
902.023	19620
902.141	19521
902.26	19563
902.379	19594
902.498	19495
902.617	19377
902.735	19605
902.854	19419
902.973	19392
903.091	19293
903.21	19160
903.328	19145
903.446	18985
903.565	18882
903.683	19000
903.801	18840
903.919	18882
904.038	18837
904.156	18776
904.274	18779
904.392	18768
904.51	18703
904.627	18566
904.745	18677
904.863	18604
904.981	18589
905.098	18346
905.216	18437
905.334	18403
905.451	18338
905.569	18365
905.686	18384
905.803	18388
905.921	18125
906.038	18304
906.155	18117
906.272	18148
906.389	18079
906.506	17984
906.623	17870
906.74	17847
906.857	17756
906.974	17741
907.091	17935
907.208	17920
907.324	17908
907.441	17733
907.557	17577
907.674	17585
907.79	17672
907.907	17505
908.023	17680
908.139	17520
908.256	17547
908.372	17490
908.488	17429
908.604	17383
908.72	17410
908.836	17273
908.952	17227
909.068	17398
909.184	17387
909.3	17212
909.415	17398
909.531	17303
909.647	17109
909.762	17018
909.878	16968
909.993	17048
910.108	17022
910.224	16919
910.339	16938
910.454	16953
910.57	16850
910.685	16812
910.8	16965
910.915	16999
911.03	16755
911.145	16668
911.259	16641
911.374	16641
911.489	16645
911.604	16500
911.718	16367
911.833	16272
911.947	16211
912.062	16253
912.176	16287
912.291	16421
912.405	16322
912.519	16523
912.633	16474
912.748	16284
912.862	16363
912.976	16192
913.09	16139
913.204	16124
913.318	16135
913.431	16249
913.545	16147
913.659	16162
913.772	16051
913.886	15991
914	15907
914.113	16021
914.226	16147
914.34	15968
914.453	15930
914.566	16059
914.68	15804
914.793	15804
914.906	15526
915.019	15618
915.132	15462
915.245	15538
915.358	15545
915.47	15580
915.583	15481
915.696	15405
915.809	15625
915.921	15629
916.034	15526
916.146	15431
916.259	15420
916.371	15424
916.483	15458
916.595	15412
916.708	15230
916.82	15370
916.932	15329
917.044	15283
917.156	15283
917.268	15218
917.38	15100
917.491	15192
917.603	15268
917.715	15108
917.826	15142
917.938	15161
918.049	15020
918.161	15112
918.272	15169
918.384	15245
918.495	15146
918.606	15005
918.717	14929
918.828	14925
918.939	14899
919.05	14849
919.161	14941
919.272	14739
919.383	14788
919.494	14883
919.604	15097
919.715	14948
919.826	14826
919.936	14830
920.047	14952
920.157	14895
920.267	15146
920.378	14933
920.488	14853
920.598	15104
920.708	15161
920.818	15032
920.928	15017
921.038	15195
921.148	15104
921.258	14804
921.368	14765
921.477	14598
921.587	14552
921.697	14514
921.806	14689
921.916	14370
922.025	14305
922.134	14275
922.244	14202
922.353	14290
922.462	14195
922.571	14058
922.68	13947
922.789	13887
922.898	13879
923.007	13814
923.116	13906
923.224	13917
923.333	13868
923.442	13738
923.55	13772
923.659	13769
923.767	13887
923.876	13757
923.984	13799
924.092	13578
924.201	13658
924.309	13628
924.417	13655
924.525	13567
924.633	13460
924.741	14313
924.849	13396
924.956	13468
925.064	13324
925.172	13278
925.279	13206
925.387	13244
925.494	13270
925.602	13438
925.709	13236
925.816	13164
925.924	13270
926.031	13468
926.138	13228
926.245	13221
926.352	13160
926.459	13190
926.566	13362
926.673	13202
926.779	12989
926.886	12985
926.993	12848
927.099	12932
927.206	12783
927.312	12810
927.419	12962
927.525	12806
927.631	12897
927.737	12658
927.843	12597
927.95	12555
928.056	12604
928.162	12738
928.267	12688
928.373	13282
928.479	12768
928.585	12483
928.69	12582
928.796	12525
928.901	12475
929.007	12311
929.112	12525
929.218	12494
929.323	12369
929.428	12327
929.533	12486
929.638	12232
929.743	12285
929.848	12350
929.953	12346
930.058	12190
930.163	12053
930.267	12136
930.372	12220
930.477	12019
930.581	12273
930.685	12083
930.79	11927
930.894	11950
930.998	11984
931.103	12026
931.207	11627
931.311	11604
931.415	11520
931.519	11277
931.623	11303
