Data from test_V78500241_1452.txt Node
Date: Fri Mar 25 15:51:51 CST 2022
User: usil
Spectrometer: V785-0024
Trigger mode: 0
Integration Time (sec): 4.000000E-1
Scans to average: 1
Nonlinearity correction enabled: false
Boxcar width: 0
Storing dark spectrum: false
XAxis mode: Wavelengths
Number of Pixels in Spectrum: 1024
>>>>>Begin Spectral Data<<<<<
801.071	28546
801.214	28375
801.356	28356
801.499	28280
801.641	28230
801.783	28139
801.926	28166
802.068	28040
802.211	28131
802.353	28013
802.496	27660
802.638	27789
802.78	27774
802.923	27762
803.065	27766
803.208	27713
803.35	27793
803.492	27983
803.635	27964
803.777	27926
803.919	27972
804.061	28207
804.204	28143
804.346	28032
804.488	27953
804.63	27983
804.773	27968
804.915	28021
805.057	28044
805.199	28006
805.341	28249
805.483	28234
805.626	28379
805.768	27983
805.91	28109
806.052	28192
806.194	28128
806.336	28272
806.478	28249
806.62	28211
806.762	28257
806.904	28447
807.046	28710
807.188	28603
807.33	28717
807.472	28721
807.614	28588
807.756	28645
807.898	28405
808.04	28382
808.182	28535
808.324	28455
808.465	28611
808.607	28771
808.749	28946
808.891	28972
809.033	29132
809.174	28976
809.316	28831
809.458	28896
809.6	28953
809.741	28923
809.883	29147
810.025	29178
810.166	29147
810.308	29273
810.45	29105
810.591	28991
810.733	28908
810.875	28816
811.016	28809
811.158	28927
811.299	28972
811.441	29041
811.582	28919
811.724	28843
811.865	28965
812.007	28839
812.148	28919
812.29	28782
812.431	28991
812.573	29121
812.714	29288
812.855	29353
812.997	29493
813.138	29581
813.279	29531
813.421	29478
813.562	29425
813.703	29277
813.845	29178
813.986	28831
814.127	28675
814.268	28493
814.41	28687
814.551	28455
814.692	28588
814.833	28360
814.974	28466
815.115	28755
815.256	28497
815.397	28421
815.539	28474
815.68	28318
815.821	28417
815.962	28478
816.103	28405
816.244	28261
816.385	28169
816.526	28234
816.666	28090
816.807	27884
816.948	27937
817.089	28078
817.23	28017
817.371	27823
817.512	27823
817.653	27880
817.793	27880
817.934	27941
818.075	27869
818.216	27907
818.356	27823
818.497	27766
818.638	27736
818.778	27580
818.919	27766
819.06	27701
819.2	27755
819.341	27930
819.481	27797
819.622	27975
819.762	28166
819.903	28128
820.043	28154
820.184	28029
820.324	27941
820.465	28249
820.605	28082
820.746	28021
820.886	27751
821.026	28097
821.167	27991
821.307	28070
821.447	27914
821.588	27850
821.728	27888
821.868	27443
822.008	27439
822.149	27214
822.289	27325
822.429	27108
822.569	27176
822.709	27039
822.849	26986
822.99	26952
823.13	26765
823.27	26861
823.41	26708
823.55	26636
823.69	26674
823.83	26727
823.97	26587
824.11	26362
824.25	26366
824.389	26457
824.529	26583
824.669	26621
824.809	26640
824.949	26674
825.089	26636
825.228	26716
825.368	26396
825.508	26332
825.648	26434
825.787	26423
825.927	26629
826.067	26419
826.206	26442
826.346	26423
826.485	26473
826.625	26343
826.765	26503
826.904	26488
827.044	26221
827.183	26202
827.323	26172
827.462	26202
827.601	26130
827.741	26161
827.88	26229
828.02	26100
828.159	25986
828.298	26240
828.437	26081
828.577	26183
828.716	26176
828.855	26027
828.994	25909
829.134	25845
829.273	25799
829.412	25753
829.551	25704
829.69	25803
829.829	25875
829.968	25890
830.107	26008
830.246	25909
830.385	25753
830.524	25643
830.663	25639
830.802	25537
830.941	25396
831.08	25384
831.219	25533
831.357	25514
831.496	25510
831.635	25476
831.774	25407
831.913	25320
832.051	25320
832.19	25228
832.329	25312
832.467	25270
832.606	25148
832.744	25088
832.883	25038
833.022	25099
833.16	25080
833.299	25148
833.437	25088
833.576	25145
833.714	25209
833.852	25213
833.991	25278
834.129	25160
834.267	25110
834.406	25217
834.544	25171
834.682	25164
834.821	25148
834.959	25240
835.097	25042
835.235	25179
835.373	25141
835.511	25179
835.65	25000
835.788	25012
835.926	24798
836.064	24852
836.202	24764
836.34	25012
836.478	25015
836.615	24989
836.753	25076
836.891	25004
837.029	24897
837.167	24985
837.305	24795
837.443	24882
837.58	24753
837.718	24817
837.856	24715
837.993	24833
838.131	24863
838.269	24719
838.406	24719
838.544	24513
838.681	24399
838.819	24384
838.956	24304
839.094	24213
839.231	24315
839.369	24365
839.506	24597
839.643	24464
839.781	24251
839.918	24334
840.055	24346
840.193	24315
840.33	24205
840.467	24357
840.604	24205
840.742	24471
840.879	24106
841.016	24022
841.153	24117
841.29	24273
841.427	24155
841.564	24190
841.701	24232
841.838	24110
841.975	24140
842.112	24194
842.249	23961
842.385	23889
842.522	24098
842.659	23996
842.796	23999
842.933	23973
843.069	23752
843.206	23882
843.343	23996
843.479	23847
843.616	23843
843.752	23619
843.889	23695
844.025	23817
844.162	23585
844.298	23813
844.435	23802
844.571	23619
844.708	23627
844.844	23828
844.98	23741
845.117	23817
845.253	23665
845.389	23604
845.525	23547
845.661	23547
845.798	23360
845.934	23459
846.07	23421
846.206	23482
846.342	23524
846.478	23330
846.614	23277
846.75	23113
846.886	23299
847.022	23204
847.158	23231
847.294	23151
847.429	23121
847.565	23136
847.701	23337
847.837	22965
847.972	22828
848.108	22980
848.244	22934
848.379	22835
848.515	22786
848.65	22774
848.786	22778
848.921	22782
849.057	22869
849.192	22721
849.328	22740
849.463	22835
849.598	22748
849.734	22637
849.869	22584
850.004	22573
850.14	22557
850.275	22462
850.41	22405
850.545	22432
850.68	22504
850.815	22512
850.95	22398
851.085	22580
851.22	22634
851.355	22516
851.49	22527
851.625	22432
851.76	22462
851.895	22234
852.03	22443
852.165	22527
852.299	22592
852.434	22542
852.569	22527
852.703	22531
852.838	22588
852.973	22763
853.107	22653
853.242	22474
853.376	22516
853.511	22204
853.645	22242
853.78	22447
853.914	22352
854.048	22284
854.183	22242
854.317	22447
854.451	22512
854.585	22238
854.72	22150
854.854	22329
854.988	22238
855.122	22272
855.256	22234
855.39	22291
855.524	22413
855.658	22363
855.792	22375
855.926	22356
856.06	22428
856.194	22402
856.327	22329
856.461	22363
856.595	22261
856.729	22306
856.862	22497
856.996	22409
857.13	22428
857.263	22508
857.397	22432
857.53	22379
857.664	22363
857.797	22390
857.931	22481
858.064	22253
858.197	22348
858.331	22363
858.464	22249
858.597	22173
858.731	22325
858.864	22276
858.997	22162
859.13	22272
859.263	22314
859.396	22409
859.529	22166
859.662	22371
859.795	22188
859.928	22344
860.061	22588
860.194	22615
860.327	22402
860.46	22386
860.592	22504
860.725	22440
860.858	22497
860.99	22337
861.123	22299
861.256	22325
861.388	22341
861.521	23086
861.653	22059
861.786	22154
861.918	22166
862.05	22230
862.183	22219
862.315	22261
862.447	22409
862.58	22131
862.712	22051
862.844	22048
862.976	22181
863.108	22101
863.24	22443
863.372	22040
863.504	22044
863.636	21968
863.768	22135
863.9	22070
864.032	21949
864.164	21956
864.296	21998
864.428	22181
864.559	22063
864.691	22143
864.823	22181
864.954	21949
865.086	21979
865.217	21823
865.349	21838
865.48	21903
865.612	21953
865.743	21960
865.875	22082
866.006	21876
866.137	21884
866.269	21884
866.4	21899
866.531	21766
866.662	21835
866.793	21747
866.924	21800
867.055	21842
867.186	21994
867.317	21861
867.448	21759
867.579	21941
867.71	21762
867.841	21701
867.972	21804
868.103	21854
868.233	21804
868.364	21869
868.495	21987
868.625	21987
868.756	22249
868.886	22013
869.017	22006
869.147	22150
869.278	22181
869.408	22112
869.539	21991
869.669	22268
869.799	22219
869.929	22196
870.06	22238
870.19	22344
870.32	22432
870.45	22402
870.58	22341
870.71	22565
870.84	22489
870.97	22497
871.1	22599
871.23	22565
871.36	22710
871.489	22569
871.619	22774
871.749	22702
871.879	22584
872.008	22782
872.138	22733
872.267	22755
872.397	22538
872.526	22550
872.656	22535
872.785	22500
872.915	22493
873.044	22824
873.173	22793
873.303	22793
873.432	22721
873.561	22759
873.69	22653
873.819	22797
873.948	22706
874.077	22729
874.206	22634
874.335	22687
874.464	22843
874.593	22999
874.722	22774
874.851	22942
874.979	22961
875.108	23044
875.237	22774
875.365	22858
875.494	22904
875.623	23048
875.751	22904
875.88	22885
876.008	23079
876.136	23193
876.265	23307
876.393	23402
876.521	23387
876.65	23402
876.778	23296
876.906	23368
877.034	23235
877.162	23299
877.29	23265
877.418	23303
877.546	23307
877.674	23372
877.802	23208
877.93	23322
878.058	23258
878.185	23181
878.313	23178
878.441	23220
878.568	23060
878.696	23109
878.824	23265
878.951	23471
879.079	23467
879.206	23570
879.333	23330
879.461	23379
879.588	23299
879.715	23372
879.842	23520
879.97	23265
880.097	23155
880.224	23124
880.351	23235
880.478	23117
880.605	23102
880.732	23102
880.859	23315
880.986	23193
881.112	23170
881.239	22972
881.366	22847
881.493	22797
881.619	22653
881.746	22649
881.872	22793
881.999	22626
882.125	22565
882.252	22630
882.378	22843
882.505	22786
882.631	22402
882.757	22470
882.883	22489
883.01	22394
883.136	22306
883.262	22261
883.388	22143
883.514	22325
883.64	22356
883.766	22363
883.892	22090
884.018	22090
884.143	22272
884.269	22352
884.395	22017
884.52	21991
884.646	21949
884.772	21956
884.897	21953
885.023	22002
885.148	22010
885.274	22101
885.399	22135
885.524	22021
885.65	22017
885.775	22055
885.9	21888
886.025	22025
886.15	21934
886.275	22002
886.4	21884
886.525	21918
886.65	21854
886.775	21922
886.9	22044
887.025	22143
887.149	21918
887.274	21690
887.399	21724
887.523	21747
887.648	21629
887.773	21682
887.897	21812
888.021	21835
888.146	21663
888.27	21751
888.395	21747
888.519	21724
888.643	21686
888.767	21819
888.891	21652
889.015	21561
889.139	21580
889.263	21466
889.387	21572
889.511	21679
889.635	21690
889.759	21504
889.883	21500
890.006	21378
890.13	21610
890.254	21534
890.377	21492
890.501	21252
890.624	21241
890.748	21252
890.871	21089
890.995	20956
891.118	21131
891.241	21028
891.364	21150
891.488	21195
891.611	21051
891.734	21039
891.857	20979
891.98	21055
892.103	21142
892.226	21024
892.349	21100
892.471	20906
892.594	20982
892.717	21131
892.839	21051
892.962	21009
893.085	21116
893.207	20944
893.33	20788
893.452	20796
893.575	20872
893.697	20971
893.819	21127
893.941	21256
894.064	20971
894.186	20902
894.308	20952
894.43	21024
894.552	20967
894.674	21157
894.796	20986
894.918	20899
895.04	20842
895.161	20948
895.283	20998
895.405	20937
895.526	20883
895.648	20887
895.769	20906
895.891	20933
896.012	21009
896.134	21024
896.255	20788
896.376	20933
896.498	21009
896.619	21066
896.74	21047
896.861	20902
896.982	21207
897.103	21348
897.224	21127
897.345	21173
897.466	21176
897.587	21195
897.708	21329
897.828	21184
897.949	21074
898.07	20986
898.19	21077
898.311	21260
898.431	21081
898.552	21222
898.672	21264
898.792	21294
898.913	21119
899.033	21081
899.153	21005
899.273	20887
899.393	20853
899.513	20861
899.633	20781
899.753	20838
899.873	20826
899.993	20902
900.113	20902
900.232	20861
900.352	20762
900.472	20769
900.591	20667
900.711	20659
900.83	20571
900.95	20746
901.069	20640
901.189	20480
901.308	20271
901.427	20161
901.546	20248
901.665	20328
901.784	20229
901.904	20027
902.023	19936
902.141	19761
902.26	19765
902.379	19723
902.498	19696
902.617	19708
902.735	19655
902.854	19715
902.973	19655
903.091	19346
903.21	19460
903.328	19426
903.446	19289
903.565	19194
903.683	19187
903.801	19027
903.919	19042
904.038	19099
904.156	18920
904.274	18909
904.392	19000
904.51	18935
904.627	18939
904.745	18993
904.863	18962
904.981	18779
905.098	18646
905.216	18669
905.334	18665
905.451	18597
905.569	18608
905.686	18608
905.803	18566
905.921	18403
906.038	18471
906.155	18357
906.272	18369
906.389	18304
906.506	18110
906.623	18129
906.74	18262
906.857	18015
906.974	18045
907.091	18144
907.208	18129
907.324	18091
907.441	17946
907.557	17874
907.674	17718
907.79	17752
907.907	17726
908.023	17809
908.139	17984
908.256	17802
908.372	17726
908.488	17714
908.604	17649
908.72	17611
908.836	17482
908.952	17455
909.068	17528
909.184	17661
909.3	17493
909.415	17634
909.531	17577
909.647	17379
909.762	17239
909.878	17193
909.993	17166
910.108	17159
910.224	17231
910.339	17208
910.454	17060
910.57	17083
910.685	16930
910.8	17303
910.915	17254
911.03	17052
911.145	16919
911.259	16835
911.374	16839
911.489	16793
911.604	16675
911.718	16493
911.833	16535
911.947	16500
912.062	16462
912.176	16565
912.291	16538
912.405	16599
912.519	16687
912.633	16725
912.748	16607
912.862	16500
912.976	16455
913.09	16249
913.204	16261
913.318	16360
913.431	16417
913.545	16325
913.659	16466
913.772	16432
913.886	16150
914	16242
914.113	16253
914.226	16242
914.34	16223
914.453	16169
914.566	16139
914.68	15918
914.793	15987
914.906	15812
915.019	15831
915.132	15618
915.245	15698
915.358	15804
915.47	15679
915.583	15808
915.696	15747
915.809	15934
915.921	15892
916.034	15720
916.146	15671
916.259	15682
916.371	15751
916.483	15606
916.595	15549
916.708	15564
916.82	15663
916.932	15568
917.044	15561
917.156	15492
917.268	15447
917.38	15393
917.491	15302
917.603	15504
917.715	15580
917.826	15469
917.938	15348
918.049	15245
918.161	15355
918.272	15488
918.384	15416
918.495	15298
918.606	15230
918.717	15142
918.828	15180
918.939	15146
919.05	15165
919.161	15116
919.272	14929
919.383	14956
919.494	15203
919.604	15321
919.715	15154
919.826	15104
919.936	15100
920.047	15123
920.157	15085
920.267	15340
920.378	15154
920.488	15077
920.598	15233
920.708	15466
920.818	15272
920.928	15165
921.038	15340
921.148	15367
921.258	15070
921.368	14960
921.477	14853
921.587	14830
921.697	14712
921.806	14788
921.916	14606
922.025	14526
922.134	14587
922.244	14366
922.353	14495
922.462	14343
922.571	14275
922.68	14126
922.789	14081
922.898	14103
923.007	14115
923.116	14176
923.224	13997
923.333	14164
923.442	13986
923.55	13871
923.659	13932
923.767	13978
923.876	13868
923.984	14043
924.092	13814
924.201	13837
924.309	13849
924.417	13795
924.525	13807
924.633	13776
924.741	14473
924.849	13662
924.956	13704
925.064	13548
925.172	13392
925.279	13438
925.387	13590
925.494	13499
925.602	13674
925.709	13514
925.816	13457
925.924	13445
926.031	13594
926.138	13537
926.245	13563
926.352	13354
926.459	13514
926.566	13548
926.673	13327
926.779	13194
926.886	13213
926.993	13076
927.099	13194
927.206	12966
927.312	13019
927.419	13107
927.525	12962
927.631	13088
927.737	12840
927.843	12844
927.95	12764
928.056	12894
928.162	12909
928.267	12924
928.373	13544
928.479	12935
928.585	12700
928.69	12821
928.796	12886
928.901	12650
929.007	12578
929.112	12650
929.218	12776
929.323	12597
929.428	12646
929.533	12646
929.638	12441
929.743	12506
929.848	12566
929.953	12452
930.058	12365
930.163	12197
930.267	12243
930.372	12467
930.477	12254
930.581	12509
930.685	12346
930.79	12117
930.894	12098
930.998	12129
931.103	12228
931.207	11882
931.311	11813
931.415	11695
931.519	11547
931.623	11509
