Data from test_V78500241_205.txt Node
Date: Fri Mar 25 15:43:13 CST 2022
User: usil
Spectrometer: V785-0024
Trigger mode: 0
Integration Time (sec): 4.000000E-1
Scans to average: 1
Nonlinearity correction enabled: false
Boxcar width: 0
Storing dark spectrum: false
XAxis mode: Wavelengths
Number of Pixels in Spectrum: 1024
>>>>>Begin Spectral Data<<<<<
801.071	29452
801.214	29356
801.356	29212
801.499	29246
801.641	29086
801.783	29075
801.926	29105
802.068	29132
802.211	28991
802.353	29033
802.496	28881
802.638	28824
802.78	28592
802.923	28653
803.065	28736
803.208	28653
803.35	28630
803.492	28725
803.635	28888
803.777	28615
803.919	28790
804.061	29052
804.204	28778
804.346	28577
804.488	28782
804.63	28713
804.773	28656
804.915	28668
805.057	28850
805.199	28793
805.341	28888
805.483	28881
805.626	28885
805.768	28725
805.91	28980
806.052	28801
806.194	28862
806.336	29079
806.478	28873
806.62	28942
806.762	29014
806.904	29037
807.046	29398
807.188	29318
807.33	29193
807.472	29261
807.614	29113
807.756	29216
807.898	29181
808.04	28972
808.182	28972
808.324	29060
808.465	28987
808.607	29299
808.749	29570
808.891	29509
809.033	29699
809.174	29516
809.316	29467
809.458	29501
809.6	29490
809.741	29619
809.883	29509
810.025	29623
810.166	29745
810.308	29661
810.45	29585
810.591	29516
810.733	29570
810.875	29406
811.016	29326
811.158	29227
811.299	29452
811.441	29528
811.582	29406
811.724	29402
811.865	29353
812.007	29322
812.148	29402
812.29	29349
812.431	29611
812.573	29653
812.714	29870
812.855	29821
812.997	29927
813.138	30140
813.279	30068
813.421	29904
813.562	29843
813.703	29577
813.845	29608
813.986	29242
814.127	29037
814.268	29102
814.41	29151
814.551	28987
814.692	29147
814.833	28900
814.974	28892
815.115	29140
815.256	28892
815.397	28733
815.539	28782
815.68	28710
815.821	28847
815.962	28790
816.103	28748
816.244	28615
816.385	28519
816.526	28538
816.666	28398
816.807	28299
816.948	28379
817.089	28398
817.23	28291
817.371	28154
817.512	28169
817.653	28097
817.793	28158
817.934	28192
818.075	28086
818.216	28143
818.356	28063
818.497	27987
818.638	27918
818.778	27964
818.919	27873
819.06	27937
819.2	27945
819.341	28188
819.481	28272
819.622	28249
819.762	28443
819.903	28379
820.043	28211
820.184	28215
820.324	28188
820.465	28329
820.605	28344
820.746	28150
820.886	28063
821.026	28162
821.167	28074
821.307	28253
821.447	27994
821.588	28002
821.728	27823
821.868	27614
822.008	27523
822.149	27488
822.289	27504
822.429	27313
822.569	27283
822.709	27233
822.849	27043
822.99	26979
823.13	27058
823.27	26819
823.41	26773
823.55	26754
823.69	26925
823.83	26727
823.97	26796
824.11	26655
824.25	26602
824.389	26640
824.529	26731
824.669	26617
824.809	26648
824.949	26758
825.089	26632
825.228	26606
825.368	26473
825.508	26446
825.648	26453
825.787	26495
825.927	26476
826.067	26457
826.206	26511
826.346	26457
826.485	26556
826.625	26412
826.765	26370
826.904	26366
827.044	26180
827.183	26229
827.323	26157
827.462	26275
827.601	26050
827.741	26142
827.88	26103
828.02	25982
828.159	26092
828.298	26088
828.437	26058
828.577	26046
828.716	26218
828.855	26153
828.994	25814
829.134	25841
829.273	25791
829.412	25772
829.551	25734
829.69	25883
829.829	25791
829.968	25715
830.107	25898
830.246	25727
830.385	25647
830.524	25700
830.663	25559
830.802	25457
830.941	25331
831.08	25274
831.219	25244
831.357	25396
831.496	25499
831.635	25358
831.774	25198
831.913	25194
832.051	25095
832.19	25034
832.329	25118
832.467	24996
832.606	24867
832.744	24821
832.883	25027
833.022	24962
833.16	24966
833.299	24905
833.437	25053
833.576	25168
833.714	25103
833.852	25179
833.991	25171
834.129	25061
834.267	25069
834.406	24973
834.544	25015
834.682	24981
834.821	24878
834.959	25099
835.097	24897
835.235	24962
835.373	24958
835.511	24878
835.65	24886
835.788	24783
835.926	24642
836.064	24505
836.202	24703
836.34	24791
836.478	24890
836.615	24741
836.753	24795
836.891	24928
837.029	24692
837.167	24631
837.305	24684
837.443	24696
837.58	24589
837.718	24635
837.856	24620
837.993	24608
838.131	24540
838.269	24445
838.406	24399
838.544	24399
838.681	24167
838.819	24121
838.956	23958
839.094	23984
839.231	24133
839.369	23996
839.506	24308
839.643	24251
839.781	24049
839.918	24038
840.055	23984
840.193	23977
840.33	23904
840.467	24007
840.604	23977
840.742	24197
840.879	23874
841.016	23939
841.153	23748
841.29	23923
841.427	23729
841.564	23885
841.701	23760
841.838	23885
841.975	23893
842.112	23707
842.249	23790
842.385	23668
842.522	23878
842.659	23821
842.796	23600
842.933	23604
843.069	23516
843.206	23433
843.343	23611
843.479	23520
843.616	23695
843.752	23250
843.889	23235
844.025	23596
844.162	23239
844.298	23383
844.435	23204
844.571	23315
844.708	23315
844.844	23490
844.98	23474
845.117	23452
845.253	23197
845.389	23147
845.525	23303
845.661	23212
845.798	22999
845.934	23102
846.07	22999
846.206	23037
846.342	23212
846.478	22896
846.614	22759
846.75	22649
846.886	22698
847.022	22919
847.158	22774
847.294	22797
847.429	22835
847.565	22694
847.701	22984
847.837	22436
847.972	22417
848.108	22527
848.244	22550
848.379	22367
848.515	22329
848.65	22470
848.786	22424
848.921	22268
849.057	22424
849.192	22421
849.328	22310
849.463	22341
849.598	22314
849.734	22230
849.869	22135
850.004	22181
850.14	22086
850.275	22078
850.41	22067
850.545	22002
850.68	22070
850.815	22032
850.95	22219
851.085	22147
851.22	22063
851.355	22013
851.49	22059
851.625	21899
851.76	22013
851.895	21903
852.03	21876
852.165	22086
852.299	22143
852.434	22128
852.569	21968
852.703	22116
852.838	22135
852.973	22188
853.107	22082
853.242	21979
853.376	21865
853.511	21789
853.645	21835
853.78	21934
853.914	21827
854.048	21869
854.183	21675
854.317	21812
854.451	21972
854.585	21854
854.72	21865
854.854	21907
854.988	21888
855.122	21785
855.256	21633
855.39	21717
855.524	21857
855.658	21873
855.792	21865
855.926	21785
856.06	21819
856.194	21789
856.327	21785
856.461	21789
856.595	21774
856.729	21755
856.862	21960
856.996	21785
857.13	21869
857.263	21972
857.397	21907
857.53	21838
857.664	21781
857.797	21800
857.931	21888
858.064	21804
858.197	21915
858.331	21770
858.464	21686
858.597	21686
858.731	21732
858.864	21720
858.997	21869
859.13	21720
859.263	21781
859.396	21869
859.529	21610
859.662	21660
859.795	21637
859.928	21797
860.061	21945
860.194	21949
860.327	21781
860.46	21835
860.592	21998
860.725	21861
860.858	21838
860.99	21781
861.123	21774
861.256	21591
861.388	21732
861.521	22417
861.653	21728
861.786	21481
861.918	21679
862.05	21675
862.183	21762
862.315	21838
862.447	21698
862.58	21698
862.712	21641
862.844	21412
862.976	21500
863.108	21622
863.24	21964
863.372	21393
863.504	21496
863.636	21412
863.768	21408
863.9	21393
864.032	21431
864.164	21329
864.296	21488
864.428	21580
864.559	21477
864.691	21557
864.823	21511
864.954	21515
865.086	21355
865.217	21237
865.349	21332
865.48	21302
865.612	21230
865.743	21485
865.875	21340
866.006	21211
866.137	21393
866.269	21370
866.4	21397
866.531	21249
866.662	21302
866.793	21237
866.924	21374
867.055	21310
867.186	21279
867.317	21169
867.448	21184
867.579	21112
867.71	21184
867.841	21222
867.972	21195
868.103	21214
868.233	21241
868.364	21272
868.495	21298
868.625	21488
868.756	21530
868.886	21367
869.017	21408
869.147	21614
869.278	21679
869.408	21473
869.539	21469
869.669	21485
869.799	21481
869.929	21591
870.06	21667
870.19	21937
870.32	21770
870.45	21892
870.58	21911
870.71	22074
870.84	21934
870.97	21903
871.1	21953
871.23	22063
871.36	22025
871.489	21956
871.619	21983
871.749	22124
871.879	22097
872.008	22150
872.138	22025
872.267	22017
872.397	21926
872.526	21842
872.656	21861
872.785	21800
872.915	22116
873.044	22196
873.173	21964
873.303	22101
873.432	22032
873.561	22242
873.69	21987
873.819	22090
873.948	22223
874.077	22188
874.206	22044
874.335	22074
874.464	22226
874.593	22268
874.722	22291
874.851	22424
874.979	22394
875.108	22363
875.237	22314
875.365	22219
875.494	22268
875.623	22382
875.751	22306
875.88	22470
876.008	22531
876.136	22634
876.265	22698
876.393	22953
876.521	22778
876.65	22763
876.778	22752
876.906	22611
877.034	22649
877.162	22694
877.29	22565
877.418	22641
877.546	22687
877.674	22740
877.802	22755
877.93	22675
878.058	22596
878.185	22569
878.313	22675
878.441	22740
878.568	22535
878.696	22656
878.824	22668
878.951	22812
879.079	22930
879.206	22976
879.333	22850
879.461	22748
879.588	22797
879.715	22812
879.842	22972
879.97	22850
880.097	22398
880.224	22508
880.351	22478
880.478	22592
880.605	22413
880.732	22485
880.859	22740
880.986	22588
881.112	22474
881.239	22367
881.366	22200
881.493	22147
881.619	22063
881.746	22147
881.872	22017
881.999	21968
882.125	21983
882.252	22101
882.378	22025
882.505	22223
882.631	22010
882.757	21880
882.883	21816
883.01	21774
883.136	21728
883.262	21644
883.388	21759
883.514	21728
883.64	21804
883.766	21751
883.892	21526
884.018	21652
884.143	21713
884.269	21857
884.395	21587
884.52	21420
884.646	21462
884.772	21340
884.897	21325
885.023	21382
885.148	21641
885.274	21534
885.399	21500
885.524	21401
885.65	21450
885.775	21439
885.9	21386
886.025	21523
886.15	21515
886.275	21374
886.4	21249
886.525	21363
886.65	21302
886.775	21367
886.9	21485
887.025	21637
887.149	21397
887.274	21157
887.399	21180
887.523	21142
887.648	21100
887.773	20948
887.897	21207
888.021	21131
888.146	21058
888.27	21287
888.395	21218
888.519	21150
888.643	21150
888.767	21355
888.891	20998
889.015	20887
889.139	21081
889.263	21036
889.387	20929
889.511	21142
889.635	21039
889.759	20906
889.883	20982
890.006	20921
890.13	20914
890.254	20830
890.377	20826
890.501	20655
890.624	20602
890.748	20659
890.871	20518
890.995	20492
891.118	20457
891.241	20541
891.364	20499
891.488	20575
891.611	20412
891.734	20492
891.857	20575
891.98	20533
892.103	20613
892.226	20484
892.349	20404
892.471	20339
892.594	20374
892.717	20499
892.839	20381
892.962	20431
893.085	20511
893.207	20343
893.33	20343
893.452	20343
893.575	20465
893.697	20427
893.819	20617
893.941	20488
894.064	20556
894.186	20438
894.308	20298
894.43	20339
894.552	20526
894.674	20530
894.796	20347
894.918	20385
895.04	20339
895.161	20560
895.283	20412
895.405	20336
895.526	20404
895.648	20427
895.769	20362
895.891	20431
896.012	20385
896.134	20514
896.255	20499
896.376	20415
896.498	20427
896.619	20423
896.74	20408
896.861	20484
896.982	20739
897.103	20804
897.224	20689
897.345	20796
897.466	20579
897.587	20743
897.708	20682
897.828	20655
897.949	20590
898.07	20339
898.19	20495
898.311	20674
898.431	20533
898.552	20514
898.672	20678
898.792	20716
898.913	20686
899.033	20355
899.153	20229
899.273	20358
899.393	20313
899.513	20275
899.633	20305
899.753	20278
899.873	20343
899.993	20282
900.113	20225
900.232	20233
900.352	20180
900.472	20187
900.591	20062
900.711	20122
900.83	20039
900.95	20191
901.069	20221
901.189	19989
901.308	19841
901.427	19761
901.546	19765
901.665	19693
901.784	19601
901.904	19586
902.023	19460
902.141	19293
902.26	19221
902.379	19266
902.498	19061
902.617	19023
902.735	19221
902.854	19129
902.973	19053
903.091	18722
903.21	18913
903.328	18859
903.446	18703
903.565	18509
903.683	18665
903.801	18467
903.919	18563
904.038	18570
904.156	18448
904.274	18464
904.392	18414
904.51	18292
904.627	18391
904.745	18388
904.863	18376
904.981	18121
905.098	17992
905.216	17988
905.334	18079
905.451	17961
905.569	18015
905.686	18121
905.803	18060
905.921	17752
906.038	17927
906.155	17878
906.272	17680
906.389	17737
906.506	17638
906.623	17611
906.74	17608
906.857	17448
906.974	17474
907.091	17619
907.208	17714
907.324	17608
907.441	17474
907.557	17402
907.674	17212
907.79	17231
907.907	17227
908.023	17235
908.139	17296
908.256	17143
908.372	17174
908.488	17094
908.604	17041
908.72	16995
908.836	16831
908.952	17029
909.068	17010
909.184	16991
909.3	16919
909.415	17102
909.531	16877
909.647	16706
909.762	16573
909.878	16649
909.993	16687
910.108	16668
910.224	16645
910.339	16637
910.454	16485
910.57	16615
910.685	16405
910.8	16721
910.915	16637
911.03	16394
911.145	16230
911.259	16318
911.374	16348
911.489	16162
911.604	16181
911.718	16086
911.833	15911
911.947	15960
912.062	15873
912.176	15899
912.291	16078
912.405	15987
912.519	16192
912.633	16234
912.748	16021
912.862	16025
912.976	15766
913.09	15755
913.204	15793
913.318	15755
913.431	15762
913.545	15831
913.659	15953
913.772	15732
913.886	15686
914	15606
914.113	15625
914.226	15709
914.34	15641
914.453	15462
914.566	15610
914.68	15374
914.793	15401
914.906	15207
915.019	15195
915.132	15230
915.245	15199
915.358	15237
915.47	15161
915.583	15306
915.696	15268
915.809	15374
915.921	15298
916.034	15150
916.146	15089
916.259	15100
916.371	15127
916.483	15085
916.595	15066
916.708	14998
916.82	14971
916.932	15024
917.044	15024
917.156	14937
917.268	14830
917.38	14914
917.491	14861
917.603	14857
917.715	14982
917.826	14921
917.938	14678
918.049	14712
918.161	14823
918.272	14891
918.384	14937
918.495	14720
918.606	14636
918.717	14629
918.828	14552
918.939	14670
919.05	14385
919.161	14579
919.272	14488
919.383	14408
919.494	14655
919.604	14788
919.715	14590
919.826	14514
919.936	14552
920.047	14617
920.157	14537
920.267	14678
920.378	14556
920.488	14476
920.598	14655
920.708	14819
920.818	14621
920.928	14545
921.038	14720
921.148	14788
921.258	14503
921.368	14366
921.477	14263
921.587	14195
921.697	14065
921.806	14305
921.916	14134
922.025	13997
922.134	13871
922.244	13887
922.353	13928
922.462	13822
922.571	13689
922.68	13540
922.789	13537
922.898	13540
923.007	13358
923.116	13590
923.224	13483
923.333	13506
923.442	13381
923.55	13358
923.659	13335
923.767	13449
923.876	13221
923.984	13377
924.092	13266
924.201	13339
924.309	13225
924.417	13308
924.525	13145
924.633	13255
924.741	13951
924.849	13012
924.956	13141
925.064	13000
925.172	12909
925.279	12951
925.387	12947
925.494	12966
925.602	13019
925.709	12977
925.816	12821
925.924	12859
926.031	12878
926.138	12837
926.245	12916
926.352	12806
926.459	12962
926.566	12947
926.673	12833
926.779	12753
926.886	12597
926.993	12525
927.099	12490
927.206	12540
927.312	12479
927.419	12544
927.525	12452
927.631	12570
927.737	12422
927.843	12380
927.95	12190
928.056	12285
928.162	12266
928.267	12388
928.373	13012
928.479	12433
928.585	12106
928.69	12323
928.796	12300
928.901	12201
929.007	12049
929.112	12155
929.218	12201
929.323	12053
929.428	12041
929.533	12239
929.638	11973
929.743	12015
929.848	11999
929.953	12015
930.058	11965
930.163	11672
930.267	11668
930.372	11809
930.477	11684
930.581	11828
930.685	11775
930.79	11649
930.894	11615
930.998	11551
931.103	11634
931.207	11349
931.311	11220
931.415	11147
931.519	10972
931.623	10885
