Data from test_V78500241_102.txt Node
Date: Fri Mar 25 15:42:30 CST 2022
User: usil
Spectrometer: V785-0024
Trigger mode: 0
Integration Time (sec): 4.000000E-1
Scans to average: 1
Nonlinearity correction enabled: false
Boxcar width: 0
Storing dark spectrum: false
XAxis mode: Wavelengths
Number of Pixels in Spectrum: 1024
>>>>>Begin Spectral Data<<<<<
801.071	29665
801.214	29592
801.356	29501
801.499	29250
801.641	29102
801.783	29044
801.926	29052
802.068	29189
802.211	29083
802.353	29090
802.496	28866
802.638	28774
802.78	28816
802.923	28786
803.065	28622
803.208	28847
803.35	28809
803.492	28866
803.635	28908
803.777	28771
803.919	28786
804.061	29143
804.204	29010
804.346	28805
804.488	28915
804.63	28892
804.773	28812
804.915	28934
805.057	29018
805.199	28847
805.341	28938
805.483	29185
805.626	29102
805.768	28885
805.91	28942
806.052	29052
806.194	28953
806.336	29086
806.478	29105
806.62	28927
806.762	29185
806.904	29216
807.046	29478
807.188	29258
807.33	29414
807.472	29463
807.614	29296
807.756	29349
807.898	29288
808.04	29200
808.182	29105
808.324	29204
808.465	29064
808.607	29429
808.749	29547
808.891	29573
809.033	29741
809.174	29573
809.316	29440
809.458	29433
809.6	29341
809.741	29463
809.883	29687
810.025	29676
810.166	29760
810.308	29714
810.45	29627
810.591	29573
810.733	29566
810.875	29516
811.016	29459
811.158	29490
811.299	29585
811.441	29596
811.582	29619
811.724	29425
811.865	29463
812.007	29360
812.148	29505
812.29	29421
812.431	29638
812.573	29821
812.714	29817
812.855	29969
812.997	29961
813.138	30209
813.279	30034
813.421	29847
813.562	29958
813.703	29878
813.845	29570
813.986	29425
814.127	29337
814.268	29121
814.41	29048
814.551	28957
814.692	29223
814.833	29056
814.974	28984
815.115	29140
815.256	28854
815.397	28949
815.539	28866
815.68	28984
815.821	28599
815.962	28664
816.103	28824
816.244	28637
816.385	28516
816.526	28557
816.666	28398
816.807	28200
816.948	28173
817.089	28234
817.23	28306
817.371	28196
817.512	28116
817.653	28204
817.793	28204
817.934	28162
818.075	28284
818.216	28200
818.356	28097
818.497	27911
818.638	27842
818.778	27819
818.919	27903
819.06	27979
819.2	28048
819.341	28200
819.481	28055
819.622	28196
819.762	28459
819.903	28272
820.043	28196
820.184	28154
820.324	28101
820.465	28253
820.605	28169
820.746	28291
820.886	28048
821.026	28185
821.167	28147
821.307	28097
821.447	28135
821.588	28013
821.728	27865
821.868	27679
822.008	27583
822.149	27622
822.289	27431
822.429	27268
822.569	27340
822.709	27142
822.849	27005
822.99	27096
823.13	26937
823.27	26891
823.41	26750
823.55	26800
823.69	26826
823.83	26815
823.97	26788
824.11	26408
824.25	26621
824.389	26537
824.529	26617
824.669	26629
824.809	26545
824.949	26530
825.089	26617
825.228	26625
825.368	26351
825.508	26480
825.648	26507
825.787	26339
825.927	26358
826.067	26278
826.206	26358
826.346	26377
826.485	26298
826.625	26305
826.765	26453
826.904	26336
827.044	26092
827.183	26111
827.323	26001
827.462	26145
827.601	26138
827.741	26001
827.88	26016
828.02	25894
828.159	25921
828.298	25894
828.437	26031
828.577	25913
828.716	26077
828.855	25826
828.994	25776
829.134	25746
829.273	25769
829.412	25658
829.551	25521
829.69	25597
829.829	25662
829.968	25742
830.107	25613
830.246	25681
830.385	25533
830.524	25540
830.663	25388
830.802	25331
830.941	25168
831.08	25194
831.219	25293
831.357	25251
831.496	25457
831.635	25247
831.774	25133
831.913	25084
832.051	24924
832.19	24951
832.329	24989
832.467	24913
832.606	24768
832.744	24802
832.883	24719
833.022	24627
833.16	24829
833.299	24951
833.437	24772
833.576	24810
833.714	24920
833.852	24837
833.991	24814
834.129	24901
834.267	24821
834.406	24639
834.544	24738
834.682	24871
834.821	24711
834.959	24810
835.097	24642
835.235	24787
835.373	24745
835.511	24658
835.65	24646
835.788	24623
835.926	24414
836.064	24563
836.202	24410
836.34	24681
836.478	24654
836.615	24608
836.753	24555
836.891	24665
837.029	24551
837.167	24593
837.305	24391
837.443	24471
837.58	24384
837.718	24620
837.856	24448
837.993	24346
838.131	24426
838.269	24300
838.406	24418
838.544	24254
838.681	24125
838.819	24045
838.956	23821
839.094	23870
839.231	23874
839.369	23923
839.506	24243
839.643	24038
839.781	23809
839.918	23741
840.055	23684
840.193	23748
840.33	23718
840.467	23714
840.604	23786
840.742	24186
840.879	23619
841.016	23718
841.153	23566
841.29	23672
841.427	23680
841.564	23615
841.701	23619
841.838	23657
841.975	23436
842.112	23474
842.249	23619
842.385	23387
842.522	23707
842.659	23436
842.796	23334
842.933	23425
843.069	23360
843.206	23315
843.343	23379
843.479	23337
843.616	23353
843.752	23117
843.889	23166
844.025	23159
844.162	23025
844.298	23136
844.435	23128
844.571	23105
844.708	23048
844.844	23166
844.98	23124
845.117	23239
845.253	23174
845.389	22911
845.525	23029
845.661	22946
845.798	22816
845.934	22892
846.07	22816
846.206	22805
846.342	23006
846.478	22809
846.614	22668
846.75	22516
846.886	22550
847.022	22584
847.158	22531
847.294	22538
847.429	22664
847.565	22497
847.701	22645
847.837	22322
847.972	22124
848.108	22318
848.244	22246
848.379	22200
848.515	22093
848.65	22010
848.786	22036
848.921	21991
849.057	22112
849.192	22139
849.328	22086
849.463	22063
849.598	22070
849.734	21987
849.869	21960
850.004	21895
850.14	21831
850.275	21857
850.41	21614
850.545	21755
850.68	21675
850.815	21842
850.95	21823
851.085	22051
851.22	21842
851.355	21713
851.49	21789
851.625	21671
851.76	21793
851.895	21557
852.03	21698
852.165	21766
852.299	21766
852.434	21831
852.569	21846
852.703	21781
852.838	21785
852.973	21865
853.107	21895
853.242	21709
853.376	21682
853.511	21553
853.645	21587
853.78	21690
853.914	21583
854.048	21469
854.183	21538
854.317	21580
854.451	21682
854.585	21610
854.72	21580
854.854	21576
854.988	21469
855.122	21583
855.256	21477
855.39	21504
855.524	21557
855.658	21629
855.792	21496
855.926	21401
856.06	21663
856.194	21663
856.327	21580
856.461	21488
856.595	21599
856.729	21447
856.862	21622
856.996	21591
857.13	21458
857.263	21622
857.397	21610
857.53	21530
857.664	21439
857.797	21606
857.931	21675
858.064	21561
858.197	21641
858.331	21542
858.464	21428
858.597	21279
858.731	21443
858.864	21408
858.997	21401
859.13	21504
859.263	21549
859.396	21553
859.529	21431
859.662	21420
859.795	21412
859.928	21591
860.061	21701
860.194	21698
860.327	21473
860.46	21454
860.592	21507
860.725	21618
860.858	21610
860.99	21462
861.123	21306
861.256	21454
861.388	21496
861.521	21892
861.653	21226
861.786	21199
861.918	21382
862.05	21336
862.183	21428
862.315	21580
862.447	21564
862.58	21397
862.712	21287
862.844	21241
862.976	21401
863.108	21176
863.24	21568
863.372	21199
863.504	21100
863.636	21233
863.768	21184
863.9	21233
864.032	20944
864.164	21138
864.296	21161
864.428	21230
864.559	21161
864.691	21131
864.823	21074
864.954	21161
865.086	21013
865.217	20944
865.349	21001
865.48	20982
865.612	21154
865.743	21138
865.875	21108
866.006	20925
866.137	21119
866.269	21051
866.4	21058
866.531	20944
866.662	20982
866.793	20998
866.924	20975
867.055	21058
867.186	21062
867.317	20895
867.448	20845
867.579	20948
867.71	20838
867.841	20807
867.972	20960
868.103	20986
868.233	20986
868.364	20982
868.495	21047
868.625	21256
868.756	21294
868.886	21108
869.017	21070
869.147	21310
869.278	21332
869.408	21264
869.539	21195
869.669	21214
869.799	21142
869.929	21268
870.06	21241
870.19	21557
870.32	21447
870.45	21553
870.58	21614
870.71	21717
870.84	21789
870.97	21599
871.1	21511
871.23	21789
871.36	21876
871.489	21720
871.619	21682
871.749	21835
871.879	21850
872.008	21915
872.138	21846
872.267	21789
872.397	21675
872.526	21542
872.656	21644
872.785	21557
872.915	21926
873.044	21918
873.173	21865
873.303	21850
873.432	21880
873.561	21922
873.69	21899
873.819	21789
873.948	21812
874.077	21804
874.206	21732
874.335	21766
874.464	21892
874.593	22158
874.722	22048
874.851	22116
874.979	22162
875.108	22074
875.237	21949
875.365	21960
875.494	22029
875.623	22219
875.751	22090
875.88	22086
876.008	22162
876.136	22238
876.265	22493
876.393	22550
876.521	22535
876.65	22554
876.778	22508
876.906	22519
877.034	22417
877.162	22432
877.29	22322
877.418	22481
877.546	22481
877.674	22379
877.802	22394
877.93	22386
878.058	22382
878.185	22333
878.313	22409
878.441	22512
878.568	22185
878.696	22371
878.824	22360
878.951	22451
879.079	22557
879.206	22729
879.333	22554
879.461	22398
879.588	22531
879.715	22512
879.842	22809
879.97	22405
880.097	22253
880.224	22246
880.351	22318
880.478	22192
880.605	22299
880.732	22124
880.859	22367
880.986	22166
881.112	22238
881.239	22101
881.366	21991
881.493	21793
881.619	21804
881.746	21983
881.872	21861
881.999	21743
882.125	21701
882.252	21854
882.378	21873
882.505	21755
882.631	21736
882.757	21648
882.883	21595
883.01	21500
883.136	21477
883.262	21355
883.388	21416
883.514	21500
883.64	21511
883.766	21340
883.892	21264
884.018	21252
884.143	21420
884.269	21542
884.395	21207
884.52	21222
884.646	21112
884.772	21093
884.897	21081
885.023	21123
885.148	21188
885.274	21321
885.399	21241
885.524	21199
885.65	21138
885.775	21275
885.9	21127
886.025	21218
886.15	21317
886.275	21081
886.4	21055
886.525	21070
886.65	21077
886.775	21058
886.9	21332
887.025	21382
887.149	21165
887.274	20960
887.399	20781
887.523	20918
887.648	20941
887.773	20746
887.897	20895
888.021	20914
888.146	20830
888.27	20975
888.395	20990
888.519	20921
888.643	20891
888.767	20963
888.891	20807
889.015	20746
889.139	20754
889.263	20579
889.387	20815
889.511	20819
889.635	20701
889.759	20659
889.883	20762
890.006	20720
890.13	20689
890.254	20590
890.377	20469
890.501	20389
890.624	20305
890.748	20412
890.871	20294
890.995	20252
891.118	20157
891.241	20244
891.364	20202
891.488	20298
891.611	20275
891.734	20305
891.857	20244
891.98	20191
892.103	20396
892.226	20259
892.349	20233
892.471	20012
892.594	20191
892.717	20187
892.839	20278
892.962	20233
893.085	20233
893.207	20142
893.33	20122
893.452	20024
893.575	20233
893.697	20020
893.819	20282
893.941	20355
894.064	20282
894.186	20077
894.308	20096
894.43	20161
894.552	20278
894.674	20206
894.796	20149
894.918	20039
895.04	20145
895.161	20206
895.283	20229
895.405	20233
895.526	20176
895.648	20172
895.769	20252
895.891	20267
896.012	20271
896.134	20149
896.255	20134
896.376	20157
896.498	20115
896.619	20343
896.74	20263
896.861	20343
896.982	20617
897.103	20636
897.224	20476
897.345	20305
897.466	20438
897.587	20362
897.708	20533
897.828	20461
897.949	20282
898.07	20153
898.19	20275
898.311	20461
898.431	20355
898.552	20457
898.672	20408
898.792	20427
898.913	20301
899.033	20103
899.153	20111
899.273	20016
899.393	20153
899.513	20016
899.633	20103
899.753	20149
899.873	19982
899.993	20134
900.113	19970
900.232	19898
900.352	19871
900.472	19902
900.591	19845
900.711	19856
900.83	19864
900.95	19925
901.069	19868
901.189	19700
901.308	19502
901.427	19563
901.546	19426
901.665	19487
901.784	19468
901.904	19327
902.023	19168
902.141	19019
902.26	18924
902.379	19042
902.498	18939
902.617	18856
902.735	18939
902.854	18821
902.973	18909
903.091	18654
903.21	18612
903.328	18578
903.446	18483
903.565	18418
903.683	18384
903.801	18384
903.919	18330
904.038	18308
904.156	18323
904.274	18266
904.392	18247
904.51	18152
904.627	18125
904.745	18228
904.863	18285
904.981	17950
905.098	17832
905.216	17832
905.334	17840
905.451	17790
905.569	17775
905.686	17821
905.803	17779
905.921	17619
906.038	17722
906.155	17573
906.272	17490
906.389	17490
906.506	17417
906.623	17421
906.74	17379
906.857	17181
906.974	17265
907.091	17440
907.208	17425
907.324	17356
907.441	17170
907.557	17067
907.674	17045
907.79	16869
907.907	16942
908.023	17048
908.139	16930
908.256	16999
908.372	17014
908.488	16908
908.604	16691
908.72	16698
908.836	16679
908.952	16660
909.068	16778
909.184	16725
909.3	16752
909.415	16691
909.531	16588
909.647	16363
909.762	16344
909.878	16436
909.993	16398
910.108	16421
910.224	16268
910.339	16413
910.454	16306
910.57	16162
910.685	16139
910.8	16348
910.915	16310
911.03	16158
911.145	16006
911.259	16105
911.374	15857
911.489	15953
911.604	15880
911.718	15720
911.833	15770
911.947	15603
912.062	15633
912.176	15736
912.291	15827
912.405	15800
912.519	15892
912.633	15876
912.748	15720
912.862	15561
912.976	15545
913.09	15416
913.204	15466
913.318	15454
913.431	15561
913.545	15553
913.659	15564
913.772	15454
913.886	15386
914	15359
914.113	15443
914.226	15477
914.34	15359
914.453	15329
914.566	15374
914.68	15188
914.793	15165
914.906	15020
915.019	14895
915.132	14861
915.245	14952
915.358	14975
915.47	15017
915.583	14921
915.696	14944
915.809	15024
915.921	15043
916.034	14876
916.146	14842
916.259	14765
916.371	14933
916.483	14720
916.595	14807
916.708	14705
916.82	14720
916.932	14792
917.044	14750
917.156	14705
917.268	14590
917.38	14651
917.491	14533
917.603	14682
917.715	14724
917.826	14621
917.938	14533
918.049	14457
918.161	14708
918.272	14590
918.384	14663
918.495	14518
918.606	14339
918.717	14298
918.828	14355
918.939	14419
919.05	14301
919.161	14385
919.272	14111
919.383	14187
919.494	14412
919.604	14648
919.715	14320
919.826	14305
919.936	14290
920.047	14358
920.157	14328
920.267	14480
920.378	14298
920.488	14370
920.598	14415
920.708	14526
920.818	14446
920.928	14343
921.038	14545
921.148	14431
921.258	14256
921.368	14172
921.477	14062
921.587	14031
921.697	13989
921.806	14100
921.916	13890
922.025	13765
922.134	13689
922.244	13594
922.353	13677
922.462	13514
922.571	13559
922.68	13381
922.789	13259
922.898	13362
923.007	13171
923.116	13354
923.224	13282
923.333	13282
923.442	13118
923.55	13171
923.659	13213
923.767	13240
923.876	13103
923.984	13114
924.092	13027
924.201	13110
924.309	13084
924.417	13084
924.525	12970
924.633	12973
924.741	13772
924.849	12798
924.956	12951
925.064	12700
925.172	12616
925.279	12760
925.387	12726
925.494	12738
925.602	12852
925.709	12726
925.816	12635
925.924	12745
926.031	12791
926.138	12673
926.245	12711
926.352	12642
926.459	12734
926.566	12810
926.673	12555
926.779	12540
926.886	12536
926.993	12388
927.099	12285
927.206	12285
927.312	12323
927.419	12311
927.525	12319
927.631	12388
927.737	12258
927.843	12129
927.95	12102
928.056	12167
928.162	12155
928.267	12110
928.373	12772
928.479	12167
928.585	11904
928.69	12114
928.796	12015
928.901	12026
929.007	11904
929.112	11969
929.218	11992
929.323	11832
929.428	11802
929.533	11958
929.638	11794
929.743	11855
929.848	11805
929.953	11729
930.058	11634
930.163	11471
930.267	11581
930.372	11718
930.477	11543
930.581	11756
930.685	11577
930.79	11471
930.894	11406
930.998	11376
931.103	11478
931.207	11155
931.311	11045
931.415	10987
931.519	10793
931.623	10774
