Data from test_V78500241_2244.txt Node
Date: Fri Mar 25 15:57:20 CST 2022
User: usil
Spectrometer: V785-0024
Trigger mode: 0
Integration Time (sec): 4.000000E-1
Scans to average: 1
Nonlinearity correction enabled: false
Boxcar width: 0
Storing dark spectrum: false
XAxis mode: Wavelengths
Number of Pixels in Spectrum: 1024
>>>>>Begin Spectral Data<<<<<
801.071	28873
801.214	28706
801.356	28565
801.499	28481
801.641	28424
801.783	28470
801.926	28363
802.068	28436
802.211	28276
802.353	28318
802.496	28169
802.638	28074
802.78	28097
802.923	27922
803.065	27888
803.208	27953
803.35	28048
803.492	28128
803.635	28234
803.777	28169
803.919	28131
804.061	28611
804.204	28242
804.346	28215
804.488	28196
804.63	28303
804.773	28261
804.915	28352
805.057	28363
805.199	28268
805.341	28284
805.483	28455
805.626	28363
805.768	28390
805.91	28291
806.052	28379
806.194	28375
806.336	28554
806.478	28424
806.62	28428
806.762	28523
806.904	28812
807.046	28946
807.188	28854
807.33	28984
807.472	28923
807.614	28782
807.756	29010
807.898	28611
808.04	28550
808.182	28656
808.324	28752
808.465	28774
808.607	28949
808.749	28995
808.891	29208
809.033	29288
809.174	29231
809.316	29204
809.458	29185
809.6	29117
809.741	29121
809.883	29391
810.025	29307
810.166	29318
810.308	29375
810.45	29433
810.591	29379
810.733	29166
810.875	29239
811.016	29003
811.158	29071
811.299	29067
811.441	29372
811.582	29375
811.724	29246
811.865	29174
812.007	29083
812.148	29136
812.29	29231
812.431	29315
812.573	29463
812.714	29490
812.855	29551
812.997	29695
813.138	29771
813.279	29813
813.421	29649
813.562	29589
813.703	29482
813.845	29326
813.986	29136
814.127	29056
814.268	28771
814.41	28961
814.551	28790
814.692	28904
814.833	28664
814.974	28771
815.115	28999
815.256	28854
815.397	28778
815.539	28816
815.68	28702
815.821	28546
815.962	28679
816.103	28717
816.244	28481
816.385	28489
816.526	28474
816.666	28223
816.807	28067
816.948	28226
817.089	28287
817.23	28306
817.371	28253
817.512	28150
817.653	28063
817.793	27994
817.934	28070
818.075	28242
818.216	28314
818.356	28006
818.497	28036
818.638	27713
818.778	28040
818.919	27937
819.06	27953
819.2	28162
819.341	28204
819.481	28173
819.622	28474
819.762	28538
819.903	28554
820.043	28390
820.184	28306
820.324	28348
820.465	28337
820.605	28265
820.746	28306
820.886	28158
821.026	28318
821.167	28287
821.307	28314
821.447	28329
821.588	27964
821.728	27949
821.868	27808
822.008	27751
822.149	27698
822.289	27755
822.429	27469
822.569	27313
822.709	27256
822.849	27203
822.99	27294
823.13	27211
823.27	27066
823.41	27043
823.55	26834
823.69	27074
823.83	26918
823.97	27070
824.11	26750
824.25	26773
824.389	26804
824.529	26872
824.669	26708
824.809	26823
824.949	26891
825.089	26880
825.228	26872
825.368	26716
825.508	26629
825.648	26575
825.787	26648
825.927	26910
826.067	26701
826.206	26777
826.346	26804
826.485	26701
826.625	26708
826.765	26845
826.904	26663
827.044	26507
827.183	26408
827.323	26419
827.462	26461
827.601	26328
827.741	26343
827.88	26423
828.02	26240
828.159	26457
828.298	26541
828.437	26492
828.577	26324
828.716	26434
828.855	26244
828.994	26138
829.134	26119
829.273	26168
829.412	26107
829.551	25993
829.69	26020
829.829	26065
829.968	26206
830.107	26199
830.246	26016
830.385	26107
830.524	25997
830.663	25947
830.802	25776
830.941	25651
831.08	25647
831.219	25818
831.357	25757
831.496	25909
831.635	25666
831.774	25693
831.913	25655
832.051	25597
832.19	25434
832.329	25419
832.467	25487
832.606	25369
832.744	25327
832.883	25217
833.022	25354
833.16	25308
833.299	25449
833.437	25377
833.576	25403
833.714	25289
833.852	25441
833.991	25506
834.129	25434
834.267	25487
834.406	25438
834.544	25472
834.682	25362
834.821	25339
834.959	25537
835.097	25312
835.235	25331
835.373	25403
835.511	25460
835.65	25228
835.788	25270
835.926	25122
836.064	25099
836.202	25084
836.34	25255
836.478	25327
836.615	25148
836.753	25179
836.891	25251
837.029	25308
837.167	25183
837.305	25072
837.443	25107
837.58	25038
837.718	25091
837.856	25145
837.993	25069
838.131	25027
838.269	24886
838.406	24833
838.544	24928
838.681	24745
838.819	24639
838.956	24483
839.094	24502
839.231	24555
839.369	24779
839.506	24821
839.643	24738
839.781	24517
839.918	24540
840.055	24559
840.193	24505
840.33	24467
840.467	24490
840.604	24475
840.742	24684
840.879	24361
841.016	24464
841.153	24239
841.29	24525
841.427	24376
841.564	24403
841.701	24551
841.838	24376
841.975	24277
842.112	24426
842.249	24209
842.385	24140
842.522	24353
842.659	24289
842.796	24220
842.933	24049
843.069	24129
843.206	24102
843.343	24209
843.479	24220
843.616	24319
843.752	23920
843.889	23904
844.025	24125
844.162	23996
844.298	24049
844.435	24102
844.571	23973
844.708	23828
844.844	24053
844.98	24068
845.117	24083
845.253	23950
845.389	23840
845.525	23821
845.661	23718
845.798	23687
845.934	23665
846.07	23722
846.206	23668
846.342	23745
846.478	23566
846.614	23459
846.75	23372
846.886	23417
847.022	23520
847.158	23463
847.294	23391
847.429	23452
847.565	23277
847.701	23638
847.837	23098
847.972	23033
848.108	23227
848.244	23220
848.379	22976
848.515	22927
848.65	22946
848.786	23025
848.921	23003
849.057	23098
849.192	23067
849.328	22828
849.463	23022
849.598	22923
849.734	22736
849.869	22965
850.004	22908
850.14	22949
850.275	22664
850.41	22717
850.545	22713
850.68	22721
850.815	22733
850.95	22694
851.085	22957
851.22	22839
851.355	22828
851.49	22694
851.625	22786
851.76	22782
851.895	22725
852.03	22584
852.165	22691
852.299	22839
852.434	22850
852.569	22809
852.703	22790
852.838	22812
852.973	22812
853.107	22915
853.242	22573
853.376	22504
853.511	22485
853.645	22440
853.78	22698
853.914	22618
854.048	22577
854.183	22561
854.317	22542
854.451	22782
854.585	22584
854.72	22527
854.854	22561
854.988	22512
855.122	22500
855.256	22462
855.39	22615
855.524	22645
855.658	22622
855.792	22615
855.926	22656
856.06	22630
856.194	22679
856.327	22436
856.461	22516
856.595	22603
856.729	22481
856.862	22584
856.996	22588
857.13	22736
857.263	22607
857.397	22622
857.53	22622
857.664	22702
857.797	22637
857.931	22611
858.064	22546
858.197	22660
858.331	22565
858.464	22485
858.597	22405
858.731	22485
858.864	22580
858.997	22573
859.13	22550
859.263	22550
859.396	22664
859.529	22546
859.662	22527
859.795	22421
859.928	22557
860.061	22675
860.194	22793
860.327	22565
860.46	22565
860.592	22767
860.725	22752
860.858	22672
860.99	22618
861.123	22557
861.256	22535
861.388	22573
861.521	23204
861.653	22443
861.786	22386
861.918	22432
862.05	22402
862.183	22497
862.315	22470
862.447	22577
862.58	22443
862.712	22405
862.844	22177
862.976	22325
863.108	22310
863.24	22831
863.372	22143
863.504	22405
863.636	22181
863.768	22287
863.9	22177
864.032	22226
864.164	22306
864.296	22295
864.428	22310
864.559	22272
864.691	22489
864.823	22382
864.954	22109
865.086	22287
865.217	22253
865.349	22120
865.48	22238
865.612	22055
865.743	22219
865.875	22211
866.006	22200
866.137	22204
866.269	22120
866.4	22139
866.531	22067
866.662	22074
866.793	22074
866.924	22051
867.055	22112
867.186	22246
867.317	22067
867.448	22013
867.579	22021
867.71	21979
867.841	22036
867.972	22105
868.103	22093
868.233	22082
868.364	22032
868.495	22268
868.625	22356
868.756	22360
868.886	22287
869.017	22303
869.147	22341
869.278	22440
869.408	22402
869.539	22265
869.669	22428
869.799	22405
869.929	22402
870.06	22478
870.19	22679
870.32	22618
870.45	22630
870.58	22668
870.71	22786
870.84	22843
870.97	22683
871.1	22744
871.23	22843
871.36	23014
871.489	22869
871.619	22820
871.749	22987
871.879	22934
872.008	23006
872.138	22858
872.267	22995
872.397	22774
872.526	22797
872.656	22675
872.785	22793
872.915	22911
873.044	23083
873.173	22911
873.303	22911
873.432	22923
873.561	23010
873.69	22930
873.819	23105
873.948	22976
874.077	22889
874.206	22869
874.335	22946
874.464	22930
874.593	23178
874.722	23060
874.851	23151
874.979	23208
875.108	23185
875.237	23056
875.365	23006
875.494	23174
875.623	23239
875.751	23064
875.88	23220
876.008	23200
876.136	23315
876.265	23425
876.393	23668
876.521	23615
876.65	23676
876.778	23539
876.906	23528
877.034	23474
877.162	23486
877.29	23376
877.418	23581
877.546	23455
877.674	23520
877.802	23520
877.93	23531
878.058	23474
878.185	23467
878.313	23318
878.441	23398
878.568	23204
878.696	23303
878.824	23558
878.951	23455
879.079	23684
879.206	23707
879.333	23592
879.461	23463
879.588	23668
879.715	23592
879.842	23672
879.97	23524
880.097	23292
880.224	23227
880.351	23391
880.478	23368
880.605	23235
880.732	23349
880.859	23528
880.986	23303
881.112	23322
881.239	23056
881.366	23022
881.493	23025
881.619	22953
881.746	22824
881.872	22869
881.999	22809
882.125	22824
882.252	22915
882.378	22854
882.505	22949
882.631	22774
882.757	22569
882.883	22569
883.01	22653
883.136	22546
883.262	22462
883.388	22386
883.514	22466
883.64	22615
883.766	22443
883.892	22341
884.018	22382
884.143	22489
884.269	22569
884.395	22150
884.52	22204
884.646	22230
884.772	22002
884.897	22044
885.023	22200
885.148	22139
885.274	22348
885.399	22188
885.524	22090
885.65	22215
885.775	22135
885.9	22131
886.025	22329
886.15	22280
886.275	22169
886.4	22070
886.525	22086
886.65	22021
886.775	22070
886.9	22333
887.025	22318
887.149	22143
887.274	22032
887.399	21888
887.523	21968
887.648	21865
887.773	21827
887.897	21880
888.021	21960
888.146	21812
888.27	21953
888.395	22067
888.519	21998
888.643	21937
888.767	21975
888.891	21793
889.015	21675
889.139	21831
889.263	21667
889.387	21778
889.511	21934
889.635	21850
889.759	21644
889.883	21580
890.006	21846
890.13	21774
890.254	21679
890.377	21671
890.501	21439
890.624	21397
890.748	21523
890.871	21370
890.995	21355
891.118	21249
891.241	21329
891.364	21275
891.488	21416
891.611	21256
891.734	21374
891.857	21283
891.98	21359
892.103	21401
892.226	21336
892.349	21245
892.471	21077
892.594	21233
892.717	21279
892.839	21070
892.962	21161
893.085	21310
893.207	21131
893.33	21032
893.452	21207
893.575	21116
893.697	21211
893.819	21279
893.941	21279
894.064	21230
894.186	21036
894.308	21077
894.43	21127
894.552	21241
894.674	21260
894.796	20967
894.918	21176
895.04	21100
895.161	21176
895.283	21211
895.405	21066
895.526	21070
895.648	21127
895.769	21279
895.891	21146
896.012	21252
896.134	21100
896.255	21135
896.376	21062
896.498	21123
896.619	21119
896.74	21108
896.861	21100
896.982	21557
897.103	21530
897.224	21382
897.345	21382
897.466	21332
897.587	21351
897.708	21485
897.828	21260
897.949	21367
898.07	21116
898.19	21260
898.311	21412
898.431	21260
898.552	21256
898.672	21355
898.792	21481
898.913	21291
899.033	21272
899.153	21192
899.273	21074
899.393	20998
899.513	21146
899.633	21028
899.753	21096
899.873	21058
899.993	21005
900.113	20998
900.232	20982
900.352	20944
900.472	20948
900.591	20872
900.711	20982
900.83	20701
900.95	20933
901.069	20963
901.189	20849
901.308	20530
901.427	20374
901.546	20556
901.665	20393
901.784	20366
901.904	20259
902.023	20096
902.141	19978
902.26	19883
902.379	20027
902.498	19947
902.617	19890
902.735	19936
902.854	19860
902.973	19864
903.091	19708
903.21	19544
903.328	19540
903.446	19514
903.565	19403
903.683	19419
903.801	19202
903.919	19445
904.038	19247
904.156	18920
904.274	19152
904.392	19088
904.51	19057
904.627	19156
904.745	19202
904.863	19129
904.981	18909
905.098	18760
905.216	18886
905.334	18764
905.451	18738
905.569	18726
905.686	18802
905.803	18821
905.921	18513
906.038	18635
906.155	18513
906.272	18414
906.389	18479
906.506	18384
906.623	18258
906.74	18308
906.857	18174
906.974	18232
907.091	18273
907.208	18308
907.324	18304
907.441	18201
907.557	17996
907.674	17961
907.79	17840
907.907	17977
908.023	17958
908.139	18163
908.256	17954
908.372	17942
908.488	17912
908.604	17824
908.72	17695
908.836	17817
908.952	17699
909.068	17707
909.184	17809
909.3	17767
909.415	17767
909.531	17737
909.647	17566
909.762	17558
909.878	17467
909.993	17364
910.108	17406
910.224	17349
910.339	17402
910.454	17242
910.57	17212
910.685	17185
910.8	17410
910.915	17330
911.03	17181
911.145	17071
911.259	16987
911.374	17018
911.489	17003
911.604	16881
911.718	16793
911.833	16706
911.947	16706
912.062	16641
912.176	16713
912.291	16816
912.405	16771
912.519	16972
912.633	16911
912.748	16778
912.862	16660
912.976	16538
913.09	16428
913.204	16531
913.318	16440
913.431	16679
913.545	16580
913.659	16554
913.772	16565
913.886	16428
914	16386
914.113	16424
914.226	16382
914.34	16432
914.453	16246
914.566	16280
914.68	16261
914.793	16139
914.906	15918
915.019	15953
915.132	15880
915.245	15899
915.358	15835
915.47	15850
915.583	15899
915.696	15895
915.809	16032
915.921	16021
916.034	15869
916.146	15739
916.259	15812
916.371	15838
916.483	15838
916.595	15698
916.708	15633
916.82	15785
916.932	15587
917.044	15637
917.156	15644
917.268	15542
917.38	15511
917.491	15504
917.603	15538
917.715	15660
917.826	15644
917.938	15439
918.049	15321
918.161	15477
918.272	15568
918.384	15545
918.495	15519
918.606	15222
918.717	15214
918.828	15302
918.939	15351
919.05	15218
919.161	15142
919.272	15093
919.383	15077
919.494	15233
919.604	15428
919.715	15313
919.826	15081
919.936	15169
920.047	15313
920.157	15317
920.267	15500
920.378	15268
920.488	15188
920.598	15374
920.708	15622
920.818	15329
920.928	15313
921.038	15473
921.148	15500
921.258	15165
921.368	15127
921.477	14906
921.587	14971
921.697	14765
921.806	14937
921.916	14701
922.025	14674
922.134	14590
922.244	14514
922.353	14629
922.462	14469
922.571	14408
922.68	14301
922.789	14259
922.898	14259
923.007	14164
923.116	14176
923.224	14164
923.333	14119
923.442	14043
923.55	14054
923.659	14005
923.767	14180
923.876	13951
923.984	14005
924.092	13959
924.201	13947
924.309	13906
924.417	13879
924.525	13868
924.633	13906
924.741	14625
924.849	13795
924.956	13791
925.064	13620
925.172	13499
925.279	13605
925.387	13647
925.494	13563
925.602	13689
925.709	13616
925.816	13381
925.924	13521
926.031	13563
926.138	13483
926.245	13567
926.352	13422
926.459	13601
926.566	13521
926.673	13381
926.779	13343
926.886	13358
926.993	13206
927.099	13175
927.206	13126
927.312	13053
927.419	13198
927.525	13152
927.631	13023
927.737	12977
927.843	13004
927.95	12875
928.056	13053
928.162	13019
928.267	12966
928.373	13647
928.479	13061
928.585	12745
928.69	12810
928.796	12901
928.901	12753
929.007	12730
929.112	12867
929.218	12753
929.323	12646
929.428	12646
929.533	12806
929.638	12620
929.743	12555
929.848	12688
929.953	12700
930.058	12532
930.163	12300
930.267	12410
930.372	12471
930.477	12296
930.581	12551
930.685	12350
930.79	12167
930.894	12197
930.998	12087
931.103	12262
931.207	11946
931.311	11935
931.415	11874
931.519	11520
931.623	11532
