Data from test_V78500241_1342.txt Node
Date: Fri Mar 25 15:51:05 CST 2022
User: usil
Spectrometer: V785-0024
Trigger mode: 0
Integration Time (sec): 4.000000E-1
Scans to average: 1
Nonlinearity correction enabled: false
Boxcar width: 0
Storing dark spectrum: false
XAxis mode: Wavelengths
Number of Pixels in Spectrum: 1024
>>>>>Begin Spectral Data<<<<<
801.071	28173
801.214	28044
801.356	28013
801.499	27861
801.641	27682
801.783	27884
801.926	27865
802.068	27625
802.211	27587
802.353	27755
802.496	27405
802.638	27427
802.78	27363
802.923	27313
803.065	27336
803.208	27367
803.35	27553
803.492	27507
803.635	27557
803.777	27435
803.919	27545
804.061	27926
804.204	27709
804.346	27538
804.488	27435
804.63	27606
804.773	27511
804.915	27739
805.057	27743
805.199	27511
805.341	27622
805.483	27899
805.626	27694
805.768	27720
805.91	27751
806.052	27941
806.194	27724
806.336	28029
806.478	27823
806.62	27899
806.762	27918
806.904	28093
807.046	28443
807.188	28360
807.33	28166
807.472	28120
807.614	28105
807.756	28154
807.898	28215
808.04	28112
808.182	28211
808.324	28139
808.465	28154
808.607	28390
808.749	28413
808.891	28394
809.033	28679
809.174	28447
809.316	28310
809.458	28519
809.6	28394
809.741	28573
809.883	28634
810.025	28603
810.166	28717
810.308	28721
810.45	28710
810.591	28565
810.733	28268
810.875	28337
811.016	28440
811.158	28360
811.299	28459
811.441	28626
811.582	28649
811.724	28478
811.865	28550
812.007	28630
812.148	28523
812.29	28432
812.431	28702
812.573	28801
812.714	28816
812.855	29025
812.997	29159
813.138	29121
813.279	29117
813.421	29044
813.562	28968
813.703	28888
813.845	28793
813.986	28428
814.127	28238
814.268	28090
814.41	28112
814.551	28249
814.692	28147
814.833	28017
814.974	28192
815.115	28230
815.256	28013
815.397	28002
815.539	28078
815.68	27975
815.821	27857
815.962	28017
816.103	28040
816.244	27743
816.385	27774
816.526	27637
816.666	27564
816.807	27447
816.948	27515
817.089	27747
817.23	27420
817.371	27519
817.512	27348
817.653	27511
817.793	27298
817.934	27344
818.075	27447
818.216	27317
818.356	27317
818.497	27401
818.638	27100
818.778	27291
818.919	27226
819.06	27180
819.2	27332
819.341	27507
819.481	27408
819.622	27610
819.762	27797
819.903	27660
820.043	27557
820.184	27637
820.324	27572
820.465	27595
820.605	27462
820.746	27694
820.886	27481
821.026	27507
821.167	27469
821.307	27572
821.447	27530
821.588	27325
821.728	27389
821.868	26994
822.008	27017
822.149	26861
822.289	26918
822.429	26781
822.569	26701
822.709	26636
822.849	26476
822.99	26309
823.13	26377
823.27	26358
823.41	26389
823.55	26172
823.69	26286
823.83	26305
823.97	26130
824.11	26077
824.25	26115
824.389	26031
824.529	26043
824.669	26142
824.809	26214
824.949	26187
825.089	26164
825.228	26039
825.368	25879
825.508	25947
825.648	25940
825.787	25864
825.927	26092
826.067	25997
826.206	25944
826.346	26126
826.485	25925
826.625	25883
826.765	25978
826.904	25982
827.044	25769
827.183	25704
827.323	25601
827.462	25761
827.601	25635
827.741	25620
827.88	25666
828.02	25556
828.159	25662
828.298	25715
828.437	25677
828.577	25620
828.716	25620
828.855	25533
828.994	25392
829.134	25362
829.273	25369
829.412	25293
829.551	25312
829.69	25373
829.829	25365
829.968	25400
830.107	25343
830.246	25422
830.385	25354
830.524	25194
830.663	25194
830.802	25034
830.941	24958
831.08	24977
831.219	25084
831.357	25061
831.496	25160
831.635	25012
831.774	24966
831.913	24821
832.051	24844
832.19	24582
832.329	24779
832.467	24673
832.606	24517
832.744	24642
832.883	24608
833.022	24623
833.16	24490
833.299	24707
833.437	24589
833.576	24608
833.714	24749
833.852	24810
833.991	24741
834.129	24730
834.267	24764
834.406	24700
834.544	24730
834.682	24726
834.821	24646
834.959	24890
835.097	24658
835.235	24597
835.373	24760
835.511	24631
835.65	24525
835.788	24517
835.926	24365
836.064	24201
836.202	24380
836.34	24498
836.478	24612
836.615	24505
836.753	24502
836.891	24544
837.029	24593
837.167	24460
837.305	24429
837.443	24353
837.58	24346
837.718	24429
837.856	24475
837.993	24155
838.131	24388
838.269	24258
838.406	24281
838.544	24136
838.681	24060
838.819	23961
838.956	23870
839.094	23874
839.231	23756
839.369	24011
839.506	24209
839.643	24003
839.781	23901
839.918	23741
840.055	23885
840.193	23908
840.33	23764
840.467	23729
840.604	23764
840.742	24076
840.879	23691
841.016	23653
841.153	23657
841.29	23718
841.427	23638
841.564	23745
841.701	23703
841.838	23630
841.975	23589
842.112	23600
842.249	23516
842.385	23501
842.522	23684
842.659	23596
842.796	23505
842.933	23406
843.069	23482
843.206	23391
843.343	23600
843.479	23520
843.616	23509
843.752	23303
843.889	23227
844.025	23337
844.162	23231
844.298	23296
844.435	23185
844.571	23166
844.708	23387
844.844	23478
844.98	23318
845.117	23334
845.253	23273
845.389	23242
845.525	23166
845.661	23140
845.798	22991
845.934	23056
846.07	22972
846.206	22900
846.342	23060
846.478	22961
846.614	22736
846.75	22634
846.886	22641
847.022	22812
847.158	22862
847.294	22675
847.429	22698
847.565	22733
847.701	23025
847.837	22394
847.972	22379
848.108	22622
848.244	22512
848.379	22428
848.515	22344
848.65	22333
848.786	22226
848.921	22337
849.057	22432
849.192	22421
849.328	22352
849.463	22234
849.598	22261
849.734	22291
849.869	22097
850.004	21964
850.14	22124
850.275	22036
850.41	22013
850.545	22025
850.68	22055
850.815	22185
850.95	21964
851.085	22261
851.22	22154
851.355	22063
851.49	22067
851.625	22131
851.76	22078
851.895	22101
852.03	22032
852.165	22032
852.299	21975
852.434	22112
852.569	22166
852.703	21975
852.838	22090
852.973	22154
853.107	22059
853.242	21987
853.376	21934
853.511	21838
853.645	21922
853.78	21975
853.914	21907
854.048	22017
854.183	21861
854.317	21983
854.451	22063
854.585	21945
854.72	21865
854.854	21968
854.988	21857
855.122	21922
855.256	21743
855.39	21903
855.524	21949
855.658	21907
855.792	21846
855.926	22029
856.06	21876
856.194	21987
856.327	21949
856.461	21778
856.595	21842
856.729	21884
856.862	22090
856.996	21994
857.13	21907
857.263	22059
857.397	22010
857.53	21865
857.664	22029
857.797	22070
857.931	21968
858.064	21930
858.197	21998
858.331	21861
858.464	21842
858.597	21705
858.731	21762
858.864	21778
858.997	21941
859.13	21911
859.263	21968
859.396	22040
859.529	21789
859.662	21797
859.795	21922
859.928	21895
860.061	21983
860.194	21979
860.327	21979
860.46	21991
860.592	21979
860.725	22017
860.858	21998
860.99	21991
861.123	21873
861.256	21835
861.388	21895
861.521	22519
861.653	21713
861.786	21743
861.918	21736
862.05	21785
862.183	21774
862.315	21831
862.447	21850
862.58	21743
862.712	21656
862.844	21580
862.976	21682
863.108	21583
863.24	22029
863.372	21492
863.504	21504
863.636	21587
863.768	21622
863.9	21561
864.032	21538
864.164	21340
864.296	21610
864.428	21713
864.559	21671
864.691	21701
864.823	21660
864.954	21694
865.086	21568
865.217	21450
865.349	21405
865.48	21507
865.612	21348
865.743	21652
865.875	21523
866.006	21435
866.137	21500
866.269	21603
866.4	21462
866.531	21500
866.662	21454
866.793	21450
866.924	21408
867.055	21469
867.186	21431
867.317	21382
867.448	21340
867.579	21492
867.71	21214
867.841	21260
867.972	21382
868.103	21340
868.233	21408
868.364	21393
868.495	21545
868.625	21530
868.756	21694
868.886	21682
869.017	21644
869.147	21797
869.278	21720
869.408	21671
869.539	21564
869.669	21736
869.799	21812
869.929	21739
870.06	21812
870.19	21964
870.32	21934
870.45	21926
870.58	21915
870.71	22188
870.84	22120
870.97	22017
871.1	22150
871.23	22299
871.36	22261
871.489	22280
871.619	22177
871.749	22265
871.879	22280
872.008	22303
872.138	22093
872.267	22246
872.397	22200
872.526	22078
872.656	22169
872.785	22101
872.915	22367
873.044	22375
873.173	22162
873.303	22306
873.432	22211
873.561	22417
873.69	22268
873.819	22295
873.948	22375
874.077	22299
874.206	22166
874.335	22303
874.464	22344
874.593	22565
874.722	22485
874.851	22508
874.979	22580
875.108	22622
875.237	22455
875.365	22428
875.494	22466
875.623	22561
875.751	22398
875.88	22459
876.008	22645
876.136	22683
876.265	22885
876.393	23075
876.521	22831
876.65	23071
876.778	22923
876.906	22763
877.034	22778
877.162	22767
877.29	22820
877.418	22835
877.546	22801
877.674	22710
877.802	22759
877.93	22927
878.058	22866
878.185	22691
878.313	22759
878.441	22847
878.568	22778
878.696	22919
878.824	22755
878.951	23010
879.079	23151
879.206	23098
879.333	22999
879.461	22877
879.588	22889
879.715	22976
879.842	23121
879.97	23064
880.097	22687
880.224	22675
880.351	22637
880.478	22656
880.605	22630
880.732	22462
880.859	22763
880.986	22733
881.112	22645
881.239	22531
881.366	22451
881.493	22223
881.619	22238
881.746	22223
881.872	22284
881.999	22196
882.125	22078
882.252	22291
882.378	21994
882.505	22367
882.631	22029
882.757	21945
882.883	22120
883.01	21812
883.136	21953
883.262	21739
883.388	21808
883.514	21983
883.64	21884
883.766	21755
883.892	21781
884.018	21759
884.143	21857
884.269	21842
884.395	21660
884.52	21507
884.646	21572
884.772	21526
884.897	21420
885.023	21660
885.148	21633
885.274	21743
885.399	21553
885.524	21466
885.65	21450
885.775	21538
885.9	21542
886.025	21705
886.15	21564
886.275	21576
886.4	21473
886.525	21542
886.65	21431
886.775	21515
886.9	21724
887.025	21663
887.149	21515
887.274	21481
887.399	21462
887.523	21340
887.648	21329
887.773	21142
887.897	21321
888.021	21443
888.146	21283
888.27	21477
888.395	21374
888.519	21447
888.643	21393
888.767	21462
888.891	21180
889.015	21207
889.139	21161
889.263	21077
889.387	21287
889.511	21329
889.635	21241
889.759	21028
889.883	21013
890.006	21249
890.13	21165
890.254	21051
890.377	21199
890.501	20895
890.624	20842
890.748	21047
890.871	20811
890.995	20678
891.118	20629
891.241	20727
891.364	20842
891.488	20777
891.611	20689
891.734	20697
891.857	20762
891.98	20724
892.103	20720
892.226	20693
892.349	20537
892.471	20514
892.594	20644
892.717	20644
892.839	20575
892.962	20598
893.085	20609
893.207	20602
893.33	20480
893.452	20518
893.575	20625
893.697	20689
893.819	20773
893.941	20731
894.064	20750
894.186	20549
894.308	20461
894.43	20617
894.552	20648
894.674	20670
894.796	20499
894.918	20644
895.04	20495
895.161	20701
895.283	20545
895.405	20579
895.526	20648
895.648	20587
895.769	20568
895.891	20594
896.012	20712
896.134	20632
896.255	20636
896.376	20644
896.498	20602
896.619	20682
896.74	20473
896.861	20560
896.982	20834
897.103	21009
897.224	20902
897.345	20800
897.466	20796
897.587	20842
897.708	20925
897.828	20838
897.949	20765
898.07	20701
898.19	20708
898.311	20941
898.431	20708
898.552	20910
898.672	20758
898.792	20849
898.913	20883
899.033	20712
899.153	20579
899.273	20480
899.393	20602
899.513	20575
899.633	20598
899.753	20598
899.873	20492
899.993	20579
900.113	20465
900.232	20480
900.352	20533
900.472	20374
900.591	20244
900.711	20259
900.83	20252
900.95	20309
901.069	20438
901.189	20294
901.308	20020
901.427	19921
901.546	19947
901.665	20012
901.784	19868
901.904	19567
902.023	19609
902.141	19548
902.26	19438
902.379	19453
902.498	19285
902.617	19422
902.735	19407
902.854	19400
902.973	19247
903.091	19015
903.21	19114
903.328	19057
903.446	18985
903.565	18852
903.683	18776
903.801	18738
903.919	18886
904.038	18840
904.156	18608
904.274	18856
904.392	18620
904.51	18540
904.627	18642
904.745	18665
904.863	18745
904.981	18445
905.098	18357
905.216	18258
905.334	18296
905.451	18270
905.569	18330
905.686	18353
905.803	18342
905.921	18098
906.038	18197
906.155	18152
906.272	18072
906.389	18034
906.506	17870
906.623	17836
906.74	17840
906.857	17627
906.974	17771
907.091	17897
907.208	17916
907.324	17878
907.441	17790
907.557	17608
907.674	17516
907.79	17410
907.907	17566
908.023	17459
908.139	17581
908.256	17547
908.372	17406
908.488	17459
908.604	17326
908.72	17242
908.836	17258
908.952	17246
909.068	17220
909.184	17391
909.3	17246
909.415	17258
909.531	17204
909.647	17075
909.762	16889
909.878	17067
909.993	16915
910.108	16938
910.224	16930
910.339	16919
910.454	16778
910.57	16717
910.685	16710
910.8	16866
910.915	16889
911.03	16622
911.145	16577
911.259	16577
911.374	16493
911.489	16481
911.604	16371
911.718	16329
911.833	16348
911.947	16200
912.062	16105
912.176	16284
912.291	16386
912.405	16280
912.519	16440
912.633	16390
912.748	16325
912.862	16253
912.976	16135
913.09	15998
913.204	16074
913.318	16082
913.431	16219
913.545	16101
913.659	16166
913.772	16013
913.886	15926
914	15979
914.113	15956
914.226	16036
914.34	15892
914.453	15762
914.566	15945
914.68	15774
914.793	15797
914.906	15584
915.019	15469
915.132	15500
915.245	15431
915.358	15542
915.47	15473
915.583	15450
915.696	15431
915.809	15580
915.921	15595
916.034	15199
916.146	15378
916.259	15359
916.371	15462
916.483	15325
916.595	15306
916.708	15359
916.82	15332
916.932	15310
917.044	15321
917.156	15188
917.268	15176
917.38	15138
917.491	15131
917.603	15226
917.715	15256
917.826	15291
917.938	15119
918.049	14994
918.161	15150
918.272	15233
918.384	15173
918.495	15013
918.606	14883
918.717	14849
918.828	14956
918.939	14971
919.05	14845
919.161	14815
919.272	14674
919.383	14705
919.494	14941
919.604	15097
919.715	14895
919.826	14739
919.936	14826
920.047	14906
920.157	14944
920.267	15036
920.378	14872
920.488	14876
920.598	14952
920.708	15116
920.818	14982
920.928	14948
921.038	15123
921.148	15142
921.258	14834
921.368	14693
921.477	14613
921.587	14606
921.697	14393
921.806	14564
921.916	14480
922.025	14267
922.134	14343
922.244	14130
922.353	14256
922.462	14077
922.571	13989
922.68	13849
922.789	13822
922.898	13856
923.007	13814
923.116	13875
923.224	13841
923.333	13875
923.442	13719
923.55	13708
923.659	13632
923.767	13674
923.876	13639
923.984	13628
924.092	13571
924.201	13655
924.309	13556
924.417	13559
924.525	13552
924.633	13518
924.741	14362
924.849	13346
924.956	13422
925.064	13221
925.172	13190
925.279	13225
925.387	13270
925.494	13255
925.602	13384
925.709	13263
925.816	13217
925.924	13171
926.031	13232
926.138	13126
926.245	13232
926.352	13076
926.459	13236
926.566	13331
926.673	13076
926.779	12996
926.886	12989
926.993	12829
927.099	12840
927.206	12779
927.312	12760
927.419	12848
927.525	12817
927.631	12806
927.737	12700
927.843	12730
927.95	12429
928.056	12642
928.162	12574
928.267	12669
928.373	13270
928.479	12715
928.585	12551
928.69	12593
928.796	12547
928.901	12418
929.007	12353
929.112	12509
929.218	12350
929.323	12342
929.428	12319
929.533	12407
929.638	12361
929.743	12346
929.848	12338
929.953	12277
930.058	12167
930.163	11980
930.267	12038
930.372	12163
930.477	11977
930.581	12163
930.685	12049
930.79	11931
930.894	11923
930.998	11863
931.103	12011
931.207	11722
931.311	11512
931.415	11532
931.519	11337
931.623	11197
