Data from test_V78500241_1035.txt Node
Date: Fri Mar 25 15:48:58 CST 2022
User: usil
Spectrometer: V785-0024
Trigger mode: 0
Integration Time (sec): 4.000000E-1
Scans to average: 1
Nonlinearity correction enabled: false
Boxcar width: 0
Storing dark spectrum: false
XAxis mode: Wavelengths
Number of Pixels in Spectrum: 1024
>>>>>Begin Spectral Data<<<<<
801.071	27622
801.214	27397
801.356	27249
801.499	27146
801.641	26929
801.783	26952
801.926	27039
802.068	27020
802.211	27017
802.353	26849
802.496	26640
802.638	26609
802.78	26663
802.923	26492
803.065	26651
803.208	26731
803.35	26575
803.492	26746
803.635	26629
803.777	26800
803.919	26758
804.061	27100
804.204	26921
804.346	26552
804.488	26617
804.63	26781
804.773	26765
804.915	26750
805.057	26990
805.199	26777
805.341	26876
805.483	26994
805.626	26872
805.768	26872
805.91	26872
806.052	26891
806.194	26819
806.336	27074
806.478	26933
806.62	26864
806.762	26948
806.904	27180
807.046	27431
807.188	27344
807.33	27469
807.472	27458
807.614	27298
807.756	27226
807.898	27184
808.04	27256
808.182	27192
808.324	27207
808.465	27226
808.607	27496
808.749	27576
808.891	27656
809.033	27808
809.174	27641
809.316	27492
809.458	27557
809.6	27424
809.741	27671
809.883	27861
810.025	27728
810.166	27888
810.308	27854
810.45	27831
810.591	27797
810.733	27576
810.875	27549
811.016	27416
811.158	27462
811.299	27755
811.441	27800
811.582	27781
811.724	27785
811.865	27599
812.007	27603
812.148	27526
812.29	27709
812.431	27876
812.573	27892
812.714	27979
812.855	28109
812.997	28090
813.138	28299
813.279	28242
813.421	28109
813.562	28051
813.703	27945
813.845	27679
813.986	27519
814.127	27325
814.268	27211
814.41	27252
814.551	27348
814.692	27306
814.833	27119
814.974	27260
815.115	27233
815.256	27131
815.397	27123
815.539	27096
815.68	27096
815.821	26819
815.962	27028
816.103	27100
816.244	26910
816.385	26883
816.526	26800
816.666	26598
816.807	26579
816.948	26602
817.089	26754
817.23	26609
817.371	26404
817.512	26632
817.653	26438
817.793	26351
817.934	26556
818.075	26556
818.216	26492
818.356	26556
818.497	26362
818.638	26290
818.778	26221
818.919	26142
819.06	26145
819.2	26495
819.341	26492
819.481	26427
819.622	26575
819.762	26887
819.903	26746
820.043	26598
820.184	26590
820.324	26636
820.465	26670
820.605	26663
820.746	26689
820.886	26526
821.026	26556
821.167	26492
821.307	26727
821.447	26530
821.588	26541
821.728	26339
821.868	26183
822.008	26024
822.149	25955
822.289	25921
822.429	25734
822.569	25620
822.709	25689
822.849	25540
822.99	25571
823.13	25407
823.27	25415
823.41	25377
823.55	25160
823.69	25415
823.83	25209
823.97	25346
824.11	25080
824.25	25034
824.389	25053
824.529	25274
824.669	25164
824.809	25187
824.949	25308
825.089	25171
825.228	25247
825.368	25019
825.508	24920
825.648	25053
825.787	24935
825.927	25050
826.067	25042
826.206	25031
826.346	25072
826.485	24981
826.625	25000
826.765	25194
826.904	24924
827.044	24833
827.183	24700
827.323	24696
827.462	24760
827.601	24726
827.741	24741
827.88	24745
828.02	24593
828.159	24673
828.298	24661
828.437	24688
828.577	24631
828.716	24757
828.855	24620
828.994	24391
829.134	24483
829.273	24429
829.412	24376
829.551	24361
829.69	24346
829.829	24441
829.968	24505
830.107	24494
830.246	24494
830.385	24380
830.524	24372
830.663	24148
830.802	24186
830.941	23885
831.08	23969
831.219	24034
831.357	24155
831.496	24247
831.635	24022
831.774	23866
831.913	23965
832.051	23908
832.19	23786
832.329	23889
832.467	23649
832.606	23619
832.744	23680
832.883	23619
833.022	23676
833.16	23741
833.299	23752
833.437	23771
833.576	23752
833.714	23847
833.852	23908
833.991	23847
834.129	23878
834.267	23916
834.406	23665
834.544	23836
834.682	23771
834.821	23653
834.959	23874
835.097	23623
835.235	23935
835.373	23691
835.511	23726
835.65	23672
835.788	23577
835.926	23501
836.064	23322
836.202	23353
836.34	23604
836.478	23672
836.615	23600
836.753	23501
836.891	23573
837.029	23585
837.167	23383
837.305	23414
837.443	23505
837.58	23318
837.718	23421
837.856	23474
837.993	23402
838.131	23444
838.269	23254
838.406	23307
838.544	23136
838.681	23094
838.819	22987
838.956	22896
839.094	22850
839.231	22904
839.369	23006
839.506	23425
839.643	23132
839.781	22839
839.918	22797
840.055	23010
840.193	22987
840.33	22691
840.467	22847
840.604	22805
840.742	23010
840.879	22710
841.016	22729
841.153	22691
841.29	22923
841.427	22763
841.564	22790
841.701	22774
841.838	22767
841.975	22774
842.112	22675
842.249	22679
842.385	22466
842.522	22801
842.659	22516
842.796	22497
842.933	22656
843.069	22675
843.206	22436
843.343	22622
843.479	22573
843.616	22470
843.752	22287
843.889	22421
844.025	22603
844.162	22223
844.298	22310
844.435	22306
844.571	22219
844.708	22394
844.844	22497
844.98	22447
845.117	22421
845.253	22386
845.389	22207
845.525	22280
845.661	22284
845.798	22101
845.934	22048
846.07	22017
846.206	22204
846.342	22154
846.478	22124
846.614	21827
846.75	21732
846.886	21789
847.022	21899
847.158	21793
847.294	21781
847.429	21964
847.565	21717
847.701	22029
847.837	21542
847.972	21397
848.108	21644
848.244	21610
848.379	21416
848.515	21420
848.65	21397
848.786	21450
848.921	21424
849.057	21507
849.192	21542
849.328	21374
849.463	21424
849.598	21351
849.734	21264
849.869	21230
850.004	21165
850.14	21226
850.275	21070
850.41	21188
850.545	21024
850.68	21214
850.815	21245
850.95	21230
851.085	21310
851.22	21089
851.355	21291
851.49	21180
851.625	21199
851.76	21199
851.895	21161
852.03	21142
852.165	21100
852.299	21184
852.434	21325
852.569	21310
852.703	21218
852.838	21230
852.973	21348
853.107	21176
853.242	21058
853.376	21195
853.511	20891
853.645	20979
853.78	21169
853.914	20975
854.048	20998
854.183	21062
854.317	21104
854.451	21203
854.585	21169
854.72	21017
854.854	21157
854.988	20929
855.122	21017
855.256	20815
855.39	21028
855.524	21058
855.658	20941
855.792	21108
855.926	21146
856.06	21188
856.194	21100
856.327	21055
856.461	20971
856.595	20948
856.729	20982
856.862	21207
856.996	21070
857.13	21218
857.263	21222
857.397	21173
857.53	21001
857.664	21085
857.797	21176
857.931	21119
858.064	20998
858.197	21051
858.331	20914
858.464	20952
858.597	20952
858.731	21055
858.864	21077
858.997	20956
859.13	20971
859.263	21036
859.396	21176
859.529	20948
859.662	20963
859.795	21020
859.928	21093
860.061	21135
860.194	21184
860.327	21142
860.46	20967
860.592	21039
860.725	21272
860.858	21154
860.99	21119
861.123	20891
861.256	21077
861.388	20986
861.521	21812
861.653	20895
861.786	20868
861.918	20883
862.05	20914
862.183	20986
862.315	20971
862.447	20929
862.58	20956
862.712	20739
862.844	20773
862.976	20819
863.108	20777
863.24	21230
863.372	20705
863.504	20746
863.636	20587
863.768	20765
863.9	20781
864.032	20655
864.164	20811
864.296	20724
864.428	20765
864.559	20796
864.691	20880
864.823	20754
864.954	20773
865.086	20617
865.217	20651
865.349	20613
865.48	20617
865.612	20617
865.743	20807
865.875	20632
866.006	20640
866.137	20590
866.269	20651
866.4	20651
866.531	20499
866.662	20526
866.793	20579
866.924	20583
867.055	20526
867.186	20670
867.317	20530
867.448	20408
867.579	20533
867.71	20408
867.841	20511
867.972	20568
868.103	20663
868.233	20629
868.364	20549
868.495	20693
868.625	20754
868.756	20975
868.886	20697
869.017	20811
869.147	21058
869.278	20960
869.408	20883
869.539	20765
869.669	20880
869.799	20887
869.929	20899
870.06	20941
870.19	21222
870.32	21150
870.45	21207
870.58	21154
870.71	21287
870.84	21249
870.97	21310
871.1	21093
871.23	21340
871.36	21435
871.489	21275
871.619	21424
871.749	21439
871.879	21416
872.008	21424
872.138	21439
872.267	21439
872.397	21272
872.526	21302
872.656	21291
872.785	21260
872.915	21374
873.044	21553
873.173	21507
873.303	21416
873.432	21447
873.561	21629
873.69	21389
873.819	21481
873.948	21549
874.077	21389
874.206	21389
874.335	21332
874.464	21606
874.593	21587
874.722	21587
874.851	21762
874.979	21671
875.108	21644
875.237	21610
875.365	21515
875.494	21720
875.623	21831
875.751	21583
875.88	21606
876.008	21873
876.136	21842
876.265	22135
876.393	22249
876.521	22097
876.65	22173
876.778	22086
876.906	22036
877.034	22059
877.162	22044
877.29	21926
877.418	21979
877.546	22006
877.674	22074
877.802	21991
877.93	22013
878.058	21983
878.185	21892
878.313	21975
878.441	22105
878.568	21838
878.696	22025
878.824	21915
878.951	22063
879.079	22131
879.206	22276
879.333	22078
879.461	22040
879.588	22200
879.715	22226
879.842	22154
879.97	22055
880.097	21907
880.224	21903
880.351	21747
880.478	21911
880.605	21842
880.732	21850
880.859	21941
880.986	21857
881.112	21819
881.239	21663
881.366	21644
881.493	21492
881.619	21496
881.746	21526
881.872	21378
881.999	21435
882.125	21412
882.252	21542
882.378	21523
882.505	21526
882.631	21298
882.757	21142
882.883	21294
883.01	21142
883.136	21009
883.262	20956
883.388	21047
883.514	21218
883.64	21180
883.766	21036
883.892	20895
884.018	20956
884.143	20971
884.269	21123
884.395	20777
884.52	20705
884.646	20735
884.772	20826
884.897	20678
885.023	20762
885.148	20842
885.274	21062
885.399	20899
885.524	20727
885.65	20815
885.775	20853
885.9	20705
886.025	20861
886.15	20838
886.275	20727
886.4	20670
886.525	20769
886.65	20762
886.775	20720
886.9	20800
887.025	20956
887.149	20617
887.274	20659
887.399	20606
887.523	20571
887.648	20408
887.773	20404
887.897	20617
888.021	20590
888.146	20465
888.27	20579
888.395	20625
888.519	20511
888.643	20552
888.767	20598
888.891	20450
889.015	20396
889.139	20343
889.263	20263
889.387	20438
889.511	20556
889.635	20457
889.759	20358
889.883	20263
890.006	20267
890.13	20385
890.254	20298
890.377	20275
890.501	20100
890.624	20092
890.748	20161
890.871	19860
890.995	19989
891.118	19849
891.241	19909
891.364	19928
891.488	20039
891.611	19913
891.734	19978
891.857	19989
891.98	19868
892.103	19909
892.226	19868
892.349	19791
892.471	19734
892.594	19940
892.717	19875
892.839	19772
892.962	19959
893.085	19978
893.207	19830
893.33	19788
893.452	19655
893.575	19822
893.697	19898
893.819	19989
893.941	20031
894.064	19944
894.186	19712
894.308	19761
894.43	19974
894.552	20001
894.674	19940
894.796	19822
894.918	19772
895.04	19776
895.161	19986
895.283	19856
895.405	19681
895.526	19765
895.648	19776
895.769	19951
895.891	19982
896.012	19883
896.134	19963
896.255	19879
896.376	19731
896.498	19890
896.619	19898
896.74	19963
896.861	19791
896.982	20130
897.103	20434
897.224	20248
897.345	20077
897.466	19993
897.587	20062
897.708	20275
897.828	20130
897.949	20073
898.07	19902
898.19	19925
898.311	20214
898.431	19967
898.552	20134
898.672	20172
898.792	20054
898.913	20058
899.033	19921
899.153	19879
899.273	19700
899.393	19845
899.513	19849
899.633	19807
899.753	19997
899.873	19738
899.993	19860
900.113	19704
900.232	19845
900.352	19788
900.472	19647
900.591	19594
900.711	19525
900.83	19624
900.95	19670
901.069	19666
901.189	19571
901.308	19282
901.427	19198
901.546	19080
901.665	19164
901.784	19175
901.904	19038
902.023	18958
902.141	18848
902.26	18635
902.379	18795
902.498	18730
902.617	18661
902.735	18772
902.854	18616
902.973	18612
903.091	18376
903.21	18369
903.328	18460
903.446	18289
903.565	18205
903.683	18277
903.801	18060
903.919	18178
904.038	18205
904.156	17958
904.274	18106
904.392	17920
904.51	17904
904.627	17893
904.745	18011
904.863	18083
904.981	17733
905.098	17623
905.216	17634
905.334	17524
905.451	17710
905.569	17547
905.686	17661
905.803	17585
905.921	17303
906.038	17543
906.155	17402
906.272	17379
906.389	17372
906.506	17162
906.623	17193
906.74	17124
906.857	17029
906.974	17003
907.091	17311
907.208	17296
907.324	17121
907.441	17086
907.557	16866
907.674	16809
907.79	16835
907.907	16934
908.023	17029
908.139	16911
908.256	16820
908.372	16744
908.488	16752
908.604	16675
908.72	16603
908.836	16577
908.952	16664
909.068	16588
909.184	16634
909.3	16630
909.415	16626
909.531	16637
909.647	16310
909.762	16329
909.878	16344
909.993	16409
910.108	16280
910.224	16318
910.339	16230
910.454	16215
910.57	16158
910.685	16082
910.8	16382
910.915	16265
911.03	16097
911.145	15895
911.259	15869
911.374	15876
911.489	15781
911.604	15751
911.718	15732
911.833	15656
911.947	15614
912.062	15488
912.176	15667
912.291	15690
912.405	15538
912.519	15926
912.633	15808
912.748	15739
912.862	15641
912.976	15496
913.09	15241
913.204	15443
913.318	15424
913.431	15618
913.545	15439
913.659	15549
913.772	15450
913.886	15283
914	15184
914.113	15447
914.226	15313
914.34	15348
914.453	15203
914.566	15367
914.68	15081
914.793	15123
914.906	14902
915.019	14853
915.132	14872
915.245	14929
915.358	14880
915.47	14929
915.583	14887
915.696	14902
915.809	15039
915.921	14967
916.034	14807
916.146	14796
916.259	14826
916.371	14895
916.483	14857
916.595	14727
916.708	14746
916.82	14785
916.932	14674
917.044	14754
917.156	14731
917.268	14579
917.38	14457
917.491	14590
917.603	14552
917.715	14575
917.826	14625
917.938	14514
918.049	14419
918.161	14514
918.272	14579
918.384	14625
918.495	14480
918.606	14324
918.717	14362
918.828	14324
918.939	14343
919.05	14290
919.161	14259
919.272	14050
919.383	14168
919.494	14290
919.604	14583
919.715	14377
919.826	14252
919.936	14248
920.047	14374
920.157	14355
920.267	14484
920.378	14358
920.488	14290
920.598	14465
920.708	14621
920.818	14476
920.928	14461
921.038	14526
921.148	14575
921.258	14214
921.368	14191
921.477	14054
921.587	14123
921.697	13887
921.806	14062
921.916	13913
922.025	13814
922.134	13776
922.244	13674
922.353	13818
922.462	13616
922.571	13548
922.68	13324
922.789	13312
922.898	13381
923.007	13301
923.116	13320
923.224	13381
923.333	13278
923.442	13209
923.55	13122
923.659	13228
923.767	13278
923.876	13164
923.984	13209
924.092	13042
924.201	13168
924.309	13126
924.417	13164
924.525	12977
924.633	13061
924.741	13776
924.849	12772
924.956	12954
925.064	12867
925.172	12783
925.279	12783
925.387	12825
925.494	12745
925.602	12844
925.709	12821
925.816	12658
925.924	12757
926.031	12844
926.138	12711
926.245	12715
926.352	12623
926.459	12825
926.566	12715
926.673	12703
926.779	12517
926.886	12547
926.993	12391
927.099	12292
927.206	12327
927.312	12300
927.419	12410
927.525	12330
927.631	12365
927.737	12285
927.843	12197
927.95	12117
928.056	12167
928.162	12228
928.267	12224
928.373	12681
928.479	12239
928.585	12007
928.69	12102
928.796	12213
928.901	12049
929.007	11847
929.112	12125
929.218	12041
929.323	11897
929.428	11901
929.533	12091
929.638	11866
929.743	11897
929.848	11969
929.953	11870
930.058	11722
930.163	11608
930.267	11611
930.372	11699
930.477	11646
930.581	11767
930.685	11623
930.79	11520
930.894	11551
930.998	11383
931.103	11585
931.207	11250
931.311	11223
931.415	11181
931.519	10949
931.623	10820
