Data from test_V78500241_1999.txt Node
Date: Fri Mar 25 15:55:38 CST 2022
User: usil
Spectrometer: V785-0024
Trigger mode: 0
Integration Time (sec): 4.000000E-1
Scans to average: 1
Nonlinearity correction enabled: false
Boxcar width: 0
Storing dark spectrum: false
XAxis mode: Wavelengths
Number of Pixels in Spectrum: 1024
>>>>>Begin Spectral Data<<<<<
801.071	28615
801.214	28489
801.356	28352
801.499	28261
801.641	28333
801.783	28166
801.926	28223
802.068	28097
802.211	28086
802.353	28200
802.496	27880
802.638	28055
802.78	27827
802.923	27774
803.065	27724
803.208	27713
803.35	27854
803.492	27972
803.635	28166
803.777	27884
803.919	28040
804.061	28306
804.204	28063
804.346	27930
804.488	28006
804.63	28025
804.773	27945
804.915	28097
805.057	28192
805.199	27968
805.341	28090
805.483	28268
805.626	28230
805.768	27953
805.91	28257
806.052	28074
806.194	28093
806.336	28356
806.478	28322
806.62	28135
806.762	28341
806.904	28462
807.046	28694
807.188	28668
807.33	28778
807.472	28755
807.614	28729
807.756	28740
807.898	28557
808.04	28531
808.182	28421
808.324	28516
808.465	28519
808.607	28828
808.749	28888
808.891	29060
809.033	29010
809.174	28984
809.316	28995
809.458	28946
809.6	28793
809.741	28991
809.883	29018
810.025	29227
810.166	29193
810.308	29181
810.45	29090
810.591	29143
810.733	28976
810.875	28976
811.016	28847
811.158	28824
811.299	28908
811.441	28980
811.582	29162
811.724	28877
811.865	28904
812.007	29025
812.148	28843
812.29	29006
812.431	29048
812.573	29330
812.714	29360
812.855	29356
812.997	29463
813.138	29752
813.279	29516
813.421	29478
813.562	29414
813.703	29254
813.845	29223
813.986	28873
814.127	28809
814.268	28527
814.41	28672
814.551	28698
814.692	28660
814.833	28660
814.974	28588
815.115	28645
815.256	28493
815.397	28580
815.539	28577
815.68	28401
815.821	28379
815.962	28455
816.103	28432
816.244	28287
816.385	28257
816.526	28280
816.666	28017
816.807	27861
816.948	27941
817.089	28025
817.23	27899
817.371	27808
817.512	27964
817.653	27778
817.793	27857
817.934	27964
818.075	27876
818.216	28017
818.356	27857
818.497	27835
818.638	27599
818.778	27739
818.919	27812
819.06	27739
819.2	27667
819.341	27903
819.481	27812
819.622	28139
819.762	28276
819.903	28166
820.043	28074
820.184	28021
820.324	28124
820.465	28109
820.605	28124
820.746	28093
820.886	27979
821.026	28090
821.167	27991
821.307	28143
821.447	27964
821.588	27854
821.728	27743
821.868	27667
822.008	27363
822.149	27435
822.289	27348
822.429	27135
822.569	27161
822.709	27146
822.849	27009
822.99	26971
823.13	26937
823.27	26796
823.41	26693
823.55	26670
823.69	26876
823.83	26750
823.97	26716
824.11	26564
824.25	26564
824.389	26549
824.529	26731
824.669	26617
824.809	26758
824.949	26613
825.089	26613
825.228	26514
825.368	26503
825.508	26374
825.648	26419
825.787	26438
825.927	26594
826.067	26446
826.206	26495
826.346	26480
826.485	26419
826.625	26476
826.765	26514
826.904	26389
827.044	26138
827.183	26161
827.323	26035
827.462	26199
827.601	26088
827.741	26107
827.88	26229
828.02	26092
828.159	26130
828.298	26016
828.437	26221
828.577	26005
828.716	26237
828.855	25932
828.994	25879
829.134	25871
829.273	25925
829.412	25936
829.551	25715
829.69	25902
829.829	25879
829.968	26046
830.107	25921
830.246	25864
830.385	25731
830.524	25826
830.663	25719
830.802	25647
830.941	25647
831.08	25487
831.219	25533
831.357	25487
831.496	25742
831.635	25578
831.774	25244
831.913	25438
832.051	25285
832.19	25137
832.329	25293
832.467	25198
832.606	25183
832.744	25061
832.883	25072
833.022	25095
833.16	25198
833.299	25274
833.437	25228
833.576	25187
833.714	25190
833.852	25331
833.991	25228
834.129	25430
834.267	25190
834.406	25308
834.544	25156
834.682	25027
834.821	25232
834.959	25251
835.097	25080
835.235	25160
835.373	25232
835.511	25160
835.65	25015
835.788	25084
835.926	24905
836.064	24768
836.202	24909
836.34	25103
836.478	24962
836.615	24947
836.753	25080
836.891	24973
837.029	25061
837.167	24833
837.305	25019
837.443	24852
837.58	24878
837.718	24779
837.856	24837
837.993	24791
838.131	24878
838.269	24669
838.406	24700
838.544	24601
838.681	24509
838.819	24536
838.956	24372
839.094	24266
839.231	24353
839.369	24547
839.506	24661
839.643	24559
839.781	24311
839.918	24327
840.055	24369
840.193	24251
840.33	24247
840.467	24235
840.604	24148
840.742	24532
840.879	24114
841.016	24239
841.153	24083
841.29	24330
841.427	24270
841.564	24106
841.701	24239
841.838	24091
841.975	24152
842.112	24155
842.249	23939
842.385	23973
842.522	24201
842.659	24018
842.796	24064
842.933	23969
843.069	23946
843.206	24091
843.343	24038
843.479	23931
843.616	23980
843.752	23805
843.889	23764
844.025	23813
844.162	23802
844.298	23851
844.435	23821
844.571	23748
844.708	23828
844.844	23821
844.98	23798
845.117	23779
845.253	23627
845.389	23668
845.525	23684
845.661	23592
845.798	23539
845.934	23589
846.07	23429
846.206	23478
846.342	23592
846.478	23433
846.614	23200
846.75	23296
846.886	23227
847.022	23277
847.158	23246
847.294	23223
847.429	23277
847.565	23299
847.701	23444
847.837	22809
847.972	22816
848.108	22991
848.244	23056
848.379	22782
848.515	22820
848.65	22706
848.786	22797
848.921	22816
849.057	22934
849.192	22927
849.328	22812
849.463	22816
849.598	22687
849.734	22702
849.869	22630
850.004	22664
850.14	22535
850.275	22500
850.41	22512
850.545	22485
850.68	22432
850.815	22649
850.95	22485
851.085	22748
851.22	22729
851.355	22588
851.49	22474
851.625	22611
851.76	22538
851.895	22413
852.03	22455
852.165	22599
852.299	22584
852.434	22542
852.569	22687
852.703	22580
852.838	22516
852.973	22653
853.107	22656
853.242	22424
853.376	22451
853.511	22333
853.645	22280
853.78	22337
853.914	22394
854.048	22280
854.183	22329
854.317	22466
854.451	22493
854.585	22295
854.72	22363
854.854	22413
854.988	22382
855.122	22379
855.256	22101
855.39	22443
855.524	22584
855.658	22557
855.792	22417
855.926	22421
856.06	22386
856.194	22459
856.327	22337
856.461	22287
856.595	22242
856.729	22459
856.862	22584
856.996	22451
857.13	22352
857.263	22546
857.397	22386
857.53	22493
857.664	22451
857.797	22382
857.931	22493
858.064	22356
858.197	22413
858.331	22325
858.464	22363
858.597	22249
858.731	22375
858.864	22291
858.997	22299
859.13	22348
859.263	22329
859.396	22440
859.529	22348
859.662	22284
859.795	22470
859.928	22314
860.061	22546
860.194	22554
860.327	22394
860.46	22375
860.592	22489
860.725	22554
860.858	22584
860.99	22402
861.123	22329
861.256	22337
861.388	22371
861.521	23288
861.653	22223
861.786	22169
861.918	22177
862.05	22253
862.183	22200
862.315	22192
862.447	22402
862.58	22276
862.712	22124
862.844	22097
862.976	21975
863.108	22158
863.24	22557
863.372	22040
863.504	22013
863.636	22025
863.768	22219
863.9	22234
864.032	22112
864.164	21983
864.296	22059
864.428	22211
864.559	22109
864.691	22158
864.823	22204
864.954	22097
865.086	22093
865.217	21937
865.349	21884
865.48	22044
865.612	21953
865.743	22067
865.875	21907
866.006	21892
866.137	21930
866.269	21953
866.4	21831
866.531	21838
866.662	21888
866.793	21964
866.924	21895
867.055	21918
867.186	21846
867.317	21854
867.448	21873
867.579	21903
867.71	21842
867.841	21781
867.972	21846
868.103	21854
868.233	21865
868.364	21994
868.495	22040
868.625	22010
868.756	22234
868.886	22059
869.017	22036
869.147	22188
869.278	22276
869.408	22162
869.539	22010
869.669	22135
869.799	22162
869.929	22272
870.06	22196
870.19	22508
870.32	22352
870.45	22557
870.58	22596
870.71	22565
870.84	22717
870.97	22474
871.1	22462
871.23	22774
871.36	22763
871.489	22649
871.619	22660
871.749	22752
871.879	22706
872.008	22930
872.138	22748
872.267	22862
872.397	22611
872.526	22618
872.656	22615
872.785	22653
872.915	22771
873.044	22721
873.173	22835
873.303	22911
873.432	22801
873.561	22835
873.69	22820
873.819	22805
873.948	22793
874.077	22797
874.206	22713
874.335	22812
874.464	22877
874.593	22961
874.722	22930
874.851	22953
874.979	22987
875.108	23025
875.237	22915
875.365	22759
875.494	22930
875.623	23052
875.751	22862
875.88	22984
876.008	22953
876.136	23189
876.265	23353
876.393	23535
876.521	23265
876.65	23471
876.778	23288
876.906	23318
877.034	23376
877.162	23360
877.29	23337
877.418	23261
877.546	23395
877.674	23292
877.802	23212
877.93	23292
878.058	23265
878.185	23083
878.313	23261
878.441	23273
878.568	23098
878.696	23227
878.824	23299
878.951	23197
879.079	23520
879.206	23566
879.333	23482
879.461	23277
879.588	23356
879.715	23543
879.842	23577
879.97	23383
880.097	23155
880.224	23193
880.351	23189
880.478	23220
880.605	23151
880.732	23117
880.859	23299
880.986	23155
881.112	23155
881.239	23033
881.366	23006
881.493	22713
881.619	22653
881.746	22694
881.872	22656
881.999	22584
882.125	22664
882.252	22733
882.378	22584
882.505	22812
882.631	22557
882.757	22409
882.883	22413
883.01	22382
883.136	22421
883.262	22303
883.388	22078
883.514	22291
883.64	22417
883.766	22112
883.892	22143
884.018	22166
884.143	22341
884.269	22432
884.395	22013
884.52	21949
884.646	21899
884.772	21960
884.897	22067
885.023	22112
885.148	22055
885.274	22207
885.399	22166
885.524	21968
885.65	22025
885.775	21975
885.9	22055
886.025	22044
886.15	21934
886.275	21888
886.4	21949
886.525	22067
886.65	21895
886.775	21812
886.9	22032
887.025	22093
887.149	21884
887.274	21770
887.399	21759
887.523	21804
887.648	21637
887.773	21690
887.897	21804
888.021	21854
888.146	21671
888.27	21800
888.395	21854
888.519	21873
888.643	21835
888.767	21793
888.891	21595
889.015	21568
889.139	21545
889.263	21519
889.387	21564
889.511	21823
889.635	21686
889.759	21549
889.883	21614
890.006	21591
890.13	21591
890.254	21492
890.377	21469
890.501	21249
890.624	21355
890.748	21447
890.871	21146
890.995	21093
891.118	21085
891.241	21116
891.364	21203
891.488	21294
891.611	21085
891.734	21001
891.857	21241
891.98	21157
892.103	21180
892.226	21104
892.349	21058
892.471	20925
892.594	20982
892.717	21043
892.839	20971
892.962	21032
893.085	21165
893.207	20956
893.33	20883
893.452	20777
893.575	20933
893.697	20960
893.819	21047
893.941	21260
894.064	21085
894.186	20998
894.308	20891
894.43	21096
894.552	21161
894.674	21116
894.796	20887
894.918	20933
895.04	20921
895.161	20960
895.283	20963
895.405	20986
895.526	20986
895.648	20952
895.769	20933
895.891	20899
896.012	21104
896.134	21005
896.255	20891
896.376	21009
896.498	20887
896.619	20960
896.74	20883
896.861	21024
896.982	21317
897.103	21412
897.224	21146
897.345	21123
897.466	21093
897.587	21203
897.708	21214
897.828	21184
897.949	21104
898.07	21005
898.19	21077
898.311	21237
898.431	21119
898.552	21108
898.672	21127
898.792	21245
898.913	21226
899.033	21127
899.153	20933
899.273	20792
899.393	20891
899.513	20883
899.633	20773
899.753	20975
899.873	20902
899.993	20777
900.113	20815
900.232	20864
900.352	20750
900.472	20701
900.591	20708
900.711	20758
900.83	20564
900.95	20807
901.069	20731
901.189	20583
901.308	20362
901.427	20248
901.546	20305
901.665	20290
901.784	20271
901.904	20050
902.023	20027
902.141	19906
902.26	19666
902.379	19879
902.498	19632
902.617	19712
902.735	19860
902.854	19784
902.973	19578
903.091	19499
903.21	19419
903.328	19358
903.446	19365
903.565	19339
903.683	19263
903.801	19050
903.919	19069
904.038	19164
904.156	18993
904.274	19084
904.392	19008
904.51	19008
904.627	18966
904.745	19008
904.863	18996
904.981	18745
905.098	18650
905.216	18589
905.334	18688
905.451	18661
905.569	18650
905.686	18673
905.803	18536
905.921	18403
906.038	18452
906.155	18407
906.272	18334
906.389	18232
906.506	18186
906.623	18121
906.74	18136
906.857	18148
906.974	18091
907.091	18159
907.208	18289
907.324	18277
907.441	18041
907.557	17992
907.674	17935
907.79	17684
907.907	17908
908.023	17935
908.139	17817
908.256	17771
908.372	17783
908.488	17729
908.604	17714
908.72	17649
908.836	17532
908.952	17512
909.068	17585
909.184	17646
909.3	17596
909.415	17524
909.531	17551
909.647	17296
909.762	17178
909.878	17288
909.993	17337
910.108	17280
910.224	17193
910.339	17330
910.454	17178
910.57	17143
910.685	16987
910.8	17322
910.915	17299
911.03	17025
911.145	16892
911.259	16904
911.374	16812
911.489	16725
911.604	16713
911.718	16759
911.833	16634
911.947	16523
912.062	16451
912.176	16516
912.291	16607
912.405	16615
912.519	16809
912.633	16831
912.748	16603
912.862	16584
912.976	16478
913.09	16284
913.204	16417
913.318	16333
913.431	16421
913.545	16447
913.659	16443
913.772	16318
913.886	16306
914	16253
914.113	16417
914.226	16360
914.34	16257
914.453	16097
914.566	16234
914.68	16131
914.793	15960
914.906	15937
915.019	15892
915.132	15713
915.245	15736
915.358	15819
915.47	15797
915.583	15800
915.696	15823
915.809	15831
915.921	15903
916.034	15709
916.146	15690
916.259	15663
916.371	15675
916.483	15793
916.595	15686
916.708	15576
916.82	15591
916.932	15568
917.044	15603
917.156	15511
917.268	15420
917.38	15466
917.491	15481
917.603	15412
917.715	15519
917.826	15477
917.938	15389
918.049	15287
918.161	15443
918.272	15473
918.384	15416
918.495	15351
918.606	15184
918.717	15123
918.828	15184
918.939	15211
919.05	15097
919.161	15154
919.272	15013
919.383	15070
919.494	15161
919.604	15317
919.715	15169
919.826	15017
919.936	15089
920.047	15211
920.157	15093
920.267	15195
920.378	15020
920.488	15036
920.598	15325
920.708	15370
920.818	15222
920.928	15154
921.038	15447
921.148	15313
921.258	15058
921.368	15032
921.477	14861
921.587	14880
921.697	14838
921.806	14887
921.916	14682
922.025	14492
922.134	14381
922.244	14488
922.353	14492
922.462	14381
922.571	14301
922.68	14164
922.789	14126
922.898	14164
923.007	14031
923.116	14172
923.224	14134
923.333	14111
923.442	13982
923.55	13959
923.659	13940
923.767	14058
923.876	13837
923.984	14024
924.092	13849
924.201	13830
924.309	13795
924.417	13780
924.525	13807
924.633	13780
924.741	14476
924.849	13578
924.956	13689
925.064	13552
925.172	13483
925.279	13483
925.387	13514
925.494	13525
925.602	13677
925.709	13434
925.816	13400
925.924	13449
926.031	13582
926.138	13407
926.245	13510
926.352	13331
926.459	13396
926.566	13460
926.673	13289
926.779	13198
926.886	13221
926.993	13084
927.099	13061
927.206	12966
927.312	13038
927.419	13034
927.525	13023
927.631	13129
927.737	13008
927.843	12817
927.95	12772
928.056	12882
928.162	12886
928.267	12913
928.373	13548
928.479	12840
928.585	12707
928.69	12760
928.796	12734
928.901	12741
929.007	12559
929.112	12684
929.218	12658
929.323	12585
929.428	12547
929.533	12711
929.638	12555
929.743	12544
929.848	12563
929.953	12486
930.058	12338
930.163	12262
930.267	12258
930.372	12330
930.477	12171
930.581	12498
930.685	12304
930.79	12175
930.894	12186
930.998	12068
931.103	12251
931.207	11904
931.311	11821
931.415	11722
931.519	11455
931.623	11421
