Data from test_V78500241_1177.txt Node
Date: Fri Mar 25 15:49:57 CST 2022
User: usil
Spectrometer: V785-0024
Trigger mode: 0
Integration Time (sec): 4.000000E-1
Scans to average: 1
Nonlinearity correction enabled: false
Boxcar width: 0
Storing dark spectrum: false
XAxis mode: Wavelengths
Number of Pixels in Spectrum: 1024
>>>>>Begin Spectral Data<<<<<
801.071	28630
801.214	28782
801.356	28341
801.499	28238
801.641	28116
801.783	28070
801.926	28363
802.068	28226
802.211	28207
802.353	28082
802.496	27728
802.638	27690
802.78	27819
802.923	27641
803.065	27648
803.208	27743
803.35	27911
803.492	28048
803.635	27903
803.777	27846
803.919	27964
804.061	28394
804.204	28219
804.346	28021
804.488	27911
804.63	28097
804.773	27987
804.915	28021
805.057	28124
805.199	28006
805.341	28166
805.483	28124
805.626	28097
805.768	28105
805.91	28169
806.052	28390
806.194	28242
806.336	28470
806.478	28272
806.62	28284
806.762	28322
806.904	28569
807.046	28782
807.188	28622
807.33	28637
807.472	28687
807.614	28508
807.756	28664
807.898	28519
808.04	28645
808.182	28436
808.324	28656
808.465	28603
808.607	28824
808.749	28980
808.891	28820
809.033	29075
809.174	29033
809.316	28809
809.458	28866
809.6	28888
809.741	29178
809.883	29029
810.025	29341
810.166	29140
810.308	29216
810.45	29113
810.591	29143
810.733	29140
810.875	28809
811.016	28866
811.158	28877
811.299	28991
811.441	29204
811.582	29128
811.724	28934
811.865	28934
812.007	28934
812.148	29003
812.29	28968
812.431	28984
812.573	29280
812.714	29452
812.855	29524
812.997	29490
813.138	29661
813.279	29642
813.421	29539
813.562	29425
813.703	29353
813.845	29197
813.986	29010
814.127	28809
814.268	28717
814.41	28615
814.551	28603
814.692	28523
814.833	28527
814.974	28538
815.115	28580
815.256	28565
815.397	28573
815.539	28489
815.68	28497
815.821	28390
815.962	28360
816.103	28440
816.244	28421
816.385	28097
816.526	28150
816.666	28097
816.807	27975
816.948	27816
817.089	28090
817.23	28078
817.371	27861
817.512	27953
817.653	27991
817.793	27945
817.934	28017
818.075	27975
818.216	27918
818.356	27899
818.497	27907
818.638	27793
818.778	27876
818.919	27682
819.06	27770
819.2	27873
819.341	27968
819.481	27930
819.622	28143
819.762	28318
819.903	28325
820.043	28257
820.184	28002
820.324	28158
820.465	28116
820.605	28074
820.746	28059
820.886	28044
821.026	27979
821.167	28040
821.307	28029
821.447	28109
821.588	28021
821.728	27808
821.868	27576
822.008	27526
822.149	27427
822.289	27340
822.429	27157
822.569	27131
822.709	27116
822.849	26914
822.99	27005
823.13	27108
823.27	26925
823.41	26796
823.55	26693
823.69	26925
823.83	26712
823.97	26830
824.11	26663
824.25	26495
824.389	26571
824.529	26693
824.669	26568
824.809	26746
824.949	26655
825.089	26701
825.228	26663
825.368	26465
825.508	26389
825.648	26511
825.787	26545
825.927	26606
826.067	26400
826.206	26438
826.346	26686
826.485	26488
826.625	26457
826.765	26682
826.904	26514
827.044	26396
827.183	26309
827.323	26244
827.462	26244
827.601	26195
827.741	26275
827.88	26294
828.02	26096
828.159	26164
828.298	26145
828.437	26328
828.577	26157
828.716	26225
828.855	26218
828.994	26016
829.134	25928
829.273	26046
829.412	25864
829.551	25955
829.69	25890
829.829	25906
829.968	26134
830.107	26058
830.246	26005
830.385	25780
830.524	25791
830.663	25715
830.802	25658
830.941	25464
831.08	25628
831.219	25544
831.357	25689
831.496	25803
831.635	25616
831.774	25499
831.913	25525
832.051	25278
832.19	25289
832.329	25479
832.467	25270
832.606	25141
832.744	25164
832.883	25198
833.022	25304
833.16	25244
833.299	25312
833.437	25179
833.576	25240
833.714	25331
833.852	25251
833.991	25263
834.129	25316
834.267	25377
834.406	25213
834.544	25339
834.682	25240
834.821	25244
834.959	25350
835.097	25175
835.235	25343
835.373	25289
835.511	25160
835.65	25152
835.788	25133
835.926	24935
836.064	24901
836.202	25046
836.34	25057
836.478	25103
836.615	25012
836.753	24928
836.891	25148
837.029	25190
837.167	25023
837.305	24939
837.443	24951
837.58	25008
837.718	24962
837.856	24829
837.993	24890
838.131	24924
838.269	24783
838.406	24859
838.544	24673
838.681	24677
838.819	24513
838.956	24490
839.094	24327
839.231	24384
839.369	24555
839.506	24753
839.643	24658
839.781	24399
839.918	24350
840.055	24334
840.193	24388
840.33	24258
840.467	24380
840.604	24216
840.742	24528
840.879	24076
841.016	24399
841.153	24087
841.29	24426
841.427	24338
841.564	24296
841.701	24388
841.838	24163
841.975	24258
842.112	24209
842.249	24087
842.385	24022
842.522	24369
842.659	24171
842.796	24038
842.933	24003
843.069	24007
843.206	23942
843.343	24182
843.479	24015
843.616	24007
843.752	23897
843.889	23802
844.025	23996
844.162	23699
844.298	23920
844.435	23828
844.571	23813
844.708	23767
844.844	23870
844.98	23965
845.117	23882
845.253	23802
845.389	23703
845.525	23760
845.661	23577
845.798	23406
845.934	23520
846.07	23471
846.206	23493
846.342	23649
846.478	23562
846.614	23204
846.75	23299
846.886	23185
847.022	23246
847.158	23246
847.294	23261
847.429	23349
847.565	23132
847.701	23398
847.837	23044
847.972	22892
848.108	23079
848.244	23037
848.379	22930
848.515	22816
848.65	22771
848.786	22793
848.921	22752
849.057	22976
849.192	22923
849.328	22881
849.463	22892
849.598	22702
849.734	22767
849.869	22694
850.004	22500
850.14	22580
850.275	22523
850.41	22523
850.545	22569
850.68	22478
850.815	22649
850.95	22531
851.085	22812
851.22	22702
851.355	22577
851.49	22805
851.625	22615
851.76	22550
851.895	22538
852.03	22527
852.165	22694
852.299	22759
852.434	22672
852.569	22569
852.703	22523
852.838	22569
852.973	22740
853.107	22675
853.242	22485
853.376	22436
853.511	22405
853.645	22287
853.78	22478
853.914	22519
854.048	22375
854.183	22424
854.317	22478
854.451	22603
854.585	22481
854.72	22489
854.854	22447
854.988	22325
855.122	22459
855.256	22386
855.39	22375
855.524	22474
855.658	22398
855.792	22314
855.926	22367
856.06	22409
856.194	22493
856.327	22535
856.461	22405
856.595	22337
856.729	22424
856.862	22573
856.996	22459
857.13	22478
857.263	22424
857.397	22531
857.53	22432
857.664	22386
857.797	22485
857.931	22512
858.064	22436
858.197	22516
858.331	22375
858.464	22363
858.597	22398
858.731	22409
858.864	22295
858.997	22363
859.13	22451
859.263	22363
859.396	22474
859.529	22394
859.662	22428
859.795	22276
859.928	22538
860.061	22626
860.194	22717
860.327	22500
860.46	22531
860.592	22538
860.725	22580
860.858	22577
860.99	22474
861.123	22363
861.256	22413
861.388	22325
861.521	23071
861.653	22272
861.786	22223
861.918	22310
862.05	22265
862.183	22322
862.315	22356
862.447	22417
862.58	22287
862.712	22109
862.844	22032
862.976	22185
863.108	22196
863.24	22428
863.372	22109
863.504	22200
863.636	22086
863.768	22070
863.9	22116
864.032	22013
864.164	22055
864.296	22143
864.428	22131
864.559	22101
864.691	22200
864.823	22070
864.954	22124
865.086	22090
865.217	22032
865.349	21892
865.48	22040
865.612	22048
865.743	22021
865.875	21888
866.006	21964
866.137	22128
866.269	21926
866.4	21991
866.531	22021
866.662	21850
866.793	21975
866.924	21960
867.055	21991
867.186	21869
867.317	21994
867.448	21876
867.579	21934
867.71	21892
867.841	21930
867.972	21949
868.103	21937
868.233	21918
868.364	22082
868.495	22010
868.625	22147
868.756	22169
868.886	22135
869.017	22261
869.147	22325
869.278	22234
869.408	22295
869.539	22139
869.669	22265
869.799	22128
869.929	22413
870.06	22234
870.19	22516
870.32	22474
870.45	22371
870.58	22569
870.71	22626
870.84	22668
870.97	22504
871.1	22645
871.23	22687
871.36	22786
871.489	22622
871.619	22630
871.749	22675
871.879	22778
872.008	22847
872.138	22740
872.267	22721
872.397	22656
872.526	22683
872.656	22519
872.785	22565
872.915	22767
873.044	22908
873.173	22767
873.303	22850
873.432	22862
873.561	22793
873.69	22767
873.819	22698
873.948	22869
874.077	22752
874.206	22778
874.335	22763
874.464	22869
874.593	23014
874.722	22999
874.851	22839
874.979	22961
875.108	22999
875.237	22965
875.365	23048
875.494	22862
875.623	23140
875.751	22892
875.88	22991
876.008	23060
876.136	23132
876.265	23474
876.393	23478
876.521	23471
876.65	23391
876.778	23414
876.906	23193
877.034	23417
877.162	23364
877.29	23269
877.418	23200
877.546	23395
877.674	23376
877.802	23448
877.93	23227
878.058	23337
878.185	23105
878.313	23200
878.441	23250
878.568	23151
878.696	23398
878.824	23429
878.951	23482
879.079	23604
879.206	23600
879.333	23501
879.461	23395
879.588	23395
879.715	23493
879.842	23611
879.97	23444
880.097	23231
880.224	23231
880.351	23181
880.478	23174
880.605	23064
880.732	23223
880.859	23372
880.986	23124
881.112	22984
881.239	23025
881.366	22824
881.493	22767
881.619	22862
881.746	22839
881.872	22793
881.999	22683
882.125	22679
882.252	22801
882.378	22717
882.505	22828
882.631	22603
882.757	22455
882.883	22599
883.01	22462
883.136	22352
883.262	22265
883.388	22257
883.514	22409
883.64	22405
883.766	22268
883.892	22131
884.018	22154
884.143	22246
884.269	22390
884.395	22097
884.52	22101
884.646	22055
884.772	21991
884.897	21941
885.023	22032
885.148	22055
885.274	22192
885.399	22063
885.524	22048
885.65	22162
885.775	21926
885.9	22017
886.025	22074
886.15	22036
886.275	21987
886.4	21888
886.525	21934
886.65	21949
886.775	21922
886.9	22048
887.025	22188
887.149	21907
887.274	21823
887.399	21743
887.523	21819
887.648	21694
887.773	21717
887.897	21949
888.021	21732
888.146	21751
888.27	21842
888.395	21861
888.519	21781
888.643	21823
888.767	21736
888.891	21679
889.015	21610
889.139	21599
889.263	21614
889.387	21751
889.511	21751
889.635	21698
889.759	21538
889.883	21435
890.006	21515
890.13	21694
890.254	21401
890.377	21428
890.501	21279
890.624	21287
890.748	21306
890.871	21268
890.995	21142
891.118	21131
891.241	21161
891.364	21051
891.488	21214
891.611	21077
891.734	20994
891.857	21066
891.98	21127
892.103	21039
892.226	21062
892.349	21108
892.471	20914
892.594	21043
892.717	21001
892.839	20986
892.962	21024
893.085	21017
893.207	20948
893.33	20956
893.452	20948
893.575	20986
893.697	20804
893.819	21226
893.941	21119
894.064	21116
894.186	20948
894.308	20914
894.43	21047
894.552	21135
894.674	21131
894.796	20807
894.918	20960
895.04	20853
895.161	21089
895.283	20952
895.405	20868
895.526	20880
895.648	20902
895.769	21005
895.891	21017
896.012	21024
896.134	21127
896.255	20925
896.376	20982
896.498	20967
896.619	21062
896.74	20944
896.861	20944
896.982	21321
897.103	21336
897.224	21176
897.345	21123
897.466	21165
897.587	21142
897.708	21161
897.828	21157
897.949	21062
898.07	21051
898.19	21142
898.311	21275
898.431	21020
898.552	21131
898.672	21230
898.792	21237
898.913	21214
899.033	21077
899.153	20963
899.273	20925
899.393	20994
899.513	20941
899.633	20914
899.753	20929
899.873	20872
899.993	20975
900.113	20842
900.232	20807
900.352	20823
900.472	20861
900.591	20594
900.711	20765
900.83	20609
900.95	20686
901.069	20788
901.189	20617
901.308	20393
901.427	20221
901.546	20244
901.665	20298
901.784	20256
901.904	20138
902.023	20062
902.141	19909
902.26	19761
902.379	19970
902.498	19875
902.617	19715
902.735	19883
902.854	19715
902.973	19693
903.091	19632
903.21	19460
903.328	19415
903.446	19297
903.565	19232
903.683	19320
903.801	19236
903.919	19160
904.038	19179
904.156	19122
904.274	19019
904.392	18901
904.51	19019
904.627	18966
904.745	18989
904.863	19042
904.981	18821
905.098	18612
905.216	18582
905.334	18700
905.451	18612
905.569	18650
905.686	18654
905.803	18677
905.921	18448
906.038	18650
906.155	18517
906.272	18452
906.389	18448
906.506	18235
906.623	18213
906.74	18194
906.857	18034
906.974	18190
907.091	18251
907.208	18350
907.324	18209
907.441	18064
907.557	17992
907.674	17882
907.79	17916
907.907	17912
908.023	17946
908.139	18041
908.256	17843
908.372	17745
908.488	17847
908.604	17710
908.72	17672
908.836	17600
908.952	17691
909.068	17676
909.184	17676
909.3	17573
909.415	17585
909.531	17573
909.647	17254
909.762	17376
909.878	17410
909.993	17334
910.108	17318
910.224	17303
910.339	17318
910.454	17208
910.57	17079
910.685	17102
910.8	17315
910.915	17311
911.03	17181
911.145	16919
911.259	16831
911.374	16957
911.489	16831
911.604	16828
911.718	16664
911.833	16679
911.947	16588
912.062	16447
912.176	16653
912.291	16816
912.405	16660
912.519	16801
912.633	16797
912.748	16656
912.862	16656
912.976	16432
913.09	16409
913.204	16413
913.318	16398
913.431	16561
913.545	16550
913.659	16527
913.772	16428
913.886	16325
914	16310
914.113	16287
914.226	16249
914.34	16333
914.453	16173
914.566	16185
914.68	16200
914.793	16196
914.906	15892
915.019	15831
915.132	15751
915.245	15736
915.358	15876
915.47	15842
915.583	15781
915.696	15789
915.809	15937
915.921	15934
916.034	15717
916.146	15785
916.259	15705
916.371	15812
916.483	15728
916.595	15724
916.708	15534
916.82	15694
916.932	15564
917.044	15625
917.156	15614
917.268	15450
917.38	15458
917.491	15458
917.603	15469
917.715	15576
917.826	15515
917.938	15321
918.049	15329
918.161	15374
918.272	15564
918.384	15580
918.495	15283
918.606	15264
918.717	15077
918.828	15298
918.939	15264
919.05	15043
919.161	15184
919.272	14975
919.383	15047
919.494	15294
919.604	15370
919.715	15100
919.826	15161
919.936	14979
920.047	15268
920.157	15100
920.267	15252
920.378	15116
920.488	15142
920.598	15386
920.708	15386
920.818	15252
920.928	15218
921.038	15450
921.148	15454
921.258	15043
921.368	14891
921.477	14902
921.587	14861
921.697	14716
921.806	14899
921.916	14739
922.025	14617
922.134	14476
922.244	14450
922.353	14568
922.462	14343
922.571	14415
922.68	14145
922.789	14096
922.898	14240
923.007	14123
923.116	14214
923.224	14115
923.333	14065
923.442	13974
923.55	13982
923.659	13989
923.767	14012
923.876	13932
923.984	13921
924.092	13822
924.201	13890
924.309	13818
924.417	13803
924.525	13788
924.633	13689
924.741	14514
924.849	13537
924.956	13769
925.064	13525
925.172	13422
925.279	13609
925.387	13552
925.494	13491
925.602	13689
925.709	13514
925.816	13400
925.924	13487
926.031	13639
926.138	13388
926.245	13506
926.352	13346
926.459	13544
926.566	13529
926.673	13384
926.779	13247
926.886	13152
926.993	13122
927.099	13080
927.206	13065
927.312	12947
927.419	13099
927.525	13053
927.631	13034
927.737	12894
927.843	12928
927.95	12810
928.056	12901
928.162	12882
928.267	12970
928.373	13563
928.479	12970
928.585	12646
928.69	12852
928.796	12848
928.901	12711
929.007	12620
929.112	12722
929.218	12646
929.323	12692
929.428	12604
929.533	12738
929.638	12566
929.743	12532
929.848	12635
929.953	12540
930.058	12380
930.163	12270
930.267	12350
930.372	12437
930.477	12136
930.581	12418
930.685	12319
930.79	12114
930.894	12148
930.998	12186
931.103	12254
931.207	11901
931.311	11870
931.415	11832
931.519	11524
931.623	11570
