Data from test_V78500241_44.txt Node
Date: Fri Mar 25 15:42:06 CST 2022
User: usil
Spectrometer: V785-0024
Trigger mode: 0
Integration Time (sec): 4.000000E-1
Scans to average: 1
Nonlinearity correction enabled: false
Boxcar width: 0
Storing dark spectrum: false
XAxis mode: Wavelengths
Number of Pixels in Spectrum: 1024
>>>>>Begin Spectral Data<<<<<
801.071	28500
801.214	28497
801.356	28436
801.499	28382
801.641	28185
801.783	28124
801.926	28074
802.068	28017
802.211	27880
802.353	27945
802.496	27690
802.638	27622
802.78	27576
802.923	27557
803.065	27545
803.208	27511
803.35	27545
803.492	27789
803.635	27781
803.777	27599
803.919	27778
804.061	28120
804.204	27690
804.346	27603
804.488	27542
804.63	27625
804.773	27530
804.915	27698
805.057	27778
805.199	27545
805.341	27580
805.483	27793
805.626	27808
805.768	27778
805.91	27751
806.052	27797
806.194	27595
806.336	27907
806.478	27759
806.62	27629
806.762	27808
806.904	27968
807.046	28188
807.188	28143
807.33	28120
807.472	28097
807.614	28158
807.756	28044
807.898	27876
808.04	27804
808.182	27774
808.324	27739
808.465	28010
808.607	28059
808.749	28124
808.891	28215
809.033	28306
809.174	28112
809.316	28280
809.458	28192
809.6	28105
809.741	28352
809.883	28158
810.025	28325
810.166	28421
810.308	28432
810.45	28459
810.591	28242
810.733	28074
810.875	28074
811.016	28090
811.158	28109
811.299	28112
811.441	28299
811.582	28325
811.724	28055
811.865	28044
812.007	28188
812.148	28059
812.29	28055
812.431	28177
812.573	28303
812.714	28375
812.855	28618
812.997	28573
813.138	28771
813.279	28797
813.421	28630
813.562	28394
813.703	28329
813.845	28188
813.986	27930
814.127	27698
814.268	27705
814.41	27686
814.551	27557
814.692	27564
814.833	27633
814.974	27500
815.115	27553
815.256	27496
815.397	27401
815.539	27359
815.68	27416
815.821	27207
815.962	27306
816.103	27321
816.244	27154
816.385	27112
816.526	26979
816.666	26895
816.807	26758
816.948	26880
817.089	26975
817.23	26743
817.371	26712
817.512	26712
817.653	26556
817.793	26564
817.934	26556
818.075	26777
818.216	26686
818.356	26583
818.497	26526
818.638	26286
818.778	26362
818.919	26366
819.06	26374
819.2	26533
819.341	26625
819.481	26636
819.622	26807
819.762	26914
819.903	26849
820.043	26746
820.184	26701
820.324	26735
820.465	26724
820.605	26594
820.746	26743
820.886	26590
821.026	26644
821.167	26514
821.307	26697
821.447	26518
821.588	26446
821.728	26336
821.868	26122
822.008	26039
822.149	25944
822.289	26005
822.429	25864
822.569	25689
822.709	25655
822.849	25552
822.99	25464
823.13	25377
823.27	25350
823.41	25312
823.55	25190
823.69	25133
823.83	25190
823.97	25122
824.11	25034
824.25	24829
824.389	25061
824.529	25137
824.669	25000
824.809	25133
824.949	25133
825.089	25072
825.228	25076
825.368	24852
825.508	24776
825.648	24924
825.787	24787
825.927	24909
826.067	24711
826.206	24852
826.346	24806
826.485	24814
826.625	24776
826.765	25015
826.904	24833
827.044	24460
827.183	24601
827.323	24582
827.462	24559
827.601	24456
827.741	24486
827.88	24330
828.02	24334
828.159	24403
828.298	24429
828.437	24551
828.577	24300
828.716	24445
828.855	24319
828.994	24159
829.134	24220
829.273	24163
829.412	24038
829.551	24098
829.69	24174
829.829	23958
829.968	24057
830.107	24133
830.246	24034
830.385	24087
830.524	23893
830.663	23726
830.802	23847
830.941	23729
831.08	23551
831.219	23824
831.357	23687
831.496	23798
831.635	23665
831.774	23501
831.913	23459
832.051	23463
832.19	23261
832.329	23417
832.467	23417
832.606	23064
832.744	23235
832.883	23280
833.022	23277
833.16	23395
833.299	23273
833.437	23372
833.576	23193
833.714	23261
833.852	23303
833.991	23330
834.129	23383
834.267	23231
834.406	23166
834.544	23284
834.682	23284
834.821	23231
834.959	23284
835.097	23181
835.235	23170
835.373	23170
835.511	23220
835.65	23048
835.788	23200
835.926	22938
836.064	22961
836.202	22839
836.34	23113
836.478	23254
836.615	22927
836.753	23037
836.891	23151
837.029	23079
837.167	23003
837.305	22949
837.443	22892
837.58	22892
837.718	22949
837.856	22930
837.993	22889
838.131	22881
838.269	22702
838.406	22828
838.544	22698
838.681	22523
838.819	22451
838.956	22348
839.094	22379
839.231	22375
839.369	22489
839.506	22653
839.643	22538
839.781	22215
839.918	22261
840.055	22185
840.193	22284
840.33	22112
840.467	22207
840.604	22310
840.742	22535
840.879	22101
841.016	22169
841.153	22196
841.29	22291
841.427	22215
841.564	22287
841.701	22219
841.838	22128
841.975	22063
842.112	22025
842.249	22044
842.385	21907
842.522	21994
842.659	22006
842.796	21907
842.933	21941
843.069	21793
843.206	21819
843.343	21915
843.479	21835
843.616	21892
843.752	21637
843.889	21686
844.025	21762
844.162	21473
844.298	21747
844.435	21580
844.571	21561
844.708	21705
844.844	21743
844.98	21671
845.117	21778
845.253	21477
845.389	21599
845.525	21443
845.661	21443
845.798	21321
845.934	21367
846.07	21245
846.206	21272
846.342	21389
846.478	21306
846.614	21184
846.75	21017
846.886	21028
847.022	21165
847.158	21077
847.294	21039
847.429	21043
847.565	20982
847.701	21176
847.837	20743
847.972	20788
848.108	20891
848.244	20910
848.379	20537
848.515	20602
848.65	20655
848.786	20560
848.921	20522
849.057	20777
849.192	20731
849.328	20587
849.463	20579
849.598	20533
849.734	20423
849.869	20442
850.004	20313
850.14	20347
850.275	20393
850.41	20286
850.545	20301
850.68	20183
850.815	20351
850.95	20256
851.085	20450
851.22	20396
851.355	20343
851.49	20286
851.625	20218
851.76	20195
851.895	20100
852.03	20229
852.165	20298
852.299	20320
852.434	20351
852.569	20252
852.703	20317
852.838	20320
852.973	20374
853.107	20419
853.242	20176
853.376	20259
853.511	19940
853.645	20081
853.78	20271
853.914	20092
854.048	20130
854.183	20031
854.317	20096
854.451	20263
854.585	19955
854.72	19970
854.854	20164
854.988	19944
855.122	20035
855.256	19993
855.39	20122
855.524	20153
855.658	20195
855.792	20081
855.926	20020
856.06	20183
856.194	20214
856.327	20119
856.461	19982
856.595	20096
856.729	20054
856.862	20218
856.996	20096
857.13	20187
857.263	20149
857.397	20161
857.53	20058
857.664	20111
857.797	20073
857.931	20229
858.064	20145
858.197	20058
858.331	20020
858.464	19978
858.597	19906
858.731	19936
858.864	19997
858.997	19967
859.13	19993
859.263	20100
859.396	20153
859.529	19963
859.662	20005
859.795	20035
859.928	19940
860.061	20050
860.194	20153
860.327	20111
860.46	20088
860.592	20153
860.725	20176
860.858	20187
860.99	19982
861.123	19860
861.256	19928
861.388	19951
861.521	20446
861.653	19902
861.786	19811
861.918	19875
862.05	19883
862.183	20035
862.315	20058
862.447	20122
862.58	19959
862.712	19871
862.844	19761
862.976	19826
863.108	19898
863.24	20111
863.372	19643
863.504	19791
863.636	19658
863.768	19620
863.9	19772
864.032	19628
864.164	19624
864.296	19639
864.428	19822
864.559	19719
864.691	19643
864.823	19788
864.954	19723
865.086	19662
865.217	19681
865.349	19499
865.48	19537
865.612	19594
865.743	19799
865.875	19403
866.006	19662
866.137	19662
866.269	19677
866.4	19460
866.531	19666
866.662	19537
866.793	19647
866.924	19476
867.055	19594
867.186	19575
867.317	19567
867.448	19369
867.579	19499
867.71	19502
867.841	19434
867.972	19521
868.103	19502
868.233	19563
868.364	19548
868.495	19620
868.625	19731
868.756	19658
868.886	19624
869.017	19765
869.147	19890
869.278	19811
869.408	19788
869.539	19803
869.669	19883
869.799	19849
869.929	19814
870.06	19841
870.19	20062
870.32	20020
870.45	20096
870.58	20180
870.71	20210
870.84	20248
870.97	20107
871.1	20267
871.23	20343
871.36	20362
871.489	20259
871.619	20339
871.749	20415
871.879	20305
872.008	20537
872.138	20465
872.267	20438
872.397	20286
872.526	20161
872.656	20278
872.785	20267
872.915	20320
873.044	20442
873.173	20324
873.303	20511
873.432	20377
873.561	20423
873.69	20499
873.819	20396
873.948	20427
874.077	20434
874.206	20309
874.335	20358
874.464	20415
874.593	20644
874.722	20621
874.851	20655
874.979	20746
875.108	20807
875.237	20533
875.365	20564
875.494	20629
875.623	20663
875.751	20602
875.88	20735
876.008	20750
876.136	20826
876.265	21020
876.393	21184
876.521	21173
876.65	21127
876.778	21135
876.906	20937
877.034	20933
877.162	21036
877.29	21017
877.418	20914
877.546	20975
877.674	20982
877.802	20998
877.93	21024
878.058	21108
878.185	20921
878.313	20895
878.441	20979
878.568	20937
878.696	20895
878.824	21127
878.951	21066
879.079	21173
879.206	21355
879.333	21135
879.461	20952
879.588	21055
879.715	21211
879.842	21256
879.97	21135
880.097	20845
880.224	20849
880.351	20895
880.478	20853
880.605	20868
880.732	20876
880.859	20986
880.986	20853
881.112	20933
881.239	20708
881.366	20537
881.493	20389
881.619	20507
881.746	20461
881.872	20465
881.999	20415
882.125	20313
882.252	20465
882.378	20404
882.505	20465
882.631	20434
882.757	20195
882.883	20339
883.01	20229
883.136	20195
883.262	20103
883.388	20001
883.514	20267
883.64	20218
883.766	20176
883.892	19997
884.018	20005
884.143	20195
884.269	20202
884.395	19963
884.52	19890
884.646	19921
884.772	19746
884.897	19879
885.023	19776
885.148	19993
885.274	20050
885.399	19978
885.524	19734
885.65	19970
885.775	19890
885.9	19727
886.025	19898
886.15	19906
886.275	19715
886.4	19658
886.525	19750
886.65	19693
886.775	19613
886.9	19921
887.025	20069
887.149	19795
887.274	19670
887.399	19556
887.523	19651
887.648	19643
887.773	19518
887.897	19624
888.021	19677
888.146	19468
888.27	19624
888.395	19681
888.519	19571
888.643	19674
888.767	19647
888.891	19529
889.015	19301
889.139	19472
889.263	19297
889.387	19468
889.511	19628
889.635	19616
889.759	19324
889.883	19320
890.006	19312
890.13	19510
890.254	19183
890.377	19236
890.501	19091
890.624	19061
890.748	19285
890.871	18977
890.995	18924
891.118	18859
891.241	19008
891.364	18913
891.488	19072
891.611	18776
891.734	18962
891.857	19057
891.98	18913
892.103	19148
892.226	19042
892.349	19023
892.471	18859
892.594	18894
892.717	18886
892.839	18916
892.962	19012
893.085	18943
893.207	18943
893.33	18783
893.452	18897
893.575	18996
893.697	18928
893.819	18977
893.941	19046
894.064	18962
894.186	18787
894.308	18863
894.43	18973
894.552	19065
894.674	18993
894.796	18871
894.918	18920
895.04	18848
895.161	18996
895.283	18894
895.405	18840
895.526	18905
895.648	18867
895.769	18985
895.891	18875
896.012	18996
896.134	18920
896.255	19012
896.376	18947
896.498	19012
896.619	19031
896.74	18924
896.861	19122
896.982	19324
897.103	19392
897.224	19297
897.345	19156
897.466	19187
897.587	19316
897.708	19384
897.828	19255
897.949	19034
898.07	19088
898.19	19050
898.311	19202
898.431	19084
898.552	19118
898.672	19304
898.792	19160
898.913	19053
899.033	19038
899.153	18856
899.273	18829
899.393	18878
899.513	18928
899.633	18882
899.753	18909
899.873	18798
899.993	18837
900.113	18871
900.232	18886
900.352	18741
900.472	18650
900.591	18563
900.711	18741
900.83	18627
900.95	18802
901.069	18757
901.189	18620
901.308	18361
901.427	18285
901.546	18334
901.665	18330
901.784	18258
901.904	18076
902.023	18152
902.141	17889
902.26	17760
902.379	17946
902.498	17733
902.617	17729
902.735	17878
902.854	17748
902.973	17794
903.091	17471
903.21	17410
903.328	17471
903.446	17326
903.565	17220
903.683	17296
903.801	17200
903.919	17178
904.038	17231
904.156	17155
904.274	17086
904.392	17003
904.51	17010
904.627	16946
904.745	17105
904.863	17056
904.981	16812
905.098	16740
905.216	16710
905.334	16797
905.451	16767
905.569	16778
905.686	16786
905.803	16725
905.921	16493
906.038	16694
906.155	16569
906.272	16455
906.389	16379
906.506	16287
906.623	16192
906.74	16295
906.857	16120
906.974	16188
907.091	16417
907.208	16379
907.324	16246
907.441	16010
907.557	15979
907.674	15911
907.79	15956
907.907	15899
908.023	15930
908.139	15937
908.256	15884
908.372	15888
908.488	15812
908.604	15690
908.72	15667
908.836	15728
908.952	15671
909.068	15595
909.184	15743
909.3	15633
909.415	15652
909.531	15584
909.647	15351
909.762	15348
909.878	15302
909.993	15302
910.108	15325
910.224	15294
910.339	15310
910.454	15142
910.57	15112
910.685	15123
910.8	15355
910.915	15268
911.03	15039
911.145	14982
911.259	14929
911.374	14921
911.489	14785
911.604	14769
911.718	14697
911.833	14735
911.947	14632
912.062	14659
912.176	14686
912.291	14731
912.405	14686
912.519	14902
912.633	14902
912.748	14602
912.862	14667
912.976	14537
913.09	14385
913.204	14412
913.318	14385
913.431	14617
913.545	14571
913.659	14549
913.772	14469
913.886	14404
914	14282
914.113	14385
914.226	14473
914.34	14393
914.453	14298
914.566	14336
914.68	14233
914.793	14172
914.906	14130
915.019	14035
915.132	13947
915.245	13986
915.358	13967
915.47	13947
915.583	13940
915.696	14073
915.809	14130
915.921	14081
916.034	13860
916.146	13902
916.259	13883
916.371	13947
916.483	13986
916.595	13856
916.708	13776
916.82	13860
916.932	13887
917.044	13803
917.156	13727
917.268	13597
917.38	13677
917.491	13685
917.603	13662
917.715	13776
917.826	13715
917.938	13556
918.049	13502
918.161	13582
918.272	13799
918.384	13776
918.495	13700
918.606	13514
918.717	13400
918.828	13483
918.939	13464
919.05	13384
919.161	13358
919.272	13266
919.383	13263
919.494	13533
919.604	13586
919.715	13392
919.826	13316
919.936	13343
920.047	13422
920.157	13362
920.267	13628
920.378	13468
920.488	13468
920.598	13658
920.708	13643
920.818	13556
920.928	13476
921.038	13731
921.148	13609
921.258	13388
921.368	13251
921.477	13209
921.587	13133
921.697	13023
921.806	13187
921.916	13031
922.025	12844
922.134	12939
922.244	12779
922.353	12886
922.462	12829
922.571	12604
922.68	12551
922.789	12544
922.898	12422
923.007	12422
923.116	12490
923.224	12456
923.333	12403
923.442	12292
923.55	12258
923.659	12285
923.767	12369
923.876	12201
923.984	12365
924.092	12247
924.201	12251
924.309	12209
924.417	12224
924.525	12133
924.633	12232
924.741	13152
924.849	11908
924.956	12125
925.064	11996
925.172	11923
925.279	11870
925.387	11897
925.494	11916
925.602	12114
925.709	12019
925.816	11832
925.924	11927
926.031	11942
926.138	11923
926.245	11916
926.352	11836
926.459	11958
926.566	12034
926.673	11805
926.779	11722
926.886	11775
926.993	11524
927.099	11558
927.206	11452
927.312	11509
927.419	11551
927.525	11539
927.631	11524
927.737	11505
927.843	11391
927.95	11292
928.056	11387
928.162	11436
928.267	11448
928.373	12125
928.479	11486
928.585	11201
928.69	11345
928.796	11398
928.901	11151
929.007	11132
929.112	11261
929.218	11307
929.323	11083
929.428	11117
929.533	11303
929.638	10995
929.743	11094
929.848	11220
929.953	11086
930.058	10957
930.163	10797
930.267	10793
930.372	10953
930.477	10771
930.581	10965
930.685	10862
930.79	10752
930.894	10653
930.998	10687
931.103	10809
931.207	10436
931.311	10341
931.415	10310
931.519	10139
931.623	10166
