Data from test_V78500241_16.txt Node
Date: Fri Mar 25 15:41:54 CST 2022
User: usil
Spectrometer: V785-0024
Trigger mode: 0
Integration Time (sec): 4.000000E-1
Scans to average: 1
Nonlinearity correction enabled: false
Boxcar width: 0
Storing dark spectrum: false
XAxis mode: Wavelengths
Number of Pixels in Spectrum: 1024
>>>>>Begin Spectral Data<<<<<
801.071	27005
801.214	26933
801.356	26644
801.499	26667
801.641	26518
801.783	26233
801.926	26404
802.068	26271
802.211	26301
802.353	26195
802.496	26062
802.638	26020
802.78	25963
802.923	25734
803.065	25837
803.208	25974
803.35	25974
803.492	25978
803.635	26058
803.777	26031
803.919	26065
804.061	26305
804.204	25978
804.346	25856
804.488	25849
804.63	25795
804.773	25780
804.915	25913
805.057	25993
805.199	25761
805.341	25989
805.483	26126
805.626	25925
805.768	25776
805.91	25963
806.052	25997
806.194	25795
806.336	25997
806.478	25966
806.62	25902
806.762	26016
806.904	26145
807.046	26377
807.188	26221
807.33	26221
807.472	26294
807.614	26229
807.756	26180
807.898	26008
808.04	25982
808.182	26043
808.324	25993
808.465	26065
808.607	26290
808.749	26305
808.891	26328
809.033	26514
809.174	26415
809.316	26358
809.458	26301
809.6	26343
809.741	26252
809.883	26332
810.025	26488
810.166	26537
810.308	26655
810.45	26640
810.591	26552
810.733	26278
810.875	26252
811.016	26084
811.158	25917
811.299	26317
811.441	26320
811.582	26286
811.724	26195
811.865	26157
812.007	26031
812.148	26107
812.29	26122
812.431	26202
812.573	26613
812.714	26587
812.855	26625
812.997	26674
813.138	26864
813.279	26857
813.421	26739
813.562	26606
813.703	26412
813.845	26259
813.986	25989
814.127	25837
814.268	25909
814.41	25852
814.551	25772
814.692	25772
814.833	25616
814.974	25575
815.115	25757
815.256	25628
815.397	25575
815.539	25464
815.68	25411
815.821	25419
815.962	25377
816.103	25438
816.244	25365
816.385	25293
816.526	24924
816.666	24859
816.807	24772
816.948	24905
817.089	24882
817.23	24772
817.371	24768
817.512	24719
817.653	24719
817.793	24806
817.934	24681
818.075	24726
818.216	24741
818.356	24711
818.497	24540
818.638	24509
818.778	24513
818.919	24380
819.06	24513
819.2	24521
819.341	24719
819.481	24604
819.622	24753
819.762	24867
819.903	24848
820.043	24757
820.184	24806
820.324	24768
820.465	24650
820.605	24745
820.746	24684
820.886	24528
821.026	24715
821.167	24616
821.307	24574
821.447	24635
821.588	24551
821.728	24384
821.868	24098
822.008	24057
822.149	24110
822.289	24057
822.429	23870
822.569	23741
822.709	23710
822.849	23600
822.99	23562
823.13	23543
823.27	23433
823.41	23368
823.55	23288
823.69	23402
823.83	23341
823.97	23200
824.11	23075
824.25	22995
824.389	23105
824.529	23200
824.669	23094
824.809	23155
824.949	23162
825.089	23124
825.228	22999
825.368	22930
825.508	22934
825.648	22942
825.787	23010
825.927	22991
826.067	22820
826.206	22858
826.346	22984
826.485	22980
826.625	22873
826.765	22908
826.904	22934
827.044	22596
827.183	22622
827.323	22382
827.462	22542
827.601	22546
827.741	22550
827.88	22493
828.02	22341
828.159	22531
828.298	22599
828.437	22603
828.577	22497
828.716	22607
828.855	22402
828.994	22196
829.134	22253
829.273	22249
829.412	22105
829.551	22185
829.69	22147
829.829	22158
829.968	22162
830.107	22242
830.246	22185
830.385	22147
830.524	22040
830.663	21880
830.802	21953
830.941	21652
831.08	21755
831.219	21778
831.357	21755
831.496	21968
831.635	21667
831.774	21656
831.913	21591
832.051	21359
832.19	21515
832.329	21496
832.467	21329
832.606	21355
832.744	21310
832.883	21329
833.022	21348
833.16	21256
833.299	21340
833.437	21351
833.576	21473
833.714	21321
833.852	21408
833.991	21359
834.129	21447
834.267	21378
834.406	21302
834.544	21500
834.682	21363
834.821	21332
834.959	21408
835.097	21230
835.235	21367
835.373	21252
835.511	21192
835.65	21192
835.788	21184
835.926	21112
836.064	21001
836.202	20960
836.34	21157
836.478	21268
836.615	21161
836.753	21085
836.891	21157
837.029	21142
837.167	21127
837.305	21070
837.443	21150
837.58	21039
837.718	21066
837.856	21077
837.993	21013
838.131	21062
838.269	20994
838.406	21108
838.544	20899
838.681	20644
838.819	20625
838.956	20476
839.094	20465
839.231	20598
839.369	20556
839.506	20864
839.643	20602
839.781	20446
839.918	20324
840.055	20366
840.193	20370
840.33	20457
840.467	20412
840.604	20381
840.742	20731
840.879	20267
841.016	20233
841.153	20294
841.29	20499
841.427	20317
841.564	20434
841.701	20339
841.838	20374
841.975	20320
842.112	20214
842.249	20248
842.385	20058
842.522	20199
842.659	20103
842.796	20043
842.933	20103
843.069	20069
843.206	19955
843.343	20077
843.479	20020
843.616	20073
843.752	19795
843.889	19696
844.025	19879
844.162	19849
844.298	19795
844.435	19693
844.571	19772
844.708	19803
844.844	19978
844.98	19944
845.117	19852
845.253	19753
845.389	19662
845.525	19727
845.661	19601
845.798	19449
845.934	19620
846.07	19487
846.206	19575
846.342	19556
846.478	19468
846.614	19301
846.75	19289
846.886	19297
847.022	19285
847.158	19282
847.294	19225
847.429	19221
847.565	19095
847.701	19460
847.837	18958
847.972	18973
848.108	19084
848.244	19000
848.379	18871
848.515	18817
848.65	18859
848.786	18722
848.921	18753
849.057	18932
849.192	18837
849.328	18878
849.463	18791
849.598	18707
849.734	18802
849.869	18715
850.004	18601
850.14	18536
850.275	18471
850.41	18570
850.545	18517
850.68	18483
850.815	18570
850.95	18513
851.085	18715
851.22	18506
851.355	18456
851.49	18388
851.625	18525
851.76	18498
851.895	18445
852.03	18445
852.165	18433
852.299	18540
852.434	18612
852.569	18635
852.703	18521
852.838	18582
852.973	18642
853.107	18604
853.242	18399
853.376	18315
853.511	18277
853.645	18270
853.78	18388
853.914	18300
854.048	18300
854.183	18292
854.317	18372
854.451	18448
854.585	18216
854.72	18270
854.854	18445
854.988	18350
855.122	18300
855.256	18152
855.39	18357
855.524	18441
855.658	18323
855.792	18410
855.926	18330
856.06	18448
856.194	18460
856.327	18315
856.461	18201
856.595	18083
856.729	18239
856.862	18369
856.996	18369
857.13	18330
857.263	18483
857.397	18407
857.53	18319
857.664	18327
857.797	18277
857.931	18388
858.064	18319
858.197	18414
858.331	18213
858.464	18125
858.597	18159
858.731	18190
858.864	18190
858.997	18262
859.13	18213
859.263	18300
859.396	18353
859.529	18182
859.662	18228
859.795	18152
859.928	18327
860.061	18380
860.194	18365
860.327	18167
860.46	18258
860.592	18388
860.725	18350
860.858	18357
860.99	18235
861.123	18095
861.256	18079
861.388	18190
861.521	18734
861.653	18140
861.786	18072
861.918	18182
862.05	18102
862.183	18289
862.315	18330
862.447	18414
862.58	18330
862.712	18167
862.844	17984
862.976	18083
863.108	17954
863.24	18304
863.372	17946
863.504	17969
863.636	17950
863.768	18057
863.9	18095
864.032	17843
864.164	18011
864.296	17920
864.428	17984
864.559	17977
864.691	17961
864.823	17927
864.954	17859
865.086	17935
865.217	17897
865.349	17874
865.48	17927
865.612	17809
865.743	18022
865.875	17908
866.006	17809
866.137	17927
866.269	17840
866.4	17874
866.531	17809
866.662	17764
866.793	17840
866.924	17805
867.055	17832
867.186	17794
867.317	17855
867.448	17901
867.579	17786
867.71	17809
867.841	17741
867.972	17901
868.103	17889
868.233	17775
868.364	17851
868.495	17912
868.625	18060
868.756	18152
868.886	17999
869.017	17973
869.147	18110
869.278	18186
869.408	17999
869.539	18053
869.669	18106
869.799	18129
869.929	18136
870.06	18125
870.19	18308
870.32	18445
870.45	18433
870.58	18502
870.71	18646
870.84	18551
870.97	18498
871.1	18445
871.23	18551
871.36	18677
871.489	18559
871.619	18692
871.749	18661
871.879	18726
872.008	18814
872.138	18696
872.267	18604
872.397	18559
872.526	18547
872.656	18479
872.785	18544
872.915	18681
873.044	18700
873.173	18642
873.303	18753
873.432	18684
873.561	18802
873.69	18753
873.819	18764
873.948	18829
874.077	18741
874.206	18661
874.335	18688
874.464	18719
874.593	18970
874.722	18783
874.851	19004
874.979	18920
875.108	19110
875.237	18985
875.365	18932
875.494	18894
875.623	19160
875.751	18939
875.88	19061
876.008	19107
876.136	19160
876.265	19392
876.393	19525
876.521	19506
876.65	19544
876.778	19396
876.906	19365
877.034	19263
877.162	19297
877.29	19236
877.418	19327
877.546	19377
877.674	19373
877.802	19411
877.93	19396
878.058	19304
878.185	19285
878.313	19426
878.441	19244
878.568	19217
878.696	19255
878.824	19411
878.951	19388
879.079	19521
879.206	19723
879.333	19468
879.461	19491
879.588	19350
879.715	19449
879.842	19639
879.97	19346
880.097	19175
880.224	19232
880.351	19304
880.478	19225
880.605	19175
880.732	19156
880.859	19483
880.986	19289
881.112	19175
881.239	19168
881.366	18901
881.493	18920
881.619	18745
881.746	18958
881.872	18817
881.999	18825
882.125	18829
882.252	18825
882.378	18878
882.505	19069
882.631	18844
882.757	18589
882.883	18635
883.01	18650
883.136	18593
883.262	18517
883.388	18464
883.514	18646
883.64	18658
883.766	18559
883.892	18357
884.018	18414
884.143	18570
884.269	18726
884.395	18357
884.52	18285
884.646	18350
884.772	18281
884.897	18186
885.023	18338
885.148	18350
885.274	18502
885.399	18437
885.524	18140
885.65	18350
885.775	18258
885.9	18300
886.025	18266
886.15	18235
886.275	18270
886.4	18163
886.525	18285
886.65	18129
886.775	18220
886.9	18251
887.025	18456
887.149	18186
887.274	18083
887.399	17973
887.523	17973
887.648	17958
887.773	17847
887.897	18060
888.021	18140
888.146	17908
888.27	18079
888.395	18190
888.519	18163
888.643	18011
888.767	18045
888.891	17923
889.015	17847
889.139	17843
889.263	17813
889.387	17904
889.511	17904
889.635	17920
889.759	17836
889.883	17786
890.006	17790
890.13	17912
890.254	17665
890.377	17851
890.501	17619
890.624	17562
890.748	17600
890.871	17581
890.995	17490
891.118	17455
891.241	17433
891.364	17505
891.488	17627
891.611	17391
891.734	17524
891.857	17501
891.98	17558
892.103	17490
892.226	17421
892.349	17364
892.471	17269
892.594	17471
892.717	17493
892.839	17440
892.962	17322
893.085	17520
893.207	17391
893.33	17307
893.452	17372
893.575	17402
893.697	17387
893.819	17482
893.941	17505
894.064	17657
894.186	17391
894.308	17414
894.43	17520
894.552	17623
894.674	17493
894.796	17376
894.918	17372
895.04	17391
895.161	17490
895.283	17482
895.405	17406
895.526	17421
895.648	17448
895.769	17596
895.891	17509
896.012	17570
896.134	17684
896.255	17611
896.376	17528
896.498	17562
896.619	17608
896.74	17467
896.861	17577
896.982	17863
897.103	18053
897.224	17828
897.345	17863
897.466	17794
897.587	17767
897.708	17935
897.828	17737
897.949	17771
898.07	17748
898.19	17623
898.311	17764
898.431	17802
898.552	17813
898.672	17863
898.792	17752
898.913	17703
899.033	17604
899.153	17501
899.273	17486
899.393	17474
899.513	17668
899.633	17547
899.753	17440
899.873	17395
899.993	17638
900.113	17474
900.232	17512
900.352	17509
900.472	17376
900.591	17261
900.711	17398
900.83	17398
900.95	17467
901.069	17471
901.189	17326
901.308	17045
901.427	16949
901.546	16946
901.665	16987
901.784	17025
901.904	16862
902.023	16866
902.141	16516
902.26	16603
902.379	16588
902.498	16516
902.617	16424
902.735	16634
902.854	16481
902.973	16485
903.091	16188
903.21	16204
903.328	16230
903.446	16051
903.565	15911
903.683	16063
903.801	15857
903.919	16021
904.038	15964
904.156	15842
904.274	15865
904.392	15831
904.51	15846
904.627	15842
904.745	15823
904.863	15838
904.981	15648
905.098	15492
905.216	15515
905.334	15447
905.451	15424
905.569	15469
905.686	15557
905.803	15507
905.921	15192
906.038	15306
906.155	15298
906.272	15135
906.389	15161
906.506	15074
906.623	15039
906.74	14975
906.857	14918
906.974	14883
907.091	15043
907.208	15188
907.324	15089
907.441	14899
907.557	14727
907.674	14701
907.79	14689
907.907	14651
908.023	14788
908.139	14792
908.256	14549
908.372	14644
908.488	14629
908.604	14431
908.72	14385
908.836	14438
908.952	14389
909.068	14389
909.184	14480
909.3	14377
909.415	14442
909.531	14404
909.647	14081
909.762	14081
909.878	14149
909.993	14157
910.108	14100
910.224	14027
910.339	14084
910.454	14119
910.57	13928
910.685	13852
910.8	14202
910.915	14130
911.03	13906
911.145	13803
911.259	13856
911.374	13742
911.489	13765
911.604	13746
911.718	13491
911.833	13502
911.947	13365
912.062	13358
912.176	13643
912.291	13548
912.405	13537
912.519	13746
912.633	13685
912.748	13616
912.862	13457
912.976	13331
913.09	13266
913.204	13247
913.318	13320
913.431	13419
913.545	13365
913.659	13358
913.772	13304
913.886	13259
914	13095
914.113	13316
914.226	13289
914.34	13285
914.453	13084
914.566	13274
914.68	13053
914.793	13076
914.906	12989
915.019	12894
915.132	12825
915.245	12806
915.358	12863
915.47	12878
915.583	12916
915.696	12935
915.809	12943
915.921	12894
916.034	12840
916.146	12715
916.259	12825
916.371	12897
916.483	12829
916.595	12707
916.708	12760
916.82	12662
916.932	12673
917.044	12669
917.156	12627
917.268	12566
917.38	12616
917.491	12559
917.603	12642
917.715	12669
917.826	12703
917.938	12597
918.049	12502
918.161	12616
918.272	12631
918.384	12650
918.495	12597
918.606	12410
918.717	12369
918.828	12380
918.939	12525
919.05	12334
919.161	12376
919.272	12133
919.383	12308
919.494	12350
919.604	12608
919.715	12426
919.826	12277
919.936	12285
920.047	12437
920.157	12315
920.267	12589
920.378	12380
920.488	12353
920.598	12601
920.708	12563
920.818	12521
920.928	12540
921.038	12673
921.148	12646
921.258	12270
921.368	12277
921.477	12178
921.587	12117
921.697	11980
921.806	12182
921.916	11923
922.025	11794
922.134	11882
922.244	11756
922.353	11897
922.462	11756
922.571	11630
922.68	11516
922.789	11444
922.898	11448
923.007	11463
923.116	11395
923.224	11421
923.333	11478
923.442	11273
923.55	11299
923.659	11341
923.767	11356
923.876	11277
923.984	11345
924.092	11254
924.201	11307
924.309	11254
924.417	11284
924.525	11208
924.633	11216
924.741	12144
924.849	11014
924.956	11208
925.064	10987
925.172	10927
925.279	10911
925.387	11037
925.494	11018
925.602	11121
925.709	11079
925.816	10942
925.924	11022
926.031	11170
926.138	10984
926.245	10995
926.352	10911
926.459	11025
926.566	11037
926.673	10961
926.779	10767
926.886	10748
926.993	10592
927.099	10599
927.206	10607
927.312	10607
927.419	10622
927.525	10615
927.631	10683
927.737	10478
927.843	10451
927.95	10382
928.056	10504
928.162	10481
928.267	10599
928.373	11140
928.479	10580
928.585	10318
928.69	10436
928.796	10516
928.901	10341
929.007	10276
929.112	10363
929.218	10375
929.323	10314
929.428	10306
929.533	10390
929.638	10173
929.743	10185
929.848	10265
929.953	10169
930.058	10135
930.163	9972
930.267	9987
930.372	10109
930.477	9907
930.581	10128
930.685	10051
930.79	9842
930.894	9903
930.998	9831
931.103	9903
931.207	9614
931.311	9591
931.415	9557
931.519	9370
931.623	9264
