Data from test_V78500241_3690.txt Node
Date: Fri Mar 25 16:07:21 CST 2022
User: usil
Spectrometer: V785-0024
Trigger mode: 0
Integration Time (sec): 4.000000E-1
Scans to average: 1
Nonlinearity correction enabled: false
Boxcar width: 0
Storing dark spectrum: false
XAxis mode: Wavelengths
Number of Pixels in Spectrum: 1024
>>>>>Begin Spectral Data<<<<<
801.071	28386
801.214	28360
801.356	28029
801.499	28051
801.641	27778
801.783	27994
801.926	27907
802.068	28021
802.211	28051
802.353	27926
802.496	27663
802.638	27663
802.78	27583
802.923	27625
803.065	27561
803.208	27610
803.35	27637
803.492	27747
803.635	27846
803.777	27656
803.919	27964
804.061	28219
804.204	27930
804.346	27876
804.488	27705
804.63	27838
804.773	27804
804.915	27956
805.057	28017
805.199	27808
805.341	27972
805.483	27983
805.626	28070
805.768	27953
805.91	28082
806.052	28032
806.194	27987
806.336	28185
806.478	28059
806.62	28109
806.762	28173
806.904	28223
807.046	28527
807.188	28481
807.33	28459
807.472	28424
807.614	28443
807.756	28470
807.898	28386
808.04	28325
808.182	28249
808.324	28428
808.465	28371
808.607	28584
808.749	28649
808.891	28873
809.033	28862
809.174	28694
809.316	28854
809.458	28828
809.6	28710
809.741	28793
809.883	28904
810.025	28991
810.166	29060
810.308	29200
810.45	28987
810.591	28908
810.733	28653
810.875	28645
811.016	28577
811.158	28653
811.299	28946
811.441	28900
811.582	28885
811.724	28759
811.865	28763
812.007	28698
812.148	28713
812.29	28816
812.431	28987
812.573	29033
812.714	29140
812.855	29220
812.997	29425
813.138	29425
813.279	29440
813.421	29231
813.562	29147
813.703	29105
813.845	29033
813.986	28588
814.127	28466
814.268	28379
814.41	28493
814.551	28462
814.692	28485
814.833	28386
814.974	28375
815.115	28455
815.256	28363
815.397	28295
815.539	28325
815.68	28314
815.821	28284
815.962	28280
816.103	28188
816.244	28101
816.385	28097
816.526	28055
816.666	27888
816.807	27686
816.948	27861
817.089	27903
817.23	27857
817.371	27663
817.512	27713
817.653	27629
817.793	27682
817.934	27869
818.075	27648
818.216	27671
818.356	27717
818.497	27622
818.638	27583
818.778	27359
818.919	27477
819.06	27644
819.2	27660
819.341	27728
819.481	27717
819.622	27857
819.762	28055
819.903	28147
820.043	27880
820.184	27762
820.324	27918
820.465	27968
820.605	28002
820.746	27804
820.886	27720
821.026	27857
821.167	27797
821.307	27960
821.447	27743
821.588	27762
821.728	27538
821.868	27325
822.008	27173
822.149	27367
822.289	27093
822.429	27028
822.569	27017
822.709	26853
822.849	26796
822.99	26792
823.13	26739
823.27	26644
823.41	26530
823.55	26446
823.69	26571
823.83	26625
823.97	26499
824.11	26347
824.25	26339
824.389	26434
824.529	26560
824.669	26465
824.809	26492
824.949	26473
825.089	26469
825.228	26294
825.368	26237
825.508	26229
825.648	26210
825.787	26290
825.927	26317
826.067	26351
826.206	26305
826.346	26324
826.485	26362
826.625	26100
826.765	26324
826.904	26225
827.044	26031
827.183	26046
827.323	26058
827.462	25947
827.601	25917
827.741	25932
827.88	25947
828.02	25845
828.159	25868
828.298	25909
828.437	26008
828.577	25864
828.716	26062
828.855	25811
828.994	25666
829.134	25677
829.273	25651
829.412	25609
829.551	25499
829.69	25651
829.829	25666
829.968	25746
830.107	25856
830.246	25700
830.385	25563
830.524	25567
830.663	25590
830.802	25422
830.941	25331
831.08	25343
831.219	25373
831.357	25358
831.496	25426
831.635	25293
831.774	25160
831.913	25141
832.051	25061
832.19	25000
832.329	25084
832.467	24875
832.606	24977
832.744	24875
832.883	24954
833.022	24928
833.16	24935
833.299	24996
833.437	24939
833.576	25164
833.714	24913
833.852	25015
833.991	24958
834.129	25091
834.267	25012
834.406	25038
834.544	25057
834.682	24985
834.821	24871
834.959	25175
835.097	24966
835.235	25042
835.373	24977
835.511	25053
835.65	24776
835.788	24863
835.926	24677
836.064	24730
836.202	24639
836.34	24806
836.478	24894
836.615	24901
836.753	24821
836.891	24913
837.029	24863
837.167	24703
837.305	24635
837.443	24635
837.58	24608
837.718	24673
837.856	24654
837.993	24601
838.131	24726
838.269	24570
838.406	24574
838.544	24627
838.681	24376
838.819	24308
838.956	24174
839.094	24239
839.231	24095
839.369	24281
839.506	24551
839.643	24346
839.781	24083
839.918	24064
840.055	24110
840.193	24159
840.33	24049
840.467	24007
840.604	24186
840.742	24410
840.879	23912
841.016	23980
841.153	24053
841.29	24091
841.427	24015
841.564	24148
841.701	24034
841.838	23901
841.975	24064
842.112	23992
842.249	23866
842.385	23764
842.522	24102
842.659	23958
842.796	23691
842.933	23767
843.069	23847
843.206	23729
843.343	23927
843.479	23790
843.616	23779
843.752	23657
843.889	23573
844.025	23649
844.162	23505
844.298	23638
844.435	23531
844.571	23497
844.708	23600
844.844	23718
844.98	23843
845.117	23771
845.253	23471
845.389	23455
845.525	23501
845.661	23539
845.798	23315
845.934	23353
846.07	23292
846.206	23303
846.342	23551
846.478	23402
846.614	23185
846.75	22904
846.886	23048
847.022	23094
847.158	22991
847.294	23102
847.429	23151
847.565	22976
847.701	23140
847.837	22767
847.972	22630
848.108	22949
848.244	22759
848.379	22645
848.515	22672
848.65	22573
848.786	22451
848.921	22592
849.057	22702
849.192	22580
849.328	22740
849.463	22656
849.598	22493
849.734	22470
849.869	22478
850.004	22451
850.14	22417
850.275	22363
850.41	22352
850.545	22291
850.68	22379
850.815	22432
850.95	22360
851.085	22622
851.22	22382
851.355	22447
851.49	22390
851.625	22367
851.76	22451
851.895	22417
852.03	22310
852.165	22287
852.299	22322
852.434	22360
852.569	22440
852.703	22352
852.838	22466
852.973	22481
853.107	22409
853.242	22371
853.376	22109
853.511	22101
853.645	22082
853.78	22333
853.914	22215
854.048	22112
854.183	22242
854.317	22238
854.451	22413
854.585	22173
854.72	22341
854.854	22299
854.988	22051
855.122	22341
855.256	22093
855.39	22109
855.524	22242
855.658	22128
855.792	22230
855.926	22344
856.06	22109
856.194	22284
856.327	22211
856.461	22261
856.595	22261
856.729	22200
856.862	22322
856.996	22257
857.13	22238
857.263	22314
857.397	22390
857.53	22268
857.664	22265
857.797	22234
857.931	22291
858.064	22306
858.197	22455
858.331	22116
858.464	22036
858.597	22067
858.731	22154
858.864	22067
858.997	22158
859.13	22325
859.263	22185
859.396	22287
859.529	22124
859.662	22147
859.795	22124
859.928	22238
860.061	22341
860.194	22493
860.327	22284
860.46	22158
860.592	22390
860.725	22428
860.858	22344
860.99	22276
861.123	22204
861.256	22131
861.388	22223
861.521	22953
861.653	22032
861.786	21983
861.918	22059
862.05	22097
862.183	22143
862.315	22040
862.447	22272
862.58	22131
862.712	21873
862.844	21819
862.976	22048
863.108	21964
863.24	22402
863.372	21918
863.504	21968
863.636	21835
863.768	21960
863.9	21934
864.032	21880
864.164	21854
864.296	22051
864.428	21975
864.559	21949
864.691	21968
864.823	21888
864.954	22029
865.086	21876
865.217	21835
865.349	21751
865.48	21816
865.612	21778
865.743	21987
865.875	21854
866.006	21831
866.137	21728
866.269	21861
866.4	21793
866.531	21808
866.662	21789
866.793	21728
866.924	21755
867.055	21751
867.186	21755
867.317	21747
867.448	21618
867.579	21637
867.71	21660
867.841	21477
867.972	21701
868.103	21762
868.233	21762
868.364	21759
868.495	21816
868.625	22032
868.756	22063
868.886	21876
869.017	21911
869.147	22074
869.278	22025
869.408	22025
869.539	21937
869.669	22101
869.799	22013
869.929	22055
870.06	22082
870.19	22188
870.32	22329
870.45	22310
870.58	22436
870.71	22447
870.84	22569
870.97	22356
871.1	22325
871.23	22440
871.36	22618
871.489	22523
871.619	22523
871.749	22615
871.879	22634
872.008	22767
872.138	22622
872.267	22626
872.397	22550
872.526	22474
872.656	22508
872.785	22375
872.915	22531
873.044	22611
873.173	22550
873.303	22721
873.432	22630
873.561	22752
873.69	22656
873.819	22675
873.948	22611
874.077	22557
874.206	22653
874.335	22493
874.464	22683
874.593	22824
874.722	22778
874.851	22843
874.979	22858
875.108	22949
875.237	22774
875.365	22733
875.494	22710
875.623	22877
875.751	22847
875.88	22839
876.008	22843
876.136	23060
876.265	23212
876.393	23425
876.521	23208
876.65	23299
876.778	23193
876.906	23170
877.034	23166
877.162	23109
877.29	23083
877.418	23269
877.546	23227
877.674	23121
877.802	23159
877.93	23193
878.058	23079
878.185	23022
878.313	23117
878.441	23124
878.568	22930
878.696	23044
878.824	23258
878.951	23296
879.079	23353
879.206	23341
879.333	23292
879.461	23113
879.588	23239
879.715	23360
879.842	23516
879.97	23307
880.097	22972
880.224	22934
880.351	23086
880.478	22938
880.605	22911
880.732	22889
880.859	23299
880.986	22995
881.112	23003
881.239	22816
881.366	22767
881.493	22733
881.619	22584
881.746	22599
881.872	22618
881.999	22405
882.125	22413
882.252	22447
882.378	22565
882.505	22679
882.631	22386
882.757	22295
882.883	22322
883.01	22322
883.136	22158
883.262	22067
883.388	22120
883.514	22181
883.64	22238
883.766	22128
883.892	21983
884.018	21960
884.143	22166
884.269	22238
884.395	21876
884.52	21922
884.646	21892
884.772	21785
884.897	21755
885.023	21884
885.148	21865
885.274	21892
885.399	21941
885.524	21827
885.65	21865
885.775	21831
885.9	21918
886.025	22002
886.15	21827
886.275	21804
886.4	21808
886.525	21675
886.65	21755
886.775	21842
886.9	21953
887.025	21987
887.149	21770
887.274	21804
887.399	21618
887.523	21610
887.648	21591
887.773	21466
887.897	21728
888.021	21629
888.146	21576
888.27	21720
888.395	21580
888.519	21553
888.643	21606
888.767	21572
888.891	21610
889.015	21393
889.139	21553
889.263	21443
889.387	21473
889.511	21599
889.635	21473
889.759	21428
889.883	21405
890.006	21439
890.13	21545
890.254	21344
890.377	21275
890.501	21283
890.624	21127
890.748	21192
890.871	21081
890.995	20857
891.118	20849
891.241	20975
891.364	20956
891.488	21005
891.611	20857
891.734	21058
891.857	20979
891.98	20933
892.103	20921
892.226	20979
892.349	20921
892.471	20823
892.594	20956
892.717	20891
892.839	20849
892.962	20830
893.085	20921
893.207	20910
893.33	20773
893.452	20777
893.575	20807
893.697	20739
893.819	20880
893.941	21127
894.064	20937
894.186	20777
894.308	20739
894.43	20887
894.552	20906
894.674	20982
894.796	20727
894.918	20796
895.04	20807
895.161	20849
895.283	20956
895.405	20754
895.526	20785
895.648	20956
895.769	20872
895.891	20895
896.012	20948
896.134	20887
896.255	20895
896.376	20762
896.498	20842
896.619	20823
896.74	20826
896.861	20899
896.982	21173
897.103	21317
897.224	21104
897.345	21127
897.466	20998
897.587	21017
897.708	21138
897.828	21009
897.949	20975
898.07	20849
898.19	20982
898.311	21226
898.431	21055
898.552	20982
898.672	21032
898.792	21066
898.913	21066
899.033	21020
899.153	20842
899.273	20636
899.393	20952
899.513	20883
899.633	20800
899.753	20777
899.873	20674
899.993	20792
900.113	20636
900.232	20720
900.352	20670
900.472	20594
900.591	20537
900.711	20465
900.83	20442
900.95	20590
901.069	20629
901.189	20431
901.308	20187
901.427	20081
901.546	20206
901.665	20161
901.784	20191
901.904	19978
902.023	19883
902.141	19693
902.26	19693
902.379	19704
902.498	19658
902.617	19616
902.735	19613
902.854	19651
902.973	19514
903.091	19301
903.21	19274
903.328	19320
903.446	19126
903.565	19236
903.683	19053
903.801	19050
903.919	19000
904.038	19053
904.156	18844
904.274	18871
904.392	18779
904.51	18939
904.627	18848
904.745	18977
904.863	19038
904.981	18650
905.098	18566
905.216	18467
905.334	18475
905.451	18555
905.569	18574
905.686	18677
905.803	18490
905.921	18308
906.038	18445
906.155	18399
906.272	18213
906.389	18308
906.506	18064
906.623	18045
906.74	18068
906.857	17969
906.974	17973
907.091	18148
907.208	18186
907.324	18053
907.441	17897
907.557	17695
907.674	17760
907.79	17756
907.907	17687
908.023	17756
908.139	17764
908.256	17695
908.372	17691
908.488	17596
908.604	17440
908.72	17497
908.836	17505
908.952	17516
909.068	17501
909.184	17436
909.3	17421
909.415	17562
909.531	17414
909.647	17147
909.762	17235
909.878	17086
909.993	17200
910.108	17231
910.224	17113
910.339	17086
910.454	16999
910.57	16968
910.685	16824
910.8	17140
910.915	17178
911.03	16934
911.145	16717
911.259	16713
911.374	16744
911.489	16641
911.604	16481
911.718	16527
911.833	16466
911.947	16432
912.062	16360
912.176	16538
912.291	16516
912.405	16546
912.519	16725
912.633	16691
912.748	16504
912.862	16428
912.976	16322
913.09	16200
913.204	16257
913.318	16287
913.431	16447
913.545	16322
913.659	16485
913.772	16287
913.886	16177
914	16128
914.113	16059
914.226	16131
914.34	16128
914.453	15987
914.566	16086
914.68	15998
914.793	15880
914.906	15846
915.019	15778
915.132	15641
915.245	15671
915.358	15679
915.47	15679
915.583	15720
915.696	15747
915.809	15781
915.921	15751
916.034	15599
916.146	15644
916.259	15530
916.371	15644
916.483	15629
916.595	15507
916.708	15462
916.82	15523
916.932	15462
917.044	15587
917.156	15428
917.268	15374
917.38	15386
917.491	15317
917.603	15321
917.715	15355
917.826	15458
917.938	15275
918.049	15260
918.161	15264
918.272	15439
918.384	15374
918.495	15298
918.606	15195
918.717	15028
918.828	15127
918.939	15214
919.05	14998
919.161	15089
919.272	14948
919.383	14967
919.494	15142
919.604	15222
919.715	15024
919.826	14967
919.936	15055
920.047	15146
920.157	15051
920.267	15195
920.378	15112
920.488	15074
920.598	15123
920.708	15310
920.818	15146
920.928	15123
921.038	15268
921.148	15218
921.258	15081
921.368	14918
921.477	14777
921.587	14754
921.697	14518
921.806	14705
921.916	14590
922.025	14385
922.134	14374
922.244	14339
922.353	14427
922.462	14275
922.571	14336
922.68	14081
922.789	14046
922.898	13955
923.007	13887
923.116	13986
923.224	14031
923.333	14058
923.442	13845
923.55	13830
923.659	13784
923.767	13875
923.876	13715
923.984	13887
924.092	13769
924.201	13734
924.309	13826
924.417	13765
924.525	13658
924.633	13761
924.741	14617
924.849	13445
924.956	13597
925.064	13422
925.172	13339
925.279	13320
925.387	13400
925.494	13419
925.602	13495
925.709	13438
925.816	13339
925.924	13335
926.031	13407
926.138	13354
926.245	13426
926.352	13388
926.459	13419
926.566	13430
926.673	13407
926.779	13133
926.886	13183
926.993	13046
927.099	12863
927.206	12871
927.312	12817
927.419	12970
927.525	12939
927.631	12981
927.737	12856
927.843	12920
927.95	12700
928.056	12734
928.162	12825
928.267	12817
928.373	13407
928.479	12825
928.585	12631
928.69	12772
928.796	12681
928.901	12696
929.007	12418
929.112	12585
929.218	12570
929.323	12467
929.428	12471
929.533	12627
929.638	12460
929.743	12464
929.848	12506
929.953	12418
930.058	12399
930.163	12121
930.267	12121
930.372	12361
930.477	12167
930.581	12407
930.685	12251
930.79	12064
930.894	12087
930.998	12057
931.103	12148
931.207	11760
931.311	11676
931.415	11642
931.519	11406
931.623	11360
