Data from test_V78500241_1031.txt Node
Date: Fri Mar 25 15:48:56 CST 2022
User: usil
Spectrometer: V785-0024
Trigger mode: 0
Integration Time (sec): 4.000000E-1
Scans to average: 1
Nonlinearity correction enabled: false
Boxcar width: 0
Storing dark spectrum: false
XAxis mode: Wavelengths
Number of Pixels in Spectrum: 1024
>>>>>Begin Spectral Data<<<<<
801.071	28090
801.214	27956
801.356	27694
801.499	27778
801.641	27561
801.783	27580
801.926	27751
802.068	27534
802.211	27576
802.353	27401
802.496	27279
802.638	27188
802.78	27233
802.923	27241
803.065	27176
803.208	27195
803.35	27165
803.492	27310
803.635	27367
803.777	27298
803.919	27462
804.061	27709
804.204	27492
804.346	27439
804.488	27393
804.63	27252
804.773	27310
804.915	27397
805.057	27545
805.199	27405
805.341	27561
805.483	27564
805.626	27454
805.768	27431
805.91	27511
806.052	27507
806.194	27587
806.336	27793
806.478	27648
806.62	27568
806.762	27842
806.904	27850
807.046	28048
807.188	28055
807.33	28017
807.472	28036
807.614	27991
807.756	28021
807.898	27804
808.04	27914
808.182	27907
808.324	27972
808.465	27972
808.607	28105
808.749	28120
808.891	28299
809.033	28459
809.174	28367
809.316	28230
809.458	28261
809.6	28249
809.741	28382
809.883	28413
810.025	28546
810.166	28447
810.308	28554
810.45	28447
810.591	28417
810.733	28246
810.875	28318
811.016	28185
811.158	28238
811.299	28318
811.441	28417
811.582	28291
811.724	28253
811.865	28280
812.007	28261
812.148	28333
812.29	28261
812.431	28405
812.573	28500
812.714	28683
812.855	28850
812.997	28877
813.138	28850
813.279	28885
813.421	28748
813.562	28679
813.703	28565
813.845	28519
813.986	28219
814.127	28017
814.268	27918
814.41	27991
814.551	27960
814.692	28006
814.833	28051
814.974	27941
815.115	28025
815.256	27739
815.397	27861
815.539	27846
815.68	27671
815.821	27762
815.962	27766
816.103	27679
816.244	27610
816.385	27526
816.526	27393
816.666	27450
816.807	27252
816.948	27294
817.089	27382
817.23	27340
817.371	27207
817.512	27363
817.653	27169
817.793	27336
817.934	27249
818.075	27211
818.216	27283
818.356	27154
818.497	27108
818.638	27009
818.778	26948
818.919	27013
819.06	27036
819.2	27161
819.341	27203
819.481	27165
819.622	27538
819.762	27549
819.903	27500
820.043	27469
820.184	27283
820.324	27241
820.465	27317
820.605	27393
820.746	27374
820.886	27294
821.026	27393
821.167	27192
821.307	27389
821.447	27230
821.588	27264
821.728	27112
821.868	26899
822.008	26811
822.149	26758
822.289	26735
822.429	26267
822.569	26366
822.709	26465
822.849	26240
822.99	26294
823.13	26142
823.27	25978
823.41	26012
823.55	25837
823.69	26107
823.83	26130
823.97	26005
824.11	25902
824.25	25852
824.389	25944
824.529	26012
824.669	25830
824.809	26008
824.949	25826
825.089	25986
825.228	25951
825.368	25757
825.508	25883
825.648	25704
825.787	25818
825.927	25814
826.067	25628
826.206	25776
826.346	25795
826.485	25772
826.625	25738
826.765	25746
826.904	25860
827.044	25537
827.183	25346
827.323	25388
827.462	25571
827.601	25518
827.741	25506
827.88	25518
828.02	25217
828.159	25324
828.298	25552
828.437	25453
828.577	25316
828.716	25441
828.855	25331
828.994	25240
829.134	25160
829.273	25255
829.412	25156
829.551	25118
829.69	25152
829.829	25069
829.968	25316
830.107	25217
830.246	25282
830.385	25069
830.524	25110
830.663	24951
830.802	24951
830.941	24711
831.08	24745
831.219	24878
831.357	24764
831.496	24954
831.635	24779
831.774	24654
831.913	24707
832.051	24498
832.19	24422
832.329	24525
832.467	24475
832.606	24445
832.744	24319
832.883	24327
833.022	24361
833.16	24418
833.299	24429
833.437	24452
833.576	24498
833.714	24407
833.852	24540
833.991	24536
834.129	24528
834.267	24513
834.406	24589
834.544	24608
834.682	24509
834.821	24346
834.959	24612
835.097	24372
835.235	24494
835.373	24410
835.511	24380
835.65	24327
835.788	24304
835.926	24327
836.064	24121
836.202	24060
836.34	24296
836.478	24365
836.615	24296
836.753	24258
836.891	24380
837.029	24414
837.167	24243
837.305	24311
837.443	24353
837.58	23992
837.718	24152
837.856	24015
837.993	24136
838.131	24068
838.269	23977
838.406	24095
838.544	24030
838.681	23851
838.819	23695
838.956	23729
839.094	23611
839.231	23668
839.369	23779
839.506	23893
839.643	23992
839.781	23619
839.918	23665
840.055	23615
840.193	23665
840.33	23512
840.467	23592
840.604	23619
840.742	23851
840.879	23356
841.016	23474
841.153	23402
841.29	23493
841.427	23501
841.564	23551
841.701	23551
841.838	23383
841.975	23303
842.112	23531
842.249	23353
842.385	23299
842.522	23505
842.659	23258
842.796	23273
842.933	23216
843.069	23200
843.206	23311
843.343	23330
843.479	23402
843.616	23140
843.752	23025
843.889	22987
844.025	23296
844.162	23098
844.298	22991
844.435	22953
844.571	23109
844.708	22999
844.844	23242
844.98	23216
845.117	23067
845.253	22934
845.389	22877
845.525	22839
845.661	22869
845.798	22809
845.934	22786
846.07	22729
846.206	22771
846.342	22843
846.478	22710
846.614	22584
846.75	22447
846.886	22596
847.022	22618
847.158	22721
847.294	22512
847.429	22451
847.565	22508
847.701	22782
847.837	22402
847.972	22272
848.108	22287
848.244	22516
848.379	22211
848.515	21998
848.65	22093
848.786	22158
848.921	22169
849.057	22352
849.192	22226
849.328	22242
849.463	22154
849.598	22169
849.734	21979
849.869	21972
850.004	21907
850.14	21937
850.275	21899
850.41	21812
850.545	21895
850.68	21854
850.815	21819
850.95	21846
851.085	22044
851.22	21953
851.355	21835
851.49	21945
851.625	21854
851.76	21823
851.895	21876
852.03	21793
852.165	21880
852.299	21926
852.434	21892
852.569	21808
852.703	21835
852.838	21975
852.973	22006
853.107	21953
853.242	21907
853.376	21648
853.511	21561
853.645	21709
853.78	21873
853.914	21637
854.048	21770
854.183	21823
854.317	21778
854.451	21827
854.585	21648
854.72	21778
854.854	21690
854.988	21583
855.122	21709
855.256	21564
855.39	21713
855.524	21774
855.658	21766
855.792	21728
855.926	21785
856.06	21633
856.194	21724
856.327	21652
856.461	21679
856.595	21675
856.729	21660
856.862	21838
856.996	21747
857.13	21667
857.263	21747
857.397	21736
857.53	21732
857.664	21736
857.797	21876
857.931	21873
858.064	21641
858.197	21759
858.331	21682
858.464	21660
858.597	21580
858.731	21580
858.864	21667
858.997	21614
859.13	21682
859.263	21759
859.396	21785
859.529	21644
859.662	21671
859.795	21705
859.928	21785
860.061	21736
860.194	21895
860.327	21781
860.46	21728
860.592	21808
860.725	21717
860.858	21770
860.99	21728
861.123	21599
861.256	21629
861.388	21660
861.521	22440
861.653	21477
861.786	21481
861.918	21564
862.05	21530
862.183	21686
862.315	21576
862.447	21770
862.58	21603
862.712	21408
862.844	21378
862.976	21462
863.108	21568
863.24	21869
863.372	21348
863.504	21340
863.636	21416
863.768	21481
863.9	21264
864.032	21336
864.164	21340
864.296	21348
864.428	21488
864.559	21420
864.691	21389
864.823	21405
864.954	21351
865.086	21321
865.217	21199
865.349	21218
865.48	21291
865.612	21378
865.743	21462
865.875	21283
866.006	21214
866.137	21321
866.269	21359
866.4	21237
866.531	21291
866.662	21291
866.793	21275
866.924	21230
867.055	21302
867.186	21272
867.317	21142
867.448	21169
867.579	21275
867.71	21142
867.841	21199
867.972	21272
868.103	21230
868.233	21252
868.364	21283
868.495	21329
868.625	21416
868.756	21686
868.886	21370
869.017	21504
869.147	21599
869.278	21504
869.408	21587
869.539	21408
869.669	21564
869.799	21606
869.929	21656
870.06	21603
870.19	21732
870.32	21831
870.45	21915
870.58	21835
870.71	21915
870.84	22074
870.97	21907
871.1	21823
871.23	22097
871.36	22188
871.489	22090
871.619	22067
871.749	22166
871.879	22200
872.008	22249
872.138	22215
872.267	22181
872.397	22021
872.526	22051
872.656	22048
872.785	21880
872.915	22200
873.044	22200
873.173	22128
873.303	22287
873.432	22188
873.561	22230
873.69	22082
873.819	22051
873.948	22204
874.077	22219
874.206	22013
874.335	22093
874.464	22188
874.593	22314
874.722	22291
874.851	22363
874.979	22485
875.108	22394
875.237	22363
875.365	22135
875.494	22280
875.623	22333
875.751	22284
875.88	22382
876.008	22500
876.136	22607
876.265	22702
876.393	22786
876.521	22877
876.65	22809
876.778	22782
876.906	22672
877.034	22660
877.162	22713
877.29	22618
877.418	22675
877.546	22721
877.674	22649
877.802	22675
877.93	22656
878.058	22622
878.185	22557
878.313	22641
878.441	22668
878.568	22527
878.696	22588
878.824	22630
878.951	22793
879.079	22843
879.206	22904
879.333	22854
879.461	22710
879.588	22706
879.715	22904
879.842	22957
879.97	22782
880.097	22440
880.224	22497
880.351	22569
880.478	22485
880.605	22500
880.732	22390
880.859	22786
880.986	22493
881.112	22554
881.239	22303
881.366	22276
881.493	22105
881.619	22059
881.746	22120
881.872	21968
881.999	22025
882.125	22055
882.252	22086
882.378	22105
882.505	22147
882.631	21819
882.757	21698
882.883	21831
883.01	21774
883.136	21789
883.262	21625
883.388	21652
883.514	21808
883.64	21827
883.766	21774
883.892	21488
884.018	21610
884.143	21625
884.269	21835
884.395	21458
884.52	21492
884.646	21363
884.772	21321
884.897	21169
885.023	21386
885.148	21492
885.274	21496
885.399	21469
885.524	21435
885.65	21515
885.775	21367
885.9	21188
886.025	21526
886.15	21500
886.275	21252
886.4	21374
886.525	21306
886.65	21332
886.775	21367
886.9	21564
887.025	21576
887.149	21275
887.274	21245
887.399	21192
887.523	21188
887.648	21165
887.773	20994
887.897	21256
888.021	21287
888.146	21218
888.27	21252
888.395	21298
888.519	21260
888.643	21336
888.767	21180
888.891	21013
889.015	20982
889.139	20990
889.263	20986
889.387	21112
889.511	21112
889.635	21116
889.759	20834
889.883	21001
890.006	21001
890.13	20929
890.254	20868
890.377	20902
890.501	20689
890.624	20640
890.748	20708
890.871	20724
890.995	20568
891.118	20476
891.241	20609
891.364	20560
891.488	20629
891.611	20560
891.734	20571
891.857	20659
891.98	20457
892.103	20473
892.226	20583
892.349	20484
892.471	20381
892.594	20454
892.717	20511
892.839	20609
892.962	20480
893.085	20575
893.207	20560
893.33	20244
893.452	20328
893.575	20431
893.697	20423
893.819	20674
893.941	20609
894.064	20423
894.186	20358
894.308	20415
894.43	20507
894.552	20552
894.674	20522
894.796	20271
894.918	20412
895.04	20309
895.161	20488
895.283	20362
895.405	20332
895.526	20442
895.648	20408
895.769	20457
895.891	20415
896.012	20488
896.134	20434
896.255	20442
896.376	20320
896.498	20438
896.619	20454
896.74	20442
896.861	20419
896.982	20644
897.103	20876
897.224	20632
897.345	20735
897.466	20518
897.587	20720
897.708	20769
897.828	20549
897.949	20549
898.07	20484
898.19	20465
898.311	20629
898.431	20522
898.552	20560
898.672	20609
898.792	20594
898.913	20686
899.033	20450
899.153	20355
899.273	20313
899.393	20389
899.513	20396
899.633	20267
899.753	20469
899.873	20358
899.993	20301
900.113	20396
900.232	20336
900.352	20275
900.472	20168
900.591	20142
900.711	20134
900.83	20058
900.95	20210
901.069	20301
901.189	20130
901.308	19841
901.427	19620
901.546	19750
901.665	19742
901.784	19643
901.904	19647
902.023	19693
902.141	19320
902.26	19320
902.379	19244
902.498	19213
902.617	19187
902.735	19255
902.854	19206
902.973	19255
903.091	18966
903.21	18840
903.328	18901
903.446	18753
903.565	18589
903.683	18711
903.801	18559
903.919	18745
904.038	18661
904.156	18517
904.274	18563
904.392	18486
904.51	18506
904.627	18498
904.745	18433
904.863	18407
904.981	18098
905.098	18197
905.216	18140
905.334	18049
905.451	18194
905.569	18182
905.686	18174
905.803	18220
905.921	18030
906.038	18064
906.155	18003
906.272	17756
906.389	17931
906.506	17695
906.623	17703
906.74	17623
906.857	17592
906.974	17581
907.091	17760
907.208	17805
907.324	17649
907.441	17535
907.557	17532
907.674	17482
907.79	17356
907.907	17379
908.023	17315
908.139	17482
908.256	17474
908.372	17258
908.488	17254
908.604	17231
908.72	17048
908.836	17143
908.952	17075
909.068	17025
909.184	17159
909.3	17079
909.415	17037
909.531	17151
909.647	16927
909.762	16801
909.878	16748
909.993	16809
910.108	16771
910.224	16759
910.339	16843
910.454	16713
910.57	16656
910.685	16558
910.8	16820
910.915	16664
911.03	16565
911.145	16428
911.259	16405
911.374	16371
911.489	16421
911.604	16226
911.718	16128
911.833	16124
911.947	15991
912.062	15975
912.176	16082
912.291	16196
912.405	16219
912.519	16257
912.633	16284
912.748	16162
912.862	16124
912.976	15994
913.09	15827
913.204	15865
913.318	16036
913.431	16078
913.545	15983
913.659	15994
913.772	15949
913.886	15720
914	15701
914.113	15827
914.226	15755
914.34	15831
914.453	15591
914.566	15797
914.68	15553
914.793	15656
914.906	15412
915.019	15294
915.132	15389
915.245	15439
915.358	15401
915.47	15416
915.583	15294
915.696	15389
915.809	15397
915.921	15572
916.034	15325
916.146	15230
916.259	15249
916.371	15317
916.483	15294
916.595	15119
916.708	15161
916.82	15135
916.932	15089
917.044	15093
917.156	15173
917.268	15077
917.38	14994
917.491	14944
917.603	14918
917.715	15089
917.826	14963
917.938	14914
918.049	14918
918.161	14845
918.272	15058
918.384	14941
918.495	14864
918.606	14765
918.717	14788
918.828	14823
918.939	14849
919.05	14701
919.161	14693
919.272	14434
919.383	14632
919.494	14743
919.604	14990
919.715	14693
919.826	14640
919.936	14625
920.047	14712
920.157	14670
920.267	14823
920.378	14686
920.488	14613
920.598	14941
920.708	15074
920.818	14708
920.928	14773
921.038	14998
921.148	14941
921.258	14727
921.368	14621
921.477	14446
921.587	14465
921.697	14362
921.806	14434
921.916	14320
922.025	14157
922.134	14119
922.244	14092
922.353	14218
922.462	14024
922.571	13917
922.68	13734
922.789	13750
922.898	13746
923.007	13700
923.116	13791
923.224	13696
923.333	13620
923.442	13529
923.55	13487
923.659	13548
923.767	13616
923.876	13521
923.984	13597
924.092	13419
924.201	13487
924.309	13434
924.417	13521
924.525	13320
924.633	13407
924.741	14199
924.849	13080
924.956	13289
925.064	13156
925.172	13133
925.279	13133
925.387	13168
925.494	13183
925.602	13289
925.709	13209
925.816	13057
925.924	13099
926.031	13118
926.138	13084
926.245	13209
926.352	12947
926.459	13088
926.566	13156
926.673	12954
926.779	12939
926.886	12882
926.993	12791
927.099	12692
927.206	12612
927.312	12631
927.419	12764
927.525	12669
927.631	12707
927.737	12566
927.843	12464
927.95	12361
928.056	12467
928.162	12627
928.267	12547
928.373	13118
928.479	12589
928.585	12342
928.69	12426
928.796	12467
928.901	12361
929.007	12266
929.112	12372
929.218	12319
929.323	12228
929.428	12243
929.533	12361
929.638	12140
929.743	12247
929.848	12186
929.953	12205
930.058	12117
930.163	11935
930.267	11961
930.372	11999
930.477	11863
930.581	12125
930.685	12034
930.79	11824
930.894	11748
930.998	11691
931.103	12015
931.207	11547
931.311	11417
931.415	11387
931.519	11201
931.623	11128
