Data from test_V78500241_1848.txt Node
Date: Fri Mar 25 15:54:36 CST 2022
User: usil
Spectrometer: V785-0024
Trigger mode: 0
Integration Time (sec): 4.000000E-1
Scans to average: 1
Nonlinearity correction enabled: false
Boxcar width: 0
Storing dark spectrum: false
XAxis mode: Wavelengths
Number of Pixels in Spectrum: 1024
>>>>>Begin Spectral Data<<<<<
801.071	28367
801.214	28557
801.356	28135
801.499	28090
801.641	28105
801.783	28036
801.926	27991
802.068	28036
802.211	27926
802.353	27899
802.496	27759
802.638	27766
802.78	27682
802.923	27629
803.065	27625
803.208	27561
803.35	27705
803.492	27842
803.635	27895
803.777	27816
803.919	28032
804.061	28295
804.204	27998
804.346	27930
804.488	27991
804.63	27941
804.773	27873
804.915	28029
805.057	27914
805.199	27922
805.341	28150
805.483	28078
805.626	28090
805.768	27934
805.91	28128
806.052	27949
806.194	27956
806.336	28204
806.478	28196
806.62	28067
806.762	28249
806.904	28348
807.046	28618
807.188	28580
807.33	28512
807.472	28538
807.614	28451
807.756	28493
807.898	28382
808.04	28303
808.182	28310
808.324	28489
808.465	28333
808.607	28489
808.749	28911
808.891	28812
809.033	28877
809.174	28774
809.316	28793
809.458	28782
809.6	28820
809.741	29018
809.883	28900
810.025	29102
810.166	29071
810.308	29048
810.45	29003
810.591	29121
810.733	28877
810.875	28748
811.016	28702
811.158	28573
811.299	28752
811.441	29022
811.582	29018
811.724	28793
811.865	28710
812.007	28771
812.148	28736
812.29	28801
812.431	28980
812.573	29094
812.714	29128
812.855	29208
812.997	29501
813.138	29558
813.279	29410
813.421	29113
813.562	29292
813.703	29064
813.845	29018
813.986	28702
814.127	28398
814.268	28432
814.41	28618
814.551	28470
814.692	28634
814.833	28489
814.974	28481
815.115	28782
815.256	28344
815.397	28352
815.539	28421
815.68	28451
815.821	28166
815.962	28306
816.103	28230
816.244	28059
816.385	28063
816.526	28032
816.666	27770
816.807	27774
816.948	27762
817.089	27979
817.23	27842
817.371	27663
817.512	27812
817.653	27857
817.793	27865
817.934	27625
818.075	27842
818.216	27789
818.356	27762
818.497	27549
818.638	27450
818.778	27538
818.919	27504
819.06	27564
819.2	27648
819.341	27808
819.481	27914
819.622	27941
819.762	27987
819.903	28055
820.043	27876
820.184	27831
820.324	27998
820.465	27892
820.605	27827
820.746	27842
820.886	27823
821.026	27991
821.167	27861
821.307	27964
821.447	27823
821.588	27709
821.728	27488
821.868	27363
822.008	27302
822.149	27321
822.289	27298
822.429	27043
822.569	26918
822.709	26971
822.849	26826
822.99	26864
823.13	26823
823.27	26659
823.41	26518
823.55	26431
823.69	26552
823.83	26568
823.97	26461
824.11	26450
824.25	26336
824.389	26465
824.529	26423
824.669	26473
824.809	26602
824.949	26484
825.089	26621
825.228	26465
825.368	26294
825.508	26278
825.648	26259
825.787	26263
825.927	26461
826.067	26313
826.206	26328
826.346	26404
826.485	26419
826.625	26362
826.765	26419
826.904	26438
827.044	26096
827.183	26126
827.323	26039
827.462	26168
827.601	26008
827.741	25978
827.88	26088
828.02	25928
828.159	25982
828.298	26012
828.437	26161
828.577	25917
828.716	26157
828.855	25856
828.994	25689
829.134	25761
829.273	25719
829.412	25769
829.551	25738
829.69	25719
829.829	25795
829.968	25780
830.107	25795
830.246	25700
830.385	25723
830.524	25548
830.663	25468
830.802	25449
830.941	25392
831.08	25236
831.219	25434
831.357	25343
831.496	25510
831.635	25259
831.774	25350
831.913	25137
832.051	25194
832.19	25053
832.329	25110
832.467	25069
832.606	25141
832.744	24916
832.883	24920
833.022	24905
833.16	25004
833.299	25000
833.437	24985
833.576	25129
833.714	25057
833.852	25110
833.991	25095
834.129	25270
834.267	25114
834.406	24871
834.544	25034
834.682	25072
834.821	25061
834.959	25247
835.097	25053
835.235	25148
835.373	25053
835.511	25031
835.65	24852
835.788	24924
835.926	24669
836.064	24677
836.202	24738
836.34	24901
836.478	24928
836.615	24909
836.753	24852
836.891	24871
837.029	25053
837.167	24814
837.305	24757
837.443	24840
837.58	24703
837.718	24734
837.856	24722
837.993	24684
838.131	24692
838.269	24551
838.406	24753
838.544	24517
838.681	24391
838.819	24292
838.956	24216
839.094	24243
839.231	24330
839.369	24372
839.506	24445
839.643	24391
839.781	24076
839.918	24152
840.055	24194
840.193	24140
840.33	24095
840.467	24125
840.604	24209
840.742	24338
840.879	24034
841.016	24015
841.153	23954
841.29	24174
841.427	24087
841.564	24072
841.701	24129
841.838	24007
841.975	23923
842.112	23984
842.249	23965
842.385	23817
842.522	24148
842.659	23996
842.796	23764
842.933	23821
843.069	23687
843.206	23904
843.343	23878
843.479	23859
843.616	23764
843.752	23642
843.889	23604
844.025	23634
844.162	23634
844.298	23729
844.435	23558
844.571	23539
844.708	23531
844.844	23771
844.98	23771
845.117	23596
845.253	23429
845.389	23562
845.525	23452
845.661	23566
845.798	23368
845.934	23315
846.07	23368
846.206	23425
846.342	23436
846.478	23322
846.614	23086
846.75	22987
846.886	23083
847.022	23151
847.158	23094
847.294	23121
847.429	23212
847.565	23071
847.701	23261
847.837	22752
847.972	22805
848.108	22919
848.244	22812
848.379	22733
848.515	22710
848.65	22634
848.786	22649
848.921	22702
849.057	22721
849.192	22733
849.328	22706
849.463	22752
849.598	22603
849.734	22554
849.869	22508
850.004	22268
850.14	22485
850.275	22459
850.41	22276
850.545	22402
850.68	22470
850.815	22428
850.95	22428
851.085	22531
851.22	22584
851.355	22436
851.49	22344
851.625	22341
851.76	22390
851.895	22363
852.03	22246
852.165	22451
852.299	22371
852.434	22626
852.569	22531
852.703	22371
852.838	22516
852.973	22527
853.107	22531
853.242	22207
853.376	22207
853.511	22025
853.645	22173
853.78	22371
853.914	22238
854.048	22215
854.183	22360
854.317	22287
854.451	22432
854.585	22173
854.72	22253
854.854	22306
854.988	22166
855.122	22226
855.256	22185
855.39	22234
855.524	22299
855.658	22310
855.792	22215
855.926	22166
856.06	22314
856.194	22398
856.327	22128
856.461	22162
856.595	22051
856.729	22226
856.862	22405
856.996	22287
857.13	22242
857.263	22447
857.397	22310
857.53	22162
857.664	22169
857.797	22128
857.931	22325
858.064	22246
858.197	22337
858.331	22162
858.464	22246
858.597	22120
858.731	22249
858.864	22150
858.997	22074
859.13	22329
859.263	22173
859.396	22390
859.529	22196
859.662	22253
859.795	22169
859.928	22200
860.061	22341
860.194	22379
860.327	22291
860.46	22272
860.592	22451
860.725	22481
860.858	22272
860.99	22249
861.123	22116
861.256	22166
861.388	22192
861.521	22869
861.653	22135
861.786	21964
861.918	22063
862.05	22044
862.183	22207
862.315	22158
862.447	22188
862.58	22101
862.712	22059
862.844	21930
862.976	22139
863.108	22013
863.24	22424
863.372	21960
863.504	21941
863.636	22063
863.768	22010
863.9	22040
864.032	21800
864.164	21884
864.296	21922
864.428	22215
864.559	21964
864.691	21930
864.823	21876
864.954	21869
865.086	21880
865.217	21804
865.349	21778
865.48	21903
865.612	21899
865.743	21953
865.875	21873
866.006	21762
866.137	21827
866.269	21846
866.4	21762
866.531	21827
866.662	21705
866.793	21679
866.924	21701
867.055	21739
867.186	21736
867.317	21641
867.448	21610
867.579	21625
867.71	21717
867.841	21732
867.972	21720
868.103	21656
868.233	21743
868.364	21682
868.495	21778
868.625	22101
868.756	21994
868.886	21922
869.017	21960
869.147	22074
869.278	22139
869.408	21979
869.539	22048
869.669	21979
869.799	21953
869.929	22135
870.06	22120
870.19	22284
870.32	22261
870.45	22242
870.58	22367
870.71	22508
870.84	22432
870.97	22428
871.1	22394
871.23	22493
871.36	22481
871.489	22584
871.619	22493
871.749	22607
871.879	22664
872.008	22634
872.138	22733
872.267	22683
872.397	22386
872.526	22329
872.656	22291
872.785	22516
872.915	22603
873.044	22615
873.173	22660
873.303	22698
873.432	22538
873.561	22740
873.69	22782
873.819	22580
873.948	22664
874.077	22584
874.206	22698
874.335	22611
874.464	22869
874.593	22740
874.722	22850
874.851	22843
874.979	22862
875.108	22824
875.237	22755
875.365	22649
875.494	22809
875.623	22778
875.751	22778
875.88	22915
876.008	23010
876.136	23041
876.265	23231
876.393	23273
876.521	23433
876.65	23376
876.778	23162
876.906	23064
877.034	23128
877.162	23189
877.29	23178
877.418	23296
877.546	23140
877.674	23121
877.802	23136
877.93	23086
878.058	23140
878.185	23048
878.313	23109
878.441	23258
878.568	22972
878.696	23022
878.824	23197
878.951	23318
879.079	23284
879.206	23425
879.333	23307
879.461	23212
879.588	23185
879.715	23356
879.842	23467
879.97	23292
880.097	22885
880.224	22946
880.351	23094
880.478	22965
880.605	22911
880.732	22976
880.859	23159
880.986	23018
881.112	23044
881.239	22866
881.366	22782
881.493	22691
881.619	22508
881.746	22577
881.872	22569
881.999	22554
882.125	22489
882.252	22634
882.378	22565
882.505	22577
882.631	22394
882.757	22318
882.883	22219
883.01	22207
883.136	22356
883.262	22135
883.388	22044
883.514	22147
883.64	22230
883.766	22044
883.892	21789
884.018	22067
884.143	22135
884.269	22204
884.395	21918
884.52	21838
884.646	21937
884.772	21781
884.897	21816
885.023	21770
885.148	21880
885.274	22036
885.399	21926
885.524	21888
885.65	21968
885.775	21884
885.9	21717
886.025	21899
886.15	22025
886.275	21713
886.4	21785
886.525	21778
886.65	21835
886.775	21576
886.9	21918
887.025	22109
887.149	21781
887.274	21652
887.399	21637
887.523	21637
887.648	21530
887.773	21523
887.897	21682
888.021	21606
888.146	21599
888.27	21724
888.395	21713
888.519	21698
888.643	21507
888.767	21656
888.891	21439
889.015	21424
889.139	21439
889.263	21386
889.387	21466
889.511	21667
889.635	21534
889.759	21466
889.883	21477
890.006	21466
890.13	21515
890.254	21268
890.377	21355
890.501	21096
890.624	21119
890.748	21203
890.871	21142
890.995	20906
891.118	20952
891.241	21089
891.364	20933
891.488	21085
891.611	20906
891.734	20960
891.857	21028
891.98	20990
892.103	21032
892.226	20998
892.349	20887
892.471	20598
892.594	20902
892.717	20948
892.839	20883
892.962	20762
893.085	20971
893.207	20823
893.33	20796
893.452	20777
893.575	20830
893.697	20796
893.819	21093
893.941	21005
894.064	21005
894.186	20830
894.308	20834
894.43	20823
894.552	21009
894.674	20910
894.796	20777
894.918	20868
895.04	20716
895.161	20842
895.283	20830
895.405	20788
895.526	20838
895.648	20864
895.769	20823
895.891	20982
896.012	20921
896.134	20899
896.255	20807
896.376	20842
896.498	20872
896.619	20743
896.74	20918
896.861	20883
896.982	21161
897.103	21325
897.224	21100
897.345	21081
897.466	20986
897.587	21108
897.708	21180
897.828	21055
897.949	21005
898.07	20800
898.19	21043
898.311	21173
898.431	20933
898.552	20960
898.672	21207
898.792	21146
898.913	21180
899.033	20834
899.153	20842
899.273	20659
899.393	20826
899.513	20670
899.633	20769
899.753	20807
899.873	20693
899.993	20762
900.113	20804
900.232	20769
900.352	20708
900.472	20575
900.591	20499
900.711	20552
900.83	20415
900.95	20648
901.069	20667
901.189	20336
901.308	20275
901.427	20122
901.546	20145
901.665	20073
901.784	20058
901.904	20016
902.023	19959
902.141	19643
902.26	19696
902.379	19715
902.498	19655
902.617	19662
902.735	19628
902.854	19590
902.973	19521
903.091	19384
903.21	19183
903.328	19289
903.446	19168
903.565	19046
903.683	19095
903.801	19133
903.919	19034
904.038	18951
904.156	18848
904.274	18920
904.392	18905
904.51	18837
904.627	18863
904.745	18924
904.863	18852
904.981	18574
905.098	18502
905.216	18445
905.334	18509
905.451	18536
905.569	18433
905.686	18456
905.803	18433
905.921	18273
906.038	18456
906.155	18315
906.272	18182
906.389	18254
906.506	18102
906.623	18152
906.74	18030
906.857	18030
906.974	17916
907.091	18038
907.208	18121
907.324	18011
907.441	17946
907.557	17741
907.674	17684
907.79	17699
907.907	17657
908.023	17847
908.139	17779
908.256	17722
908.372	17710
908.488	17623
908.604	17528
908.72	17459
908.836	17364
908.952	17436
909.068	17459
909.184	17608
909.3	17455
909.415	17551
909.531	17398
909.647	17197
909.762	17181
909.878	17124
909.993	17223
910.108	17178
910.224	17128
910.339	17067
910.454	17159
910.57	17025
910.685	16877
910.8	17178
910.915	17189
911.03	16927
911.145	16733
911.259	16748
911.374	16774
911.489	16637
911.604	16653
911.718	16508
911.833	16592
911.947	16398
912.062	16386
912.176	16569
912.291	16546
912.405	16443
912.519	16755
912.633	16752
912.748	16481
912.862	16489
912.976	16363
913.09	16177
913.204	16211
913.318	16234
913.431	16455
913.545	16318
913.659	16394
913.772	16223
913.886	16173
914	16036
914.113	16173
914.226	16226
914.34	16192
914.453	15949
914.566	16128
914.68	15964
914.793	15895
914.906	15793
915.019	15701
915.132	15629
915.245	15667
915.358	15739
915.47	15781
915.583	15759
915.696	15663
915.809	15724
915.921	15701
916.034	15576
916.146	15614
916.259	15542
916.371	15591
916.483	15663
916.595	15542
916.708	15504
916.82	15439
916.932	15454
917.044	15492
917.156	15428
917.268	15382
917.38	15355
917.491	15230
917.603	15317
917.715	15325
917.826	15378
917.938	15321
918.049	15104
918.161	15336
918.272	15378
918.384	15397
918.495	15332
918.606	15199
918.717	15157
918.828	14941
918.939	15085
919.05	14929
919.161	15108
919.272	14876
919.383	14918
919.494	15017
919.604	15233
919.715	14979
919.826	15036
919.936	14937
920.047	15066
920.157	14906
920.267	15047
920.378	15009
920.488	14986
920.598	15108
920.708	15317
920.818	15108
920.928	15116
921.038	15222
921.148	15176
921.258	14952
921.368	14838
921.477	14842
921.587	14720
921.697	14571
921.806	14720
921.916	14568
922.025	14423
922.134	14377
922.244	14385
922.353	14465
922.462	14309
922.571	14153
922.68	14012
922.789	14058
922.898	14054
923.007	14054
923.116	14073
923.224	14027
923.333	14043
923.442	13917
923.55	13894
923.659	13879
923.767	13818
923.876	13647
923.984	13906
924.092	13696
924.201	13636
924.309	13769
924.417	13780
924.525	13655
924.633	13696
924.741	14492
924.849	13457
924.956	13533
925.064	13491
925.172	13278
925.279	13407
925.387	13514
925.494	13373
925.602	13510
925.709	13384
925.816	13278
925.924	13316
926.031	13449
926.138	13400
926.245	13377
926.352	13221
926.459	13453
926.566	13365
926.673	13232
926.779	13069
926.886	13152
926.993	12996
927.099	13015
927.206	12977
927.312	12897
927.419	13019
927.525	12966
927.631	13023
927.737	12840
927.843	12779
927.95	12673
928.056	12726
928.162	12768
928.267	12802
928.373	13426
928.479	12840
928.585	12578
928.69	12650
928.796	12814
928.901	12585
929.007	12490
929.112	12620
929.218	12604
929.323	12532
929.428	12448
929.533	12654
929.638	12429
929.743	12380
929.848	12528
929.953	12486
930.058	12262
930.163	12121
930.267	12281
930.372	12323
930.477	12102
930.581	12292
930.685	12155
930.79	12034
930.894	12102
930.998	12019
931.103	12239
931.207	11756
931.311	11630
931.415	11703
931.519	11391
931.623	11387
