Data from test_V78500241_1764.txt Node
Date: Fri Mar 25 15:54:01 CST 2022
User: usil
Spectrometer: V785-0024
Trigger mode: 0
Integration Time (sec): 4.000000E-1
Scans to average: 1
Nonlinearity correction enabled: false
Boxcar width: 0
Storing dark spectrum: false
XAxis mode: Wavelengths
Number of Pixels in Spectrum: 1024
>>>>>Begin Spectral Data<<<<<
801.071	28888
801.214	28786
801.356	28512
801.499	28649
801.641	28386
801.783	28443
801.926	28569
802.068	28424
802.211	28401
802.353	28204
802.496	28215
802.638	28120
802.78	28078
802.923	28105
803.065	27960
803.208	28093
803.35	28268
803.492	28276
803.635	28314
803.777	28192
803.919	28318
804.061	28679
804.204	28284
804.346	28318
804.488	28447
804.63	28344
804.773	28386
804.915	28493
805.057	28489
805.199	28401
805.341	28478
805.483	28550
805.626	28462
805.768	28386
805.91	28382
806.052	28497
806.194	28447
806.336	28717
806.478	28588
806.62	28531
806.762	28645
806.904	28858
807.046	29048
807.188	28957
807.33	29006
807.472	29090
807.614	29003
807.756	28980
807.898	28934
808.04	28767
808.182	28942
808.324	28790
808.465	28938
808.607	29246
808.749	29322
808.891	29360
809.033	29360
809.174	29330
809.316	29204
809.458	29296
809.6	29265
809.741	29383
809.883	29375
810.025	29558
810.166	29566
810.308	29718
810.45	29554
810.591	29474
810.733	29368
810.875	29143
811.016	29094
811.158	29178
811.299	29299
811.441	29398
811.582	29387
811.724	29261
811.865	29075
812.007	29231
812.148	29258
812.29	29239
812.431	29436
812.573	29554
812.714	29794
812.855	29817
812.997	29897
813.138	30015
813.279	29912
813.421	29642
813.562	29699
813.703	29554
813.845	29486
813.986	29200
814.127	29064
814.268	28957
814.41	28953
814.551	28987
814.692	29037
814.833	28835
814.974	28911
815.115	29056
815.256	28759
815.397	28755
815.539	28908
815.68	28774
815.821	28630
815.962	28900
816.103	28809
816.244	28588
816.385	28580
816.526	28622
816.666	28401
816.807	28188
816.948	28295
817.089	28470
817.23	28272
817.371	28185
817.512	28253
817.653	28295
817.793	28181
817.934	28280
818.075	28322
818.216	28318
818.356	28291
818.497	28147
818.638	28059
818.778	28055
818.919	27987
819.06	28150
819.2	28090
819.341	28242
819.481	28246
819.622	28462
819.762	28618
819.903	28546
820.043	28401
820.184	28421
820.324	28432
820.465	28535
820.605	28443
820.746	28310
820.886	28329
821.026	28242
821.167	28382
821.307	28603
821.447	28314
821.588	28131
821.728	28021
821.868	27994
822.008	27831
822.149	27641
822.289	27941
822.429	27458
822.569	27450
822.709	27469
822.849	27317
822.99	27313
823.13	27249
823.27	27268
823.41	27020
823.55	26937
823.69	27161
823.83	26952
823.97	26925
824.11	26952
824.25	26967
824.389	26937
824.529	26998
824.669	26743
824.809	27047
824.949	26952
825.089	26967
825.228	27017
825.368	26857
825.508	26857
825.648	26895
825.787	26880
825.927	26838
826.067	26811
826.206	26811
826.346	26739
826.485	26743
826.625	26731
826.765	27036
826.904	26819
827.044	26609
827.183	26549
827.323	26571
827.462	26625
827.601	26499
827.741	26484
827.88	26659
828.02	26377
828.159	26552
828.298	26415
828.437	26552
828.577	26514
828.716	26697
828.855	26583
828.994	26309
829.134	26176
829.273	26164
829.412	26221
829.551	26058
829.69	26336
829.829	26142
829.968	26233
830.107	26282
830.246	26259
830.385	26122
830.524	26176
830.663	26024
830.802	25898
830.941	25894
831.08	25841
831.219	25947
831.357	25830
831.496	26069
831.635	25700
831.774	25693
831.913	25658
832.051	25712
832.19	25616
832.329	25624
832.467	25540
832.606	25499
832.744	25571
832.883	25548
833.022	25438
833.16	25590
833.299	25445
833.437	25441
833.576	25708
833.714	25655
833.852	25651
833.991	25594
834.129	25647
834.267	25674
834.406	25544
834.544	25487
834.682	25514
834.821	25525
834.959	25757
835.097	25499
835.235	25510
835.373	25582
835.511	25529
835.65	25479
835.788	25521
835.926	25266
836.064	25282
836.202	25160
836.34	25453
836.478	25510
836.615	25438
836.753	25381
836.891	25502
837.029	25533
837.167	25434
837.305	25308
837.443	25263
837.58	25247
837.718	25244
837.856	25301
837.993	25198
838.131	25175
838.269	25034
838.406	25008
838.544	24973
838.681	24905
838.819	24833
838.956	24707
839.094	24688
839.231	24753
839.369	24894
839.506	24977
839.643	24890
839.781	24772
839.918	24502
840.055	24525
840.193	24578
840.33	24738
840.467	24726
840.604	24521
840.742	24871
840.879	24502
841.016	24479
841.153	24608
841.29	24665
841.427	24601
841.564	24570
841.701	24608
841.838	24517
841.975	24517
842.112	24464
842.249	24410
842.385	24365
842.522	24551
842.659	24311
842.796	24174
842.933	24353
843.069	24319
843.206	24224
843.343	24289
843.479	24426
843.616	24327
843.752	24117
843.889	24194
844.025	24292
844.162	24049
844.298	24129
844.435	24213
844.571	24129
844.708	24060
844.844	24194
844.98	24197
845.117	24296
845.253	23958
845.389	24102
845.525	23977
845.661	23935
845.798	23779
845.934	23813
846.07	23817
846.206	23889
846.342	23893
846.478	23741
846.614	23547
846.75	23455
846.886	23482
847.022	23714
847.158	23520
847.294	23387
847.429	23657
847.565	23562
847.701	23767
847.837	23322
847.972	23269
848.108	23379
848.244	23482
848.379	23258
848.515	23071
848.65	23113
848.786	23124
848.921	23090
849.057	23212
849.192	23197
849.328	23318
849.463	23121
849.598	23064
849.734	23075
849.869	23060
850.004	22892
850.14	22938
850.275	22831
850.41	22854
850.545	22873
850.68	22854
850.815	22976
850.95	22938
851.085	23117
851.22	23060
851.355	22816
851.49	22923
851.625	22858
851.76	22733
851.895	22778
852.03	22809
852.165	22824
852.299	23029
852.434	22980
852.569	23003
852.703	22934
852.838	23022
852.973	23166
853.107	23109
853.242	22934
853.376	22759
853.511	22603
853.645	22721
853.78	22831
853.914	22672
854.048	22710
854.183	22729
854.317	22733
854.451	22816
854.585	22755
854.72	22683
854.854	22774
854.988	22634
855.122	22713
855.256	22603
855.39	22702
855.524	22675
855.658	22767
855.792	22721
855.926	22725
856.06	22748
856.194	22736
856.327	22694
856.461	22645
856.595	22679
856.729	22759
856.862	22694
856.996	22733
857.13	22752
857.263	22847
857.397	22816
857.53	22698
857.664	22831
857.797	22778
857.931	22740
858.064	22721
858.197	22831
858.331	22664
858.464	22744
858.597	22519
858.731	22580
858.864	22675
858.997	22763
859.13	22580
859.263	22599
859.396	22805
859.529	22713
859.662	22675
859.795	22672
859.928	22702
860.061	22847
860.194	22862
860.327	22744
860.46	22679
860.592	22873
860.725	22771
860.858	22854
860.99	22748
861.123	22691
861.256	22634
861.388	22717
861.521	23452
861.653	22641
861.786	22424
861.918	22512
862.05	22531
862.183	22512
862.315	22748
862.447	22771
862.58	22557
862.712	22318
862.844	22474
862.976	22447
863.108	22504
863.24	22790
863.372	22466
863.504	22538
863.636	22424
863.768	22474
863.9	22402
864.032	22421
864.164	22299
864.296	22531
864.428	22440
864.559	22443
864.691	22424
864.823	22432
864.954	22550
865.086	22329
865.217	22230
865.349	22230
865.48	22242
865.612	22238
865.743	22470
865.875	22402
866.006	22226
866.137	22257
866.269	22371
866.4	22325
866.531	22234
866.662	22230
866.793	22249
866.924	22181
867.055	22196
867.186	22204
867.317	22120
867.448	22230
867.579	22116
867.71	22063
867.841	22093
867.972	22188
868.103	22226
868.233	22158
868.364	22261
868.495	22272
868.625	22436
868.756	22489
868.886	22390
869.017	22440
869.147	22519
869.278	22554
869.408	22447
869.539	22478
869.669	22550
869.799	22512
869.929	22538
870.06	22599
870.19	22824
870.32	22683
870.45	22919
870.58	22809
870.71	22908
870.84	22904
870.97	22919
871.1	22854
871.23	22976
871.36	23006
871.489	22862
871.619	22987
871.749	22934
871.879	23128
872.008	23094
872.138	23155
872.267	22976
872.397	22873
872.526	22801
872.656	22934
872.785	22961
872.915	23109
873.044	23132
873.173	23006
873.303	23113
873.432	23124
873.561	23181
873.69	23037
873.819	23075
873.948	23223
874.077	23033
874.206	23006
874.335	23014
874.464	23254
874.593	23277
874.722	23166
874.851	23242
874.979	23391
875.108	23261
875.237	23250
875.365	23181
875.494	23170
875.623	23242
875.751	23220
875.88	23345
876.008	23406
876.136	23478
876.265	23668
876.393	23714
876.521	23642
876.65	23710
876.778	23695
876.906	23535
877.034	23573
877.162	23516
877.29	23646
877.418	23615
877.546	23661
877.674	23554
877.802	23646
877.93	23615
878.058	23551
878.185	23425
878.313	23619
878.441	23551
878.568	23315
878.696	23551
878.824	23714
878.951	23687
879.079	23783
879.206	23847
879.333	23824
879.461	23585
879.588	23646
879.715	23748
879.842	23882
879.97	23687
880.097	23471
880.224	23406
880.351	23474
880.478	23596
880.605	23292
880.732	23440
880.859	23608
880.986	23433
881.112	23501
881.239	23318
881.366	23094
881.493	23109
881.619	22923
881.746	23083
881.872	22980
881.999	23064
882.125	22900
882.252	22976
882.378	23086
882.505	23060
882.631	22904
882.757	22774
882.883	22782
883.01	22717
883.136	22653
883.262	22561
883.388	22580
883.514	22565
883.64	22748
883.766	22641
883.892	22348
884.018	22398
884.143	22531
884.269	22710
884.395	22402
884.52	22242
884.646	22348
884.772	22265
884.897	22230
885.023	22306
885.148	22409
885.274	22371
885.399	22352
885.524	22363
885.65	22211
885.775	22363
885.9	22211
886.025	22348
886.15	22481
886.275	22223
886.4	22188
886.525	22215
886.65	22249
886.775	22284
886.9	22356
887.025	22386
887.149	22280
887.274	22177
887.399	22082
887.523	21922
887.648	21968
887.773	21975
887.897	21983
888.021	22093
888.146	21998
888.27	22070
888.395	22074
888.519	21975
888.643	21994
888.767	22135
888.891	21979
889.015	21819
889.139	21922
889.263	21739
889.387	21854
889.511	21907
889.635	21915
889.759	21911
889.883	21781
890.006	21937
890.13	21835
890.254	21637
890.377	21637
890.501	21599
890.624	21587
890.748	21618
890.871	21454
890.995	21348
891.118	21313
891.241	21367
891.364	21325
891.488	21473
891.611	21313
891.734	21382
891.857	21477
891.98	21370
892.103	21408
892.226	21321
892.349	21268
892.471	21237
892.594	21321
892.717	21279
892.839	21275
892.962	21279
893.085	21306
893.207	21233
893.33	21123
893.452	21001
893.575	21287
893.697	21192
893.819	21355
893.941	21351
894.064	21279
894.186	21214
894.308	21230
894.43	21424
894.552	21435
894.674	21386
894.796	21192
894.918	21321
895.04	21260
895.161	21317
895.283	21230
895.405	21154
895.526	21214
895.648	21222
895.769	21260
895.891	21252
896.012	21260
896.134	21298
896.255	21310
896.376	21207
896.498	21157
896.619	21279
896.74	21226
896.861	21211
896.982	21405
897.103	21690
897.224	21367
897.345	21450
897.466	21492
897.587	21447
897.708	21545
897.828	21439
897.949	21424
898.07	21218
898.19	21450
898.311	21492
898.431	21370
898.552	21466
898.672	21542
898.792	21473
898.913	21386
899.033	21405
899.153	21245
899.273	21036
899.393	21310
899.513	21260
899.633	21207
899.753	21222
899.873	21188
899.993	21211
900.113	21051
900.232	21039
900.352	20963
900.472	20963
900.591	20857
900.711	20963
900.83	20872
900.95	20979
901.069	20994
901.189	20807
901.308	20514
901.427	20522
901.546	20488
901.665	20503
901.784	20587
901.904	20278
902.023	20195
902.141	20122
902.26	20077
902.379	20020
902.498	20016
902.617	19932
902.735	20020
902.854	20020
902.973	19841
903.091	19609
903.21	19647
903.328	19791
903.446	19556
903.565	19388
903.683	19491
903.801	19346
903.919	19472
904.038	19468
904.156	19141
904.274	19251
904.392	19266
904.51	19126
904.627	19145
904.745	19202
904.863	19259
904.981	19084
905.098	18894
905.216	18791
905.334	18905
905.451	18916
905.569	18916
905.686	18966
905.803	18882
905.921	18734
906.038	18684
906.155	18700
906.272	18608
906.389	18601
906.506	18327
906.623	18506
906.74	18338
906.857	18399
906.974	18285
907.091	18513
907.208	18456
907.324	18410
907.441	18334
907.557	18159
907.674	18114
907.79	17984
907.907	18053
908.023	18178
908.139	18167
908.256	17973
908.372	17958
908.488	17961
908.604	17813
908.72	17790
908.836	17882
908.952	17668
909.068	17885
909.184	17973
909.3	17840
909.415	17882
909.531	17809
909.647	17562
909.762	17448
909.878	17433
909.993	17596
910.108	17493
910.224	17459
910.339	17421
910.454	17372
910.57	17269
910.685	17277
910.8	17532
910.915	17474
911.03	17235
911.145	17121
911.259	17166
911.374	17113
911.489	16987
911.604	16987
911.718	16812
911.833	16801
911.947	16698
912.062	16660
912.176	16904
912.291	16889
912.405	16862
912.519	16911
912.633	16911
912.748	16946
912.862	16771
912.976	16637
913.09	16424
913.204	16573
913.318	16653
913.431	16797
913.545	16740
913.659	16767
913.772	16569
913.886	16474
914	16367
914.113	16462
914.226	16573
914.34	16451
914.453	16272
914.566	16382
914.68	16367
914.793	16268
914.906	16036
915.019	16036
915.132	15987
915.245	16071
915.358	16082
915.47	16017
915.583	16013
915.696	15998
915.809	16101
915.921	16120
916.034	15899
916.146	15953
916.259	15892
916.371	16040
916.483	15956
916.595	15846
916.708	15770
916.82	15827
916.932	15713
917.044	15701
917.156	15701
917.268	15606
917.38	15629
917.491	15534
917.603	15599
917.715	15660
917.826	15580
917.938	15545
918.049	15447
918.161	15488
918.272	15717
918.384	15663
918.495	15549
918.606	15393
918.717	15302
918.828	15378
918.939	15408
919.05	15192
919.161	15363
919.272	15074
919.383	15199
919.494	15374
919.604	15526
919.715	15401
919.826	15188
919.936	15233
920.047	15214
920.157	15291
920.267	15542
920.378	15351
920.488	15264
920.598	15458
920.708	15572
920.818	15351
920.928	15469
921.038	15675
921.148	15447
921.258	15264
921.368	15218
921.477	14967
921.587	14986
921.697	14880
921.806	15043
921.916	14902
922.025	14731
922.134	14686
922.244	14594
922.353	14720
922.462	14518
922.571	14450
922.68	14446
922.789	14271
922.898	14362
923.007	14290
923.116	14309
923.224	14339
923.333	14263
923.442	14168
923.55	14054
923.659	14130
923.767	14206
923.876	14073
923.984	14195
924.092	14081
924.201	14096
924.309	14005
924.417	13986
924.525	14016
924.633	13890
924.741	14716
924.849	13693
924.956	13909
925.064	13780
925.172	13632
925.279	13693
925.387	13685
925.494	13723
925.602	13765
925.709	13776
925.816	13506
925.924	13605
926.031	13677
926.138	13613
926.245	13632
926.352	13563
926.459	13655
926.566	13632
926.673	13537
926.779	13358
926.886	13331
926.993	13270
927.099	13213
927.206	13133
927.312	13206
927.419	13217
927.525	13164
927.631	13171
927.737	13088
927.843	13061
927.95	12901
928.056	13000
928.162	12954
928.267	13053
928.373	13734
928.479	13187
928.585	12859
928.69	12920
928.796	13015
928.901	12863
929.007	12745
929.112	12901
929.218	12791
929.323	12779
929.428	12719
929.533	12806
929.638	12620
929.743	12711
929.848	12700
929.953	12597
930.058	12532
930.163	12376
930.267	12323
930.372	12532
930.477	12346
930.581	12574
930.685	12395
930.79	12289
930.894	12338
930.998	12258
931.103	12426
931.207	12022
931.311	11931
931.415	11783
931.519	11596
931.623	11562
