Data from test_V78500241_1495.txt Node
Date: Fri Mar 25 15:52:09 CST 2022
User: usil
Spectrometer: V785-0024
Trigger mode: 0
Integration Time (sec): 4.000000E-1
Scans to average: 1
Nonlinearity correction enabled: false
Boxcar width: 0
Storing dark spectrum: false
XAxis mode: Wavelengths
Number of Pixels in Spectrum: 1024
>>>>>Begin Spectral Data<<<<<
801.071	27937
801.214	27983
801.356	27770
801.499	27648
801.641	27743
801.783	27523
801.926	27739
802.068	27462
802.211	27477
802.353	27412
802.496	27241
802.638	27256
802.78	27245
802.923	27055
803.065	27131
803.208	27237
803.35	27298
803.492	27310
803.635	27625
803.777	27359
803.919	27466
804.061	27679
804.204	27583
804.346	27416
804.488	27386
804.63	27557
804.773	27283
804.915	27462
805.057	27553
805.199	27397
805.341	27469
805.483	27618
805.626	27595
805.768	27405
805.91	27656
806.052	27622
806.194	27648
806.336	27797
806.478	27618
806.62	27705
806.762	27663
806.904	27831
807.046	28051
807.188	27930
807.33	27998
807.472	27987
807.614	27873
807.756	27994
807.898	27869
808.04	27739
808.182	27701
808.324	28048
808.465	27907
808.607	28120
808.749	28249
808.891	28432
809.033	28291
809.174	28261
809.316	28181
809.458	28253
809.6	28226
809.741	28367
809.883	28295
810.025	28611
810.166	28485
810.308	28546
810.45	28481
810.591	28401
810.733	28333
810.875	28173
811.016	28124
811.158	28181
811.299	28295
811.441	28394
811.582	28462
811.724	28207
811.865	28166
812.007	28166
812.148	28211
812.29	28280
812.431	28421
812.573	28535
812.714	28542
812.855	28847
812.997	28904
813.138	28953
813.279	28877
813.421	28763
813.562	28637
813.703	28519
813.845	28451
813.986	28242
814.127	28036
814.268	27778
814.41	28093
814.551	27827
814.692	27956
814.833	27686
814.974	27911
815.115	27857
815.256	27720
815.397	27846
815.539	27850
815.68	27660
815.821	27846
815.962	27774
816.103	27781
816.244	27591
816.385	27485
816.526	27485
816.666	27264
816.807	27256
816.948	27249
817.089	27272
817.23	27336
817.371	27154
817.512	27211
817.653	27241
817.793	27119
817.934	27214
818.075	27306
818.216	27230
818.356	27119
818.497	27039
818.638	26933
818.778	26998
818.919	27013
819.06	26975
819.2	27154
819.341	27093
819.481	27165
819.622	27374
819.762	27435
819.903	27466
820.043	27359
820.184	27416
820.324	27249
820.465	27504
820.605	27291
820.746	27245
820.886	27351
821.026	27207
821.167	27355
821.307	27367
821.447	27222
821.588	27161
821.728	26933
821.868	26963
822.008	26849
822.149	26651
822.289	26815
822.429	26438
822.569	26393
822.709	26358
822.849	26286
822.99	26294
823.13	26206
823.27	26145
823.41	25959
823.55	26062
823.69	26062
823.83	25947
823.97	26100
824.11	25803
824.25	25833
824.389	25803
824.529	25936
824.669	25864
824.809	26020
824.949	25898
825.089	26115
825.228	26001
825.368	25658
825.508	25776
825.648	25727
825.787	25791
825.927	25940
826.067	25738
826.206	25620
826.346	25719
826.485	25784
826.625	25750
826.765	25864
826.904	25594
827.044	25605
827.183	25548
827.323	25362
827.462	25521
827.601	25411
827.741	25350
827.88	25407
828.02	25327
828.159	25514
828.298	25453
828.437	25392
828.577	25304
828.716	25422
828.855	25415
828.994	25183
829.134	25107
829.273	25179
829.412	25126
829.551	25221
829.69	25217
829.829	25088
829.968	25301
830.107	25133
830.246	25240
830.385	25076
830.524	25012
830.663	24863
830.802	24932
830.941	24715
831.08	24757
831.219	24863
831.357	24741
831.496	24973
831.635	24677
831.774	24566
831.913	24475
832.051	24525
832.19	24544
832.329	24620
832.467	24448
832.606	24273
832.744	24338
832.883	24346
833.022	24365
833.16	24350
833.299	24479
833.437	24433
833.576	24509
833.714	24509
833.852	24509
833.991	24464
834.129	24559
834.267	24391
834.406	24574
834.544	24441
834.682	24319
834.821	24429
834.959	24707
835.097	24433
835.235	24593
835.373	24334
835.511	24429
835.65	24243
835.788	24308
835.926	24095
836.064	24144
836.202	24098
836.34	24270
836.478	24277
836.615	24194
836.753	24258
836.891	24319
837.029	24311
837.167	24174
837.305	24140
837.443	24194
837.58	24091
837.718	24258
837.856	24285
837.993	24167
838.131	24178
838.269	23901
838.406	24057
838.544	23942
838.681	23745
838.819	23832
838.956	23585
839.094	23623
839.231	23672
839.369	23893
839.506	23977
839.643	23786
839.781	23707
839.918	23490
840.055	23596
840.193	23417
840.33	23566
840.467	23581
840.604	23566
840.742	23710
840.879	23448
841.016	23482
841.153	23353
841.29	23657
841.427	23611
841.564	23516
841.701	23474
841.838	23452
841.975	23334
842.112	23421
842.249	23296
842.385	23220
842.522	23440
842.659	23421
842.796	23368
842.933	23341
843.069	23151
843.206	23174
843.343	23315
843.479	23296
843.616	23269
843.752	23086
843.889	23109
844.025	23235
844.162	23113
844.298	23105
844.435	23014
844.571	23147
844.708	23022
844.844	23246
844.98	23102
845.117	23204
845.253	23022
845.389	22999
845.525	23029
845.661	22919
845.798	22767
845.934	22824
846.07	22862
846.206	22733
846.342	22862
846.478	22729
846.614	22561
846.75	22329
846.886	22653
847.022	22618
847.158	22664
847.294	22436
847.429	22675
847.565	22379
847.701	22683
847.837	22219
847.972	22303
848.108	22272
848.244	22310
848.379	22181
848.515	22112
848.65	22147
848.786	22055
848.921	22166
849.057	22299
849.192	22196
849.328	22067
849.463	22128
849.598	22135
849.734	22059
849.869	21964
850.004	21949
850.14	21857
850.275	21846
850.41	21797
850.545	21812
850.68	21762
850.815	21892
850.95	21774
851.085	22044
851.22	22044
851.355	21899
851.49	21778
851.625	21770
851.76	21835
851.895	21880
852.03	21873
852.165	21838
852.299	21842
852.434	21854
852.569	21907
852.703	21861
852.838	21968
852.973	22048
853.107	21895
853.242	21800
853.376	21804
853.511	21679
853.645	21690
853.78	21846
853.914	21770
854.048	21667
854.183	21663
854.317	21770
854.451	21895
854.585	21709
854.72	21743
854.854	21781
854.988	21534
855.122	21717
855.256	21599
855.39	21641
855.524	21789
855.658	21671
855.792	21679
855.926	21583
856.06	21766
856.194	21854
856.327	21614
856.461	21542
856.595	21595
856.729	21637
856.862	21656
856.996	21739
857.13	21781
857.263	21720
857.397	21854
857.53	21587
857.664	21720
857.797	21739
857.931	21827
858.064	21701
858.197	21797
858.331	21766
858.464	21610
858.597	21599
858.731	21698
858.864	21675
858.997	21610
859.13	21675
859.263	21652
859.396	21774
859.529	21515
859.662	21656
859.795	21587
859.928	21778
860.061	21785
860.194	21934
860.327	21774
860.46	21831
860.592	21747
860.725	21869
860.858	21762
860.99	21629
861.123	21614
861.256	21603
861.388	21755
861.521	22459
861.653	21488
861.786	21481
861.918	21469
862.05	21511
862.183	21583
862.315	21580
862.447	21663
862.58	21663
862.712	21416
862.844	21359
862.976	21519
863.108	21450
863.24	21819
863.372	21397
863.504	21435
863.636	21382
863.768	21450
863.9	21454
864.032	21332
864.164	21408
864.296	21420
864.428	21507
864.559	21454
864.691	21492
864.823	21431
864.954	21389
865.086	21386
865.217	21222
865.349	21275
865.48	21313
865.612	21329
865.743	21454
865.875	21294
866.006	21180
866.137	21370
866.269	21264
866.4	21058
866.531	21351
866.662	21199
866.793	21211
866.924	21135
867.055	21408
867.186	21256
867.317	21089
867.448	21093
867.579	21306
867.71	21211
867.841	21131
867.972	21165
868.103	21127
868.233	21184
868.364	21241
868.495	21408
868.625	21428
868.756	21492
868.886	21454
869.017	21431
869.147	21488
869.278	21469
869.408	21454
869.539	21367
869.669	21481
869.799	21431
869.929	21545
870.06	21629
870.19	21812
870.32	21953
870.45	21797
870.58	21869
870.71	21934
870.84	21991
870.97	21831
871.1	21789
871.23	22025
871.36	22013
871.489	21888
871.619	22051
871.749	22044
871.879	22154
872.008	22200
872.138	21979
872.267	22044
872.397	21979
872.526	21960
872.656	21983
872.785	21926
872.915	22044
873.044	22147
873.173	22090
873.303	22109
873.432	22249
873.561	22097
873.69	22242
873.819	22017
873.948	22154
874.077	22021
874.206	22010
874.335	21968
874.464	22211
874.593	22329
874.722	22390
874.851	22287
874.979	22303
875.108	22329
875.237	22310
875.365	22246
875.494	22379
875.623	22344
875.751	22268
875.88	22375
876.008	22466
876.136	22443
876.265	22645
876.393	22923
876.521	22755
876.65	22687
876.778	22622
876.906	22656
877.034	22668
877.162	22615
877.29	22626
877.418	22580
877.546	22656
877.674	22641
877.802	22675
877.93	22653
878.058	22729
878.185	22481
878.313	22584
878.441	22763
878.568	22363
878.696	22478
878.824	22733
878.951	22717
879.079	22847
879.206	22843
879.333	22824
879.461	22733
879.588	22831
879.715	22866
879.842	22927
879.97	22744
880.097	22508
880.224	22508
880.351	22413
880.478	22500
880.605	22417
880.732	22455
880.859	22698
880.986	22554
881.112	22451
881.239	22360
881.366	22253
881.493	22192
881.619	22128
881.746	21972
881.872	21953
881.999	22055
882.125	21991
882.252	22109
882.378	21983
882.505	22086
882.631	21922
882.757	21835
882.883	21800
883.01	21793
883.136	21774
883.262	21629
883.388	21561
883.514	21724
883.64	21823
883.766	21618
883.892	21568
884.018	21606
884.143	21625
884.269	21705
884.395	21469
884.52	21325
884.646	21351
884.772	21378
884.897	21313
885.023	21298
885.148	21473
885.274	21591
885.399	21443
885.524	21363
885.65	21435
885.775	21367
885.9	21302
886.025	21530
886.15	21519
886.275	21291
886.4	21260
886.525	21272
886.65	21310
886.775	21313
886.9	21492
887.025	21553
887.149	21252
887.274	21020
887.399	21142
887.523	21058
887.648	21188
887.773	21131
887.897	21203
888.021	21192
888.146	21032
888.27	21230
888.395	21176
888.519	21077
888.643	21184
888.767	21275
888.891	21074
889.015	20925
889.139	20990
889.263	20933
889.387	21039
889.511	21066
889.635	21017
889.759	20857
889.883	20910
890.006	20925
890.13	21093
890.254	20773
890.377	20952
890.501	20598
890.624	20621
890.748	20754
890.871	20545
890.995	20476
891.118	20400
891.241	20533
891.364	20651
891.488	20571
891.611	20518
891.734	20400
891.857	20583
891.98	20552
892.103	20518
892.226	20434
892.349	20457
892.471	20374
892.594	20450
892.717	20446
892.839	20370
892.962	20423
893.085	20526
893.207	20377
893.33	20423
893.452	20202
893.575	20442
893.697	20301
893.819	20579
893.941	20617
894.064	20579
894.186	20385
894.308	20355
894.43	20351
894.552	20537
894.674	20545
894.796	20290
894.918	20298
895.04	20309
895.161	20381
895.283	20396
895.405	20237
895.526	20366
895.648	20396
895.769	20427
895.891	20328
896.012	20537
896.134	20404
896.255	20267
896.376	20294
896.498	20396
896.619	20431
896.74	20256
896.861	20499
896.982	20800
897.103	20834
897.224	20674
897.345	20640
897.466	20575
897.587	20602
897.708	20682
897.828	20674
897.949	20609
898.07	20374
898.19	20522
898.311	20758
898.431	20488
898.552	20686
898.672	20693
898.792	20686
898.913	20727
899.033	20499
899.153	20412
899.273	20263
899.393	20404
899.513	20412
899.633	20423
899.753	20347
899.873	20313
899.993	20385
900.113	20355
900.232	20286
900.352	20244
900.472	20183
900.591	20107
900.711	20149
900.83	20039
900.95	20218
901.069	20134
901.189	20016
901.308	19750
901.427	19849
901.546	19647
901.665	19643
901.784	19719
901.904	19578
902.023	19449
902.141	19244
902.26	19388
902.379	19384
902.498	19304
902.617	19202
902.735	19187
902.854	19118
902.973	19164
903.091	18901
903.21	18973
903.328	18882
903.446	18871
903.565	18593
903.683	18776
903.801	18616
903.919	18650
904.038	18585
904.156	18384
904.274	18433
904.392	18399
904.51	18445
904.627	18441
904.745	18502
904.863	18407
904.981	18254
905.098	18110
905.216	18114
905.334	18277
905.451	18057
905.569	18125
905.686	18125
905.803	18110
905.921	17893
906.038	18095
906.155	17992
906.272	17745
906.389	17878
906.506	17687
906.623	17581
906.74	17661
906.857	17547
906.974	17547
907.091	17646
907.208	17786
907.324	17718
907.441	17554
907.557	17303
907.674	17341
907.79	17406
907.907	17299
908.023	17444
908.139	17429
908.256	17334
908.372	17246
908.488	17284
908.604	17258
908.72	17071
908.836	17109
908.952	17067
909.068	17079
909.184	17155
909.3	17052
909.415	17079
909.531	17022
909.647	16911
909.762	16809
909.878	16774
909.993	16820
910.108	16687
910.224	16752
910.339	16793
910.454	16592
910.57	16607
910.685	16500
910.8	16763
910.915	16725
911.03	16523
911.145	16462
911.259	16382
911.374	16360
911.489	16299
911.604	16348
911.718	16101
911.833	16124
911.947	16032
912.062	16002
912.176	16211
912.291	16238
912.405	16109
912.519	16341
912.633	16379
912.748	16135
912.862	16067
912.976	16025
913.09	15838
913.204	15911
913.318	15956
913.431	15915
913.545	16059
913.659	16010
913.772	15888
913.886	15717
914	15686
914.113	15759
914.226	15766
914.34	15759
914.453	15648
914.566	15717
914.68	15660
914.793	15622
914.906	15500
915.019	15298
915.132	15302
915.245	15405
915.358	15310
915.47	15264
915.583	15291
915.696	15336
915.809	15496
915.921	15477
916.034	15329
916.146	15252
916.259	15256
916.371	15405
916.483	15188
916.595	15184
916.708	15161
916.82	15245
916.932	15135
917.044	15154
917.156	15074
917.268	14941
917.38	15028
917.491	14998
917.603	14979
917.715	15001
917.826	15142
917.938	14883
918.049	14872
918.161	14864
918.272	14975
918.384	14918
918.495	14910
918.606	14705
918.717	14769
918.828	14807
918.939	14697
919.05	14617
919.161	14716
919.272	14442
919.383	14526
919.494	14815
919.604	14929
919.715	14701
919.826	14644
919.936	14648
920.047	14655
920.157	14655
920.267	14872
920.378	14659
920.488	14708
920.598	14887
920.708	14986
920.818	14773
920.928	14811
921.038	14937
921.148	14895
921.258	14541
921.368	14621
921.477	14457
921.587	14419
921.697	14256
921.806	14389
921.916	14286
922.025	14161
922.134	13993
922.244	13993
922.353	14039
922.462	13909
922.571	13928
922.68	13769
922.789	13674
922.898	13871
923.007	13647
923.116	13769
923.224	13632
923.333	13594
923.442	13594
923.55	13468
923.659	13594
923.767	13601
923.876	13434
923.984	13537
924.092	13445
924.201	13468
924.309	13430
924.417	13480
924.525	13377
924.633	13415
924.741	14305
924.849	13194
924.956	13289
925.064	13183
925.172	13095
925.279	13110
925.387	13187
925.494	13149
925.602	13209
925.709	13171
925.816	13027
925.924	13023
926.031	13050
926.138	13042
926.245	13069
926.352	12970
926.459	13091
926.566	13110
926.673	12981
926.779	12844
926.886	12901
926.993	12787
927.099	12658
927.206	12745
927.312	12620
927.419	12730
927.525	12665
927.631	12665
927.737	12536
927.843	12502
927.95	12376
928.056	12452
928.162	12547
928.267	12521
928.373	13206
928.479	12521
928.585	12353
928.69	12513
928.796	12517
928.901	12395
929.007	12197
929.112	12277
929.218	12251
929.323	12273
929.428	12251
929.533	12361
929.638	12102
929.743	12163
929.848	12220
929.953	12114
930.058	12098
930.163	11897
930.267	11870
930.372	12053
930.477	11866
930.581	12133
930.685	12045
930.79	11764
930.894	11836
930.998	11748
931.103	11939
931.207	11478
931.311	11376
931.415	11398
931.519	11223
931.623	11071
