Data from test_V78500241_1726.txt Node
Date: Fri Mar 25 15:53:45 CST 2022
User: usil
Spectrometer: V785-0024
Trigger mode: 0
Integration Time (sec): 4.000000E-1
Scans to average: 1
Nonlinearity correction enabled: false
Boxcar width: 0
Storing dark spectrum: false
XAxis mode: Wavelengths
Number of Pixels in Spectrum: 1024
>>>>>Begin Spectral Data<<<<<
801.071	28265
801.214	28135
801.356	28093
801.499	28078
801.641	27800
801.783	27778
801.926	27903
802.068	27770
802.211	27842
802.353	27705
802.496	27599
802.638	27641
802.78	27481
802.923	27447
803.065	27405
803.208	27534
803.35	27553
803.492	27686
803.635	27759
803.777	27568
803.919	27850
804.061	28086
804.204	27743
804.346	27690
804.488	27610
804.63	27808
804.773	27641
804.915	27823
805.057	27823
805.199	27603
805.341	27835
805.483	27998
805.626	27804
805.768	27812
805.91	27994
806.052	27895
806.194	27827
806.336	28109
806.478	27857
806.62	28036
806.762	28048
806.904	28154
807.046	28363
807.188	28337
807.33	28265
807.472	28462
807.614	28272
807.756	28466
807.898	28204
808.04	28097
808.182	28192
808.324	28200
808.465	28333
808.607	28382
808.749	28577
808.891	28618
809.033	28599
809.174	28698
809.316	28546
809.458	28622
809.6	28554
809.741	28588
809.883	28649
810.025	28866
810.166	28831
810.308	28847
810.45	28835
810.591	28778
810.733	28683
810.875	28626
811.016	28352
811.158	28500
811.299	28721
811.441	28797
811.582	28649
811.724	28755
811.865	28573
812.007	28565
812.148	28481
812.29	28687
812.431	28782
812.573	28850
812.714	29022
812.855	29048
812.997	29102
813.138	29387
813.279	29239
813.421	29048
813.562	29022
813.703	28850
813.845	28790
813.986	28565
814.127	28497
814.268	28303
814.41	28226
814.551	28268
814.692	28341
814.833	28268
814.974	28257
815.115	28284
815.256	28150
815.397	28265
815.539	28078
815.68	27994
815.821	27918
815.962	28120
816.103	27964
816.244	27922
816.385	27854
816.526	27728
816.666	27656
816.807	27587
816.948	27606
817.089	27728
817.23	27553
817.371	27610
817.512	27534
817.653	27637
817.793	27496
817.934	27629
818.075	27542
818.216	27618
818.356	27553
818.497	27561
818.638	27302
818.778	27275
818.919	27473
819.06	27340
819.2	27473
819.341	27644
819.481	27610
819.622	27644
819.762	27884
819.903	27759
820.043	27686
820.184	27622
820.324	27720
820.465	27823
820.605	27606
820.746	27663
820.886	27622
821.026	27606
821.167	27682
821.307	27789
821.447	27572
821.588	27545
821.728	27329
821.868	27211
822.008	27135
822.149	27005
822.289	26921
822.429	26880
822.569	26659
822.709	26674
822.849	26473
822.99	26545
823.13	26522
823.27	26415
823.41	26286
823.55	26202
823.69	26374
823.83	26385
823.97	26191
824.11	26290
824.25	26149
824.389	26267
824.529	26244
824.669	26320
824.809	26317
824.949	26385
825.089	26286
825.228	26233
825.368	26058
825.508	26149
825.648	26062
825.787	26073
825.927	26157
826.067	26016
826.206	26096
826.346	26176
826.485	26157
826.625	25997
826.765	26115
826.904	26142
827.044	25890
827.183	25742
827.323	25715
827.462	25704
827.601	25799
827.741	25742
827.88	25906
828.02	25655
828.159	25795
828.298	25822
828.437	25875
828.577	25639
828.716	25868
828.855	25643
828.994	25506
829.134	25529
829.273	25434
829.412	25453
829.551	25324
829.69	25457
829.829	25540
829.968	25472
830.107	25491
830.246	25441
830.385	25381
830.524	25362
830.663	25183
830.802	25141
830.941	25072
831.08	25042
831.219	25168
831.357	25156
831.496	25221
831.635	25076
831.774	25000
831.913	24954
832.051	24897
832.19	24985
832.329	24966
832.467	24852
832.606	24779
832.744	24734
832.883	24840
833.022	24665
833.16	24760
833.299	24795
833.437	24688
833.576	24833
833.714	24726
833.852	24871
833.991	24878
834.129	25000
834.267	24810
834.406	24783
834.544	24703
834.682	24962
834.821	24745
834.959	24806
835.097	24623
835.235	24939
835.373	24829
835.511	24817
835.65	24768
835.788	24673
835.926	24399
836.064	24486
836.202	24601
836.34	24635
836.478	24753
836.615	24612
836.753	24604
836.891	24700
837.029	24669
837.167	24486
837.305	24486
837.443	24650
837.58	24490
837.718	24601
837.856	24448
837.993	24365
838.131	24441
838.269	24437
838.406	24380
838.544	24285
838.681	24167
838.819	24117
838.956	23942
839.094	23885
839.231	24030
839.369	24068
839.506	24216
839.643	24247
839.781	24011
839.918	23893
840.055	24003
840.193	23939
840.33	23824
840.467	23802
840.604	23946
840.742	24125
840.879	23805
841.016	23672
841.153	23691
841.29	24041
841.427	23885
841.564	23680
841.701	23737
841.838	23828
841.975	23691
842.112	23779
842.249	23699
842.385	23592
842.522	23783
842.659	23691
842.796	23596
842.933	23486
843.069	23577
843.206	23482
843.343	23741
843.479	23627
843.616	23592
843.752	23337
843.889	23353
844.025	23528
844.162	23318
844.298	23326
844.435	23417
844.571	23376
844.708	23402
844.844	23459
844.98	23455
845.117	23512
845.253	23318
845.389	23216
845.525	23452
845.661	23181
845.798	23048
845.934	23109
846.07	23117
846.206	23094
846.342	23166
846.478	22995
846.614	22995
846.75	22805
846.886	22752
847.022	22797
847.158	22873
847.294	22987
847.429	22850
847.565	22809
847.701	23102
847.837	22565
847.972	22500
848.108	22679
848.244	22546
848.379	22546
848.515	22428
848.65	22352
848.786	22523
848.921	22413
849.057	22569
849.192	22478
849.328	22588
849.463	22382
849.598	22512
849.734	22409
849.869	22303
850.004	22242
850.14	22314
850.275	22120
850.41	22090
850.545	22029
850.68	22185
850.815	22154
850.95	22086
851.085	22409
851.22	22386
851.355	22147
851.49	22139
851.625	22074
851.76	22139
851.895	22051
852.03	22055
852.165	22280
852.299	22143
852.434	22204
852.569	22128
852.703	22242
852.838	22196
852.973	22295
853.107	22234
853.242	22143
853.376	21918
853.511	21903
853.645	21915
853.78	22013
853.914	22032
854.048	21934
854.183	21930
854.317	22010
854.451	22097
854.585	21926
854.72	22044
854.854	22097
854.988	21979
855.122	22086
855.256	21945
855.39	21975
855.524	22112
855.658	22032
855.792	21987
855.926	22006
856.06	22131
856.194	22044
856.327	22124
856.461	21968
856.595	21895
856.729	21953
856.862	22105
856.996	22147
857.13	22044
857.263	22238
857.397	22093
857.53	22055
857.664	22093
857.797	22097
857.931	21994
858.064	22051
858.197	22109
858.331	22048
858.464	21979
858.597	21888
858.731	21972
858.864	21983
858.997	21941
859.13	21861
859.263	21930
859.396	22120
859.529	21884
859.662	22112
859.795	21968
859.928	22025
860.061	22082
860.194	22242
860.327	21911
860.46	22059
860.592	22139
860.725	22211
860.858	22185
860.99	21975
861.123	21861
861.256	21884
861.388	22010
861.521	22774
861.653	21797
861.786	21823
861.918	21903
862.05	21831
862.183	21842
862.315	21953
862.447	21975
862.58	22002
862.712	21736
862.844	21675
862.976	21694
863.108	21709
863.24	22097
863.372	21564
863.504	21808
863.636	21747
863.768	21793
863.9	21717
864.032	21580
864.164	21637
864.296	21656
864.428	21831
864.559	21698
864.691	21690
864.823	21800
864.954	21736
865.086	21694
865.217	21618
865.349	21606
865.48	21606
865.612	21694
865.743	21648
865.875	21648
866.006	21519
866.137	21545
866.269	21545
866.4	21496
866.531	21557
866.662	21534
866.793	21496
866.924	21564
867.055	21420
867.186	21614
867.317	21542
867.448	21485
867.579	21504
867.71	21466
867.841	21370
867.972	21511
868.103	21519
868.233	21553
868.364	21553
868.495	21625
868.625	21724
868.756	21873
868.886	21762
869.017	21717
869.147	21781
869.278	21823
869.408	21842
869.539	21846
869.669	21804
869.799	21903
869.929	21930
870.06	21808
870.19	22135
870.32	22040
870.45	22044
870.58	22166
870.71	22382
870.84	22230
870.97	22105
871.1	22044
871.23	22360
871.36	22337
871.489	22158
871.619	22249
871.749	22402
871.879	22280
872.008	22584
872.138	22413
872.267	22428
872.397	22242
872.526	22139
872.656	22158
872.785	22147
872.915	22272
873.044	22413
873.173	22379
873.303	22493
873.432	22599
873.561	22508
873.69	22386
873.819	22367
873.948	22535
874.077	22303
874.206	22405
874.335	22344
874.464	22504
874.593	22630
874.722	22440
874.851	22603
874.979	22656
875.108	22622
875.237	22554
875.365	22519
875.494	22546
875.623	22641
875.751	22516
875.88	22634
876.008	22786
876.136	22790
876.265	22987
876.393	23143
876.521	23075
876.65	23105
876.778	23003
876.906	23003
877.034	22881
877.162	22934
877.29	23014
877.418	22896
877.546	22980
877.674	23041
877.802	22900
877.93	22892
878.058	22900
878.185	22778
878.313	22900
878.441	22839
878.568	22626
878.696	22820
878.824	23014
878.951	22972
879.079	23223
879.206	23128
879.333	23037
879.461	22923
879.588	23025
879.715	23242
879.842	23212
879.97	23022
880.097	22782
880.224	22759
880.351	22816
880.478	22801
880.605	22752
880.732	22706
880.859	23010
880.986	22763
881.112	22668
881.239	22691
881.366	22421
881.493	22470
881.619	22409
881.746	22352
881.872	22337
881.999	22371
882.125	22112
882.252	22329
882.378	22310
882.505	22440
882.631	22207
882.757	22173
882.883	22226
883.01	22025
883.136	21964
883.262	21895
883.388	21835
883.514	22185
883.64	22025
883.766	21941
883.892	21785
884.018	21800
884.143	21903
884.269	22093
884.395	21797
884.52	21591
884.646	21622
884.772	21492
884.897	21542
885.023	21686
885.148	21774
885.274	21797
885.399	21709
885.524	21576
885.65	21671
885.775	21705
885.9	21736
886.025	21865
886.15	21770
886.275	21435
886.4	21572
886.525	21576
886.65	21549
886.775	21553
886.9	21679
887.025	21804
887.149	21625
887.274	21462
887.399	21462
887.523	21443
887.648	21344
887.773	21329
887.897	21416
888.021	21431
888.146	21332
888.27	21504
888.395	21587
888.519	21431
888.643	21420
888.767	21359
888.891	21325
889.015	21264
889.139	21195
889.263	21298
889.387	21393
889.511	21374
889.635	21294
889.759	21207
889.883	21226
890.006	21161
890.13	21291
890.254	21096
890.377	21154
890.501	21028
890.624	20902
890.748	21020
890.871	20876
890.995	20804
891.118	20670
891.241	20735
891.364	20746
891.488	20773
891.611	20701
891.734	20788
891.857	20853
891.98	20769
892.103	20876
892.226	20746
892.349	20735
892.471	20655
892.594	20682
892.717	20640
892.839	20667
892.962	20758
893.085	20686
893.207	20640
893.33	20655
893.452	20522
893.575	20697
893.697	20632
893.819	20807
893.941	20800
894.064	20849
894.186	20492
894.308	20545
894.43	20815
894.552	20834
894.674	20682
894.796	20708
894.918	20583
895.04	20629
895.161	20769
895.283	20659
895.405	20541
895.526	20754
895.648	20659
895.769	20804
895.891	20636
896.012	20629
896.134	20727
896.255	20606
896.376	20625
896.498	20697
896.619	20769
896.74	20613
896.861	20720
896.982	21024
897.103	21157
897.224	20872
897.345	21017
897.466	20762
897.587	20826
897.708	21085
897.828	20815
897.949	20914
898.07	20769
898.19	20769
898.311	20864
898.431	20807
898.552	20788
898.672	20960
898.792	21005
898.913	20842
899.033	20743
899.153	20648
899.273	20522
899.393	20670
899.513	20648
899.633	20697
899.753	20667
899.873	20575
899.993	20727
900.113	20511
900.232	20587
900.352	20556
900.472	20492
900.591	20419
900.711	20393
900.83	20415
900.95	20389
901.069	20400
901.189	20214
901.308	20027
901.427	20081
901.546	20081
901.665	19921
901.784	19993
901.904	19928
902.023	19807
902.141	19655
902.26	19449
902.379	19590
902.498	19419
902.617	19483
902.735	19510
902.854	19411
902.973	19453
903.091	19255
903.21	19114
903.328	19175
903.446	19061
903.565	19004
903.683	18981
903.801	18848
903.919	19008
904.038	18848
904.156	18688
904.274	18738
904.392	18741
904.51	18646
904.627	18692
904.745	18681
904.863	18844
904.981	18589
905.098	18338
905.216	18388
905.334	18437
905.451	18486
905.569	18410
905.686	18426
905.803	18517
905.921	18273
906.038	18254
906.155	18296
906.272	18136
906.389	18102
906.506	17870
906.623	17870
906.74	17828
906.857	17874
906.974	17775
907.091	18015
907.208	18019
907.324	17950
907.441	17726
907.557	17634
907.674	17615
907.79	17665
907.907	17512
908.023	17695
908.139	17627
908.256	17627
908.372	17619
908.488	17478
908.604	17425
908.72	17398
908.836	17288
908.952	17315
909.068	17444
909.184	17410
909.3	17231
909.415	17372
909.531	17254
909.647	17102
909.762	16949
909.878	16980
909.993	17090
910.108	16999
910.224	17052
910.339	17010
910.454	16809
910.57	16835
910.685	16824
910.8	17136
910.915	17006
911.03	16843
911.145	16626
911.259	16641
911.374	16630
911.489	16565
911.604	16588
911.718	16367
911.833	16398
911.947	16211
912.062	16322
912.176	16398
912.291	16329
912.405	16371
912.519	16554
912.633	16584
912.748	16386
912.862	16253
912.976	16348
913.09	16051
913.204	16185
913.318	16188
913.431	16257
913.545	16223
913.659	16200
913.772	16097
913.886	15975
914	15994
914.113	16082
914.226	16006
914.34	16071
914.453	15873
914.566	15903
914.68	15869
914.793	15778
914.906	15724
915.019	15591
915.132	15629
915.245	15622
915.358	15580
915.47	15564
915.583	15557
915.696	15538
915.809	15591
915.921	15762
916.034	15523
916.146	15462
916.259	15458
916.371	15614
916.483	15477
916.595	15428
916.708	15405
916.82	15405
916.932	15344
917.044	15241
917.156	15355
917.268	15173
917.38	15313
917.491	15260
917.603	15108
917.715	15249
917.826	15321
917.938	15108
918.049	15077
918.161	15169
918.272	15260
918.384	15256
918.495	15203
918.606	14933
918.717	14941
918.828	14975
918.939	15017
919.05	14857
919.161	14929
919.272	14823
919.383	14804
919.494	14986
919.604	15146
919.715	14876
919.826	14861
919.936	14804
920.047	15001
920.157	14937
920.267	15108
920.378	14979
920.488	14823
920.598	15036
920.708	15138
920.818	15024
920.928	15051
921.038	15218
921.148	15157
921.258	14918
921.368	14750
921.477	14651
921.587	14571
921.697	14651
921.806	14621
921.916	14552
922.025	14294
922.134	14290
922.244	14347
922.353	14263
922.462	14191
922.571	14020
922.68	14054
922.789	13967
922.898	13970
923.007	13887
923.116	13989
923.224	13875
923.333	13875
923.442	13761
923.55	13734
923.659	13666
923.767	13734
923.876	13696
923.984	13849
924.092	13666
924.201	13719
924.309	13624
924.417	13685
924.525	13510
924.633	13571
924.741	14229
924.849	13415
924.956	13472
925.064	13343
925.172	13247
925.279	13358
925.387	13324
925.494	13350
925.602	13403
925.709	13403
925.816	13251
925.924	13194
926.031	13403
926.138	13209
926.245	13244
926.352	13244
926.459	13381
926.566	13407
926.673	13164
926.779	13053
926.886	13088
926.993	12939
927.099	12932
927.206	12829
927.312	12844
927.419	12844
927.525	12897
927.631	12871
927.737	12772
927.843	12620
927.95	12559
928.056	12639
928.162	12677
928.267	12802
928.373	13392
928.479	12707
928.585	12486
928.69	12608
928.796	12768
928.901	12513
929.007	12479
929.112	12532
929.218	12407
929.323	12380
929.428	12315
929.533	12589
929.638	12311
929.743	12346
929.848	12467
929.953	12372
930.058	12281
930.163	12087
930.267	12098
930.372	12178
930.477	12038
930.581	12281
930.685	12087
930.79	11958
930.894	11984
930.998	11935
931.103	12026
931.207	11653
931.311	11661
931.415	11558
931.519	11436
931.623	11318
