Data from test_V78500241_491.txt Node
Date: Fri Mar 25 15:45:12 CST 2022
User: usil
Spectrometer: V785-0024
Trigger mode: 0
Integration Time (sec): 4.000000E-1
Scans to average: 1
Nonlinearity correction enabled: false
Boxcar width: 0
Storing dark spectrum: false
XAxis mode: Wavelengths
Number of Pixels in Spectrum: 1024
>>>>>Begin Spectral Data<<<<<
801.071	27344
801.214	27298
801.356	27009
801.499	27051
801.641	26868
801.783	26982
801.926	27028
802.068	26918
802.211	26716
802.353	26815
802.496	26670
802.638	26568
802.78	26480
802.923	26571
803.065	26434
803.208	26507
803.35	26476
803.492	26621
803.635	26682
803.777	26594
803.919	26663
804.061	26876
804.204	26648
804.346	26625
804.488	26522
804.63	26530
804.773	26571
804.915	26739
805.057	26602
805.199	26598
805.341	26712
805.483	26629
805.626	26746
805.768	26746
805.91	26720
806.052	26952
806.194	26651
806.336	26902
806.478	26876
806.62	26758
806.762	26838
806.904	27066
807.046	27233
807.188	27188
807.33	27055
807.472	27173
807.614	27199
807.756	27199
807.898	27017
808.04	26952
808.182	27005
808.324	26990
808.465	27062
808.607	27233
808.749	27340
808.891	27313
809.033	27549
809.174	27466
809.316	27378
809.458	27504
809.6	27408
809.741	27553
809.883	27622
810.025	27690
810.166	27603
810.308	27622
810.45	27591
810.591	27656
810.733	27526
810.875	27283
811.016	27302
811.158	27302
811.299	27488
811.441	27679
811.582	27564
811.724	27405
811.865	27302
812.007	27443
812.148	27252
812.29	27469
812.431	27488
812.573	27819
812.714	27850
812.855	27724
812.997	27907
813.138	28059
813.279	28070
813.421	27914
813.562	27869
813.703	27797
813.845	27679
813.986	27256
814.127	27157
814.268	27108
814.41	27024
814.551	27013
814.692	27116
814.833	26880
814.974	26963
815.115	26963
815.256	26887
815.397	26853
815.539	26864
815.68	26872
815.821	26674
815.962	26670
816.103	26811
816.244	26640
816.385	26579
816.526	26743
816.666	26507
816.807	26267
816.948	26275
817.089	26427
817.23	26408
817.371	26263
817.512	26377
817.653	26244
817.793	26183
817.934	26187
818.075	26298
818.216	26164
818.356	26271
818.497	26225
818.638	25940
818.778	26107
818.919	25826
819.06	25974
819.2	26119
819.341	26259
819.481	26134
819.622	26450
819.762	26602
819.903	26522
820.043	26530
820.184	26385
820.324	26408
820.465	26450
820.605	26427
820.746	26507
820.886	26088
821.026	26442
821.167	26355
821.307	26450
821.447	26267
821.588	26256
821.728	25963
821.868	25947
822.008	25738
822.149	25875
822.289	25613
822.429	25624
822.569	25327
822.709	25464
822.849	25232
822.99	25221
823.13	25255
823.27	25213
823.41	25069
823.55	25038
823.69	25129
823.83	25004
823.97	24996
824.11	24802
824.25	24852
824.389	24814
824.529	24958
824.669	24882
824.809	25019
824.949	24996
825.089	24913
825.228	24985
825.368	24658
825.508	24669
825.648	24867
825.787	24760
825.927	24871
826.067	24555
826.206	24688
826.346	24890
826.485	24787
826.625	24764
826.765	24738
826.904	24829
827.044	24502
827.183	24433
827.323	24338
827.462	24547
827.601	24502
827.741	24384
827.88	24460
828.02	24391
828.159	24445
828.298	24483
828.437	24460
828.577	24334
828.716	24464
828.855	24323
828.994	24155
829.134	24125
829.273	24205
829.412	24140
829.551	24030
829.69	24114
829.829	24076
829.968	24224
830.107	24174
830.246	24209
830.385	24216
830.524	24098
830.663	23863
830.802	23893
830.941	23794
831.08	23737
831.219	23718
831.357	23809
831.496	23904
831.635	23714
831.774	23775
831.913	23646
832.051	23585
832.19	23493
832.329	23547
832.467	23368
832.606	23356
832.744	23376
832.883	23292
833.022	23334
833.16	23368
833.299	23497
833.437	23353
833.576	23455
833.714	23368
833.852	23490
833.991	23467
834.129	23490
834.267	23535
834.406	23436
834.544	23573
834.682	23425
834.821	23524
834.959	23653
835.097	23353
835.235	23509
835.373	23452
835.511	23577
835.65	23273
835.788	23315
835.926	23109
836.064	23060
836.202	23147
836.34	23334
836.478	23391
836.615	23337
836.753	23337
836.891	23368
837.029	23265
837.167	23334
837.305	23277
837.443	23277
837.58	23132
837.718	23159
837.856	23151
837.993	23185
838.131	23113
838.269	23006
838.406	23037
838.544	22930
838.681	22725
838.819	22824
838.956	22618
839.094	22561
839.231	22733
839.369	22797
839.506	23033
839.643	22980
839.781	22573
839.918	22523
840.055	22675
840.193	22596
840.33	22481
840.467	22436
840.604	22489
840.742	22877
840.879	22394
841.016	22455
841.153	22481
841.29	22630
841.427	22367
841.564	22527
841.701	22459
841.838	22424
841.975	22451
842.112	22379
842.249	22489
842.385	22268
842.522	22462
842.659	22265
842.796	22181
842.933	22204
843.069	22192
843.206	22272
843.343	22367
843.479	22337
843.616	22166
843.752	21983
843.889	21994
844.025	22139
844.162	22078
844.298	22044
844.435	22025
844.571	22059
844.708	22086
844.844	22246
844.98	22246
845.117	22128
845.253	21983
845.389	21972
845.525	21964
845.661	21895
845.798	21797
845.934	21804
846.07	21800
846.206	21903
846.342	21884
846.478	21724
846.614	21667
846.75	21507
846.886	21485
847.022	21530
847.158	21591
847.294	21568
847.429	21553
847.565	21542
847.701	21736
847.837	21329
847.972	21150
848.108	21298
848.244	21363
848.379	21028
848.515	21017
848.65	21089
848.786	21096
848.921	21252
849.057	21211
849.192	21291
849.328	21062
849.463	21207
849.598	21013
849.734	21055
849.869	20952
850.004	20925
850.14	20826
850.275	20876
850.41	20773
850.545	20830
850.68	20811
850.815	20895
850.95	20834
851.085	21066
851.22	20967
851.355	20697
851.49	20819
851.625	20853
851.76	20796
851.895	20697
852.03	20659
852.165	20849
852.299	20921
852.434	21028
852.569	20910
852.703	20899
852.838	20994
852.973	21043
853.107	20842
853.242	20849
853.376	20689
853.511	20537
853.645	20651
853.78	20864
853.914	20708
854.048	20602
854.183	20720
854.317	20705
854.451	20982
854.585	20594
854.72	20807
854.854	20686
854.988	20678
855.122	20788
855.256	20644
855.39	20579
855.524	20849
855.658	20674
855.792	20648
855.926	20667
856.06	20705
856.194	20861
856.327	20682
856.461	20746
856.595	20583
856.729	20648
856.862	20785
856.996	20724
857.13	20724
857.263	20807
857.397	20720
857.53	20545
857.664	20937
857.797	20724
857.931	20880
858.064	20762
858.197	20823
858.331	20655
858.464	20648
858.597	20609
858.731	20609
858.864	20659
858.997	20659
859.13	20674
859.263	20670
859.396	20724
859.529	20522
859.662	20765
859.795	20705
859.928	20682
860.061	20849
860.194	20819
860.327	20807
860.46	20682
860.592	20773
860.725	20830
860.858	20842
860.99	20682
861.123	20602
861.256	20564
861.388	20697
861.521	21386
861.653	20632
861.786	20503
861.918	20480
862.05	20571
862.183	20541
862.315	20731
862.447	20701
862.58	20606
862.712	20355
862.844	20301
862.976	20575
863.108	20442
863.24	20902
863.372	20286
863.504	20564
863.636	20423
863.768	20404
863.9	20476
864.032	20385
864.164	20339
864.296	20484
864.428	20503
864.559	20442
864.691	20434
864.823	20404
864.954	20404
865.086	20282
865.217	20252
865.349	20214
865.48	20252
865.612	20305
865.743	20404
865.875	20465
866.006	20244
866.137	20290
866.269	20404
866.4	20511
866.531	20214
866.662	20294
866.793	20298
866.924	20355
867.055	20187
867.186	20286
867.317	20161
867.448	20191
867.579	20214
867.71	20138
867.841	20210
867.972	20161
868.103	20145
868.233	20294
868.364	20263
868.495	20412
868.625	20415
868.756	20579
868.886	20358
869.017	20480
869.147	20644
869.278	20625
869.408	20552
869.539	20415
869.669	20568
869.799	20484
869.929	20701
870.06	20465
870.19	20663
870.32	20899
870.45	20788
870.58	20815
870.71	20975
870.84	20986
870.97	20918
871.1	20864
871.23	21192
871.36	20986
871.489	20979
871.619	21085
871.749	21146
871.879	21108
872.008	21161
872.138	20982
872.267	21123
872.397	20941
872.526	20861
872.656	20895
872.785	20929
872.915	21020
873.044	21146
873.173	21157
873.303	21154
873.432	21093
873.561	21074
873.69	21077
873.819	21017
873.948	21203
874.077	21180
874.206	21039
874.335	21127
874.464	21199
874.593	21420
874.722	21359
874.851	21275
874.979	21519
875.108	21397
875.237	21233
875.365	21302
875.494	21245
875.623	21447
875.751	21287
875.88	21363
876.008	21511
876.136	21637
876.265	21736
876.393	21816
876.521	21846
876.65	21945
876.778	21671
876.906	21705
877.034	21724
877.162	21736
877.29	21637
877.418	21625
877.546	21728
877.674	21644
877.802	21739
877.93	21755
878.058	21736
878.185	21580
878.313	21732
878.441	21720
878.568	21637
878.696	21732
878.824	21671
878.951	21774
879.079	21793
879.206	22036
879.333	21888
879.461	21766
879.588	21823
879.715	21979
879.842	21983
879.97	21713
880.097	21538
880.224	21492
880.351	21557
880.478	21526
880.605	21599
880.732	21572
880.859	21823
880.986	21644
881.112	21553
881.239	21325
881.366	21412
881.493	21241
881.619	21123
881.746	21112
881.872	21013
881.999	21066
882.125	20960
882.252	21142
882.378	21070
882.505	21142
882.631	20998
882.757	20864
882.883	20895
883.01	20864
883.136	20765
883.262	20800
883.388	20560
883.514	20883
883.64	20765
883.766	20678
883.892	20587
884.018	20632
884.143	20716
884.269	20853
884.395	20522
884.52	20396
884.646	20488
884.772	20347
884.897	20434
885.023	20537
885.148	20587
885.274	20720
885.399	20530
885.524	20564
885.65	20480
885.775	20492
885.9	20396
886.025	20446
886.15	20571
886.275	20423
886.4	20396
886.525	20374
886.65	20385
886.775	20412
886.9	20587
887.025	20667
887.149	20537
887.274	20351
887.399	20225
887.523	20126
887.648	20195
887.773	20172
887.897	20210
888.021	20282
888.146	20294
888.27	20370
888.395	20396
888.519	20275
888.643	20381
888.767	20278
888.891	20092
889.015	20096
889.139	20187
889.263	20024
889.387	20202
889.511	20206
889.635	20153
889.759	19986
889.883	20081
890.006	20043
890.13	20069
890.254	19967
890.377	19902
890.501	19852
890.624	19746
890.748	19925
890.871	19655
890.995	19662
891.118	19556
891.241	19590
891.364	19632
891.488	19753
891.611	19616
891.734	19605
891.857	19651
891.98	19624
892.103	19624
892.226	19605
892.349	19674
892.471	19426
892.594	19487
892.717	19476
892.839	19567
892.962	19559
893.085	19613
893.207	19670
893.33	19445
893.452	19518
893.575	19616
893.697	19548
893.819	19769
893.941	19776
894.064	19689
894.186	19411
894.308	19430
894.43	19597
894.552	19712
894.674	19689
894.796	19571
894.918	19476
895.04	19563
895.161	19578
895.283	19628
895.405	19514
895.526	19544
895.648	19567
895.769	19616
895.891	19533
896.012	19719
896.134	19586
896.255	19571
896.376	19499
896.498	19499
896.619	19639
896.74	19548
896.861	19681
896.982	19906
897.103	20024
897.224	19925
897.345	19849
897.466	19677
897.587	19833
897.708	19951
897.828	19799
897.949	19765
898.07	19674
898.19	19803
898.311	19879
898.431	19830
898.552	19791
898.672	19909
898.792	19932
898.913	19833
899.033	19723
899.153	19540
899.273	19480
899.393	19556
899.513	19575
899.633	19624
899.753	19582
899.873	19533
899.993	19613
900.113	19415
900.232	19499
900.352	19476
900.472	19415
900.591	19339
900.711	19400
900.83	19297
900.95	19514
901.069	19563
901.189	19244
901.308	18886
901.427	18928
901.546	18943
901.665	18924
901.784	18932
901.904	18840
902.023	18700
902.141	18517
902.26	18490
902.379	18544
902.498	18486
902.617	18414
902.735	18456
902.854	18407
902.973	18296
903.091	18098
903.21	18053
903.328	18144
903.446	18041
903.565	17973
903.683	17939
903.801	17870
903.919	17908
904.038	17870
904.156	17775
904.274	17809
904.392	17638
904.51	17817
904.627	17611
904.745	17764
904.863	17726
904.981	17455
905.098	17467
905.216	17391
905.334	17421
905.451	17402
905.569	17330
905.686	17410
905.803	17436
905.921	17261
906.038	17303
906.155	17132
906.272	17128
906.389	17155
906.506	16877
906.623	16911
906.74	16812
906.857	16854
906.974	16816
907.091	16942
907.208	17075
907.324	16900
907.441	16839
907.557	16611
907.674	16801
907.79	16550
907.907	16577
908.023	16618
908.139	16649
908.256	16573
908.372	16565
908.488	16561
908.604	16348
908.72	16325
908.836	16424
908.952	16325
909.068	16325
909.184	16519
909.3	16367
909.415	16474
909.531	16379
909.647	16169
909.762	16135
909.878	16093
909.993	16120
910.108	16013
910.224	16025
910.339	16059
910.454	16074
910.57	15907
910.685	15884
910.8	16101
910.915	16074
911.03	15945
911.145	15743
911.259	15789
911.374	15713
911.489	15549
911.604	15504
911.718	15378
911.833	15447
911.947	15359
912.062	15268
912.176	15553
912.291	15530
912.405	15450
912.519	15618
912.633	15526
912.748	15500
912.862	15332
912.976	15313
913.09	15192
913.204	15165
913.318	15260
913.431	15260
913.545	15378
913.659	15389
913.772	15173
913.886	15142
914	15085
914.113	15165
914.226	15252
914.34	15173
914.453	15005
914.566	15188
914.68	14960
914.793	14918
914.906	14788
915.019	14815
915.132	14724
915.245	14617
915.358	14758
915.47	14724
915.583	14701
915.696	14773
915.809	14872
915.921	14815
916.034	14739
916.146	14693
916.259	14617
916.371	14769
916.483	14697
916.595	14613
916.708	14533
916.82	14571
916.932	14507
917.044	14484
917.156	14503
917.268	14358
917.38	14415
917.491	14385
917.603	14355
917.715	14400
917.826	14427
917.938	14313
918.049	14214
918.161	14313
918.272	14465
918.384	14385
918.495	14381
918.606	14240
918.717	14168
918.828	14225
918.939	14149
919.05	14012
919.161	14088
919.272	13925
919.383	13947
919.494	14126
919.604	14381
919.715	14111
919.826	14035
919.936	14088
920.047	14180
920.157	14134
920.267	14298
920.378	14123
920.488	14062
920.598	14244
920.708	14511
920.818	14259
920.928	14183
921.038	14396
921.148	14320
921.258	14084
921.368	14001
921.477	13890
921.587	13883
921.697	13712
921.806	13944
921.916	13700
922.025	13544
922.134	13510
922.244	13476
922.353	13578
922.462	13377
922.571	13308
922.68	13175
922.789	13202
922.898	13221
923.007	13034
923.116	13095
923.224	13164
923.333	13088
923.442	13031
923.55	12993
923.659	13095
923.767	13110
923.876	13019
923.984	12970
924.092	12951
924.201	12856
924.309	12890
924.417	12928
924.525	12798
924.633	12825
924.741	13639
924.849	12589
924.956	12810
925.064	12566
925.172	12566
925.279	12513
925.387	12635
925.494	12589
925.602	12711
925.709	12601
925.816	12498
925.924	12441
926.031	12730
926.138	12608
926.245	12555
926.352	12448
926.459	12570
926.566	12555
926.673	12547
926.779	12304
926.886	12315
926.993	12277
927.099	12178
927.206	12213
927.312	12098
927.419	12148
927.525	12182
927.631	12194
927.737	12072
927.843	12030
927.95	11935
928.056	12076
928.162	12026
928.267	12034
928.373	12665
928.479	12057
928.585	11824
928.69	11942
928.796	12053
928.901	11878
929.007	11707
929.112	11923
929.218	11802
929.323	11836
929.428	11760
929.533	11904
929.638	11608
929.743	11722
929.848	11779
929.953	11756
930.058	11566
930.163	11429
930.267	11505
930.372	11604
930.477	11391
930.581	11623
930.685	11520
930.79	11261
930.894	11406
930.998	11368
931.103	11520
931.207	11086
931.311	10995
931.415	10915
931.519	10664
931.623	10660
