Data from test_V78500241_2726.txt Node
Date: Fri Mar 25 16:00:41 CST 2022
User: usil
Spectrometer: V785-0024
Trigger mode: 0
Integration Time (sec): 4.000000E-1
Scans to average: 1
Nonlinearity correction enabled: false
Boxcar width: 0
Storing dark spectrum: false
XAxis mode: Wavelengths
Number of Pixels in Spectrum: 1024
>>>>>Begin Spectral Data<<<<<
801.071	28888
801.214	28797
801.356	28546
801.499	28436
801.641	28504
801.783	28470
801.926	28337
802.068	28478
802.211	28421
802.353	28215
802.496	28139
802.638	28173
802.78	28074
802.923	27941
803.065	28032
803.208	27987
803.35	28093
803.492	28272
803.635	28500
803.777	28226
803.919	28337
804.061	28778
804.204	28394
804.346	28322
804.488	28268
804.63	28360
804.773	28291
804.915	28295
805.057	28356
805.199	28249
805.341	28443
805.483	28512
805.626	28493
805.768	28325
805.91	28573
806.052	28599
806.194	28401
806.336	28698
806.478	28546
806.62	28512
806.762	28805
806.904	28816
807.046	28995
807.188	28961
807.33	28812
807.472	28995
807.614	28866
807.756	28938
807.898	28752
808.04	28774
808.182	28820
808.324	28934
808.465	28942
808.607	29090
808.749	29250
808.891	29288
809.033	29505
809.174	29280
809.316	29284
809.458	29200
809.6	29143
809.741	29185
809.883	29334
810.025	29619
810.166	29490
810.308	29459
810.45	29463
810.591	29337
810.733	29197
810.875	29132
811.016	29197
811.158	29193
811.299	29242
811.441	29421
811.582	29391
811.724	29353
811.865	29231
812.007	29151
812.148	29105
812.29	29280
812.431	29611
812.573	29630
812.714	29722
812.855	29653
812.997	29882
813.138	30064
813.279	29786
813.421	29756
813.562	29691
813.703	29558
813.845	29455
813.986	29117
814.127	28972
814.268	29048
814.41	28968
814.551	28896
814.692	29014
814.833	28923
814.974	28713
815.115	28961
815.256	28729
815.397	28809
815.539	28748
815.68	28752
815.821	28641
815.962	28793
816.103	28752
816.244	28645
816.385	28443
816.526	28432
816.666	28299
816.807	28261
816.948	28246
817.089	28257
817.23	28242
817.371	28333
817.512	28276
817.653	28200
817.793	28154
817.934	28299
818.075	28261
818.216	28230
818.356	28097
818.497	28219
818.638	27895
818.778	28097
818.919	27987
819.06	28078
819.2	28246
819.341	28295
819.481	28169
819.622	28413
819.762	28554
819.903	28455
820.043	28500
820.184	28382
820.324	28481
820.465	28485
820.605	28542
820.746	28337
820.886	28257
821.026	28333
821.167	28375
821.307	28367
821.447	28314
821.588	28074
821.728	28093
821.868	27953
822.008	27728
822.149	27720
822.289	27625
822.429	27496
822.569	27443
822.709	27435
822.849	27260
822.99	27294
823.13	27393
823.27	27135
823.41	27066
823.55	26967
823.69	27093
823.83	27005
823.97	27001
824.11	26857
824.25	26952
824.389	26963
824.529	26994
824.669	26929
824.809	26967
824.949	26975
825.089	26967
825.228	26800
825.368	26735
825.508	26617
825.648	26948
825.787	26830
825.927	26883
826.067	26781
826.206	26921
826.346	26937
826.485	26739
826.625	26731
826.765	26861
826.904	26868
827.044	26629
827.183	26598
827.323	26431
827.462	26541
827.601	26415
827.741	26606
827.88	26499
828.02	26473
828.159	26385
828.298	26590
828.437	26564
828.577	26404
828.716	26724
828.855	26389
828.994	26119
829.134	26142
829.273	26195
829.412	26221
829.551	26115
829.69	26142
829.829	26180
829.968	26415
830.107	26259
830.246	26218
830.385	26149
830.524	26176
830.663	26031
830.802	25966
830.941	25700
831.08	25788
831.219	25803
831.357	25856
831.496	26050
831.635	25887
831.774	25639
831.913	25594
832.051	25556
832.19	25510
832.329	25544
832.467	25559
832.606	25407
832.744	25377
832.883	25377
833.022	25403
833.16	25384
833.299	25464
833.437	25411
833.576	25575
833.714	25415
833.852	25620
833.991	25533
834.129	25700
834.267	25578
834.406	25548
834.544	25590
834.682	25571
834.821	25525
834.959	25681
835.097	25419
835.235	25628
835.373	25487
835.511	25514
835.65	25293
835.788	25441
835.926	25198
836.064	25141
836.202	25240
836.34	25381
836.478	25521
836.615	25320
836.753	25320
836.891	25422
837.029	25430
837.167	25316
837.305	25247
837.443	25236
837.58	25046
837.718	25133
837.856	25148
837.993	25145
838.131	25213
838.269	24989
838.406	25023
838.544	24947
838.681	24734
838.819	24894
838.956	24654
839.094	24646
839.231	24684
839.369	24821
839.506	25019
839.643	24837
839.781	24574
839.918	24604
840.055	24544
840.193	24585
840.33	24437
840.467	24532
840.604	24483
840.742	24859
840.879	24509
841.016	24479
841.153	24380
841.29	24616
841.427	24639
841.564	24574
841.701	24509
841.838	24486
841.975	24479
842.112	24570
842.249	24376
842.385	24342
842.522	24559
842.659	24399
842.796	24300
842.933	24216
843.069	24273
843.206	24270
843.343	24464
843.479	24285
843.616	24311
843.752	24057
843.889	24011
844.025	24319
844.162	24087
844.298	24228
844.435	23999
844.571	24136
844.708	24239
844.844	24178
844.98	24308
845.117	24270
845.253	24178
845.389	23901
845.525	23999
845.661	24022
845.798	23969
845.934	23954
846.07	23733
846.206	23946
846.342	23935
846.478	23798
846.614	23710
846.75	23570
846.886	23558
847.022	23707
847.158	23634
847.294	23497
847.429	23615
847.565	23478
847.701	23684
847.837	23471
847.972	23364
848.108	23307
848.244	23246
848.379	23235
848.515	23197
848.65	23235
848.786	23170
848.921	23273
849.057	23166
849.192	23273
849.328	23254
849.463	23166
849.598	23079
849.734	23056
849.869	23067
850.004	22889
850.14	22972
850.275	22908
850.41	22885
850.545	22824
850.68	22961
850.815	22919
850.95	22793
851.085	23071
851.22	23033
851.355	22850
851.49	22934
851.625	22915
851.76	22930
851.895	22854
852.03	23010
852.165	22911
852.299	23010
852.434	22949
852.569	23022
852.703	22839
852.838	22862
852.973	23060
853.107	22999
853.242	22790
853.376	22759
853.511	22615
853.645	22710
853.78	22801
853.914	22653
854.048	22694
854.183	22645
854.317	22763
854.451	22911
854.585	22763
854.72	22706
854.854	22831
854.988	22618
855.122	22767
855.256	22512
855.39	22611
855.524	22641
855.658	22828
855.792	22805
855.926	22839
856.06	22672
856.194	22805
856.327	22831
856.461	22573
856.595	22637
856.729	22622
856.862	22801
856.996	22740
857.13	22729
857.263	22896
857.397	22835
857.53	22816
857.664	22820
857.797	22793
857.931	22904
858.064	22713
858.197	22968
858.331	22672
858.464	22660
858.597	22592
858.731	22664
858.864	22729
858.997	22733
859.13	22702
859.263	22805
859.396	22869
859.529	22801
859.662	22733
859.795	22607
859.928	22736
860.061	22828
860.194	22938
860.327	22782
860.46	22812
860.592	22976
860.725	22866
860.858	22904
860.99	22725
861.123	22634
861.256	22683
861.388	22672
861.521	23436
861.653	22432
861.786	22508
861.918	22466
862.05	22493
862.183	22668
862.315	22675
862.447	22698
862.58	22645
862.712	22516
862.844	22523
862.976	22580
863.108	22470
863.24	22797
863.372	22333
863.504	22538
863.636	22405
863.768	22546
863.9	22394
864.032	22303
864.164	22337
864.296	22398
864.428	22466
864.559	22440
864.691	22481
864.823	22459
864.954	22489
865.086	22436
865.217	22272
865.349	22211
865.48	22337
865.612	22371
865.743	22443
865.875	22360
866.006	22253
866.137	22348
866.269	22257
866.4	22303
866.531	22207
866.662	22204
866.793	22242
866.924	22204
867.055	22306
867.186	22139
867.317	22303
867.448	22200
867.579	22284
867.71	22120
867.841	22169
867.972	22211
868.103	22226
868.233	22360
868.364	22261
868.495	22386
868.625	22341
868.756	22599
868.886	22382
869.017	22390
869.147	22436
869.278	22489
869.408	22405
869.539	22535
869.669	22531
869.799	22592
869.929	22550
870.06	22641
870.19	22847
870.32	22675
870.45	22869
870.58	22809
870.71	22927
870.84	22968
870.97	22900
871.1	22881
871.23	23041
871.36	23044
871.489	22866
871.619	23052
871.749	23022
871.879	23029
872.008	23181
872.138	23132
872.267	23083
872.397	22896
872.526	22767
872.656	22809
872.785	22942
872.915	23121
873.044	23269
873.173	23178
873.303	23299
873.432	23185
873.561	23200
873.69	23086
873.819	23102
873.948	23162
874.077	23185
874.206	23109
874.335	23083
874.464	23280
874.593	23337
874.722	23277
874.851	23345
874.979	23341
875.108	23311
875.237	23239
875.365	23216
875.494	23391
875.623	23322
875.751	23261
875.88	23307
876.008	23391
876.136	23512
876.265	23627
876.393	23794
876.521	23745
876.65	23832
876.778	23756
876.906	23623
877.034	23710
877.162	23687
877.29	23680
877.418	23760
877.546	23531
877.674	23661
877.802	23596
877.93	23642
878.058	23604
878.185	23429
878.313	23684
878.441	23539
878.568	23417
878.696	23684
878.824	23691
878.951	23714
879.079	23760
879.206	23939
879.333	23832
879.461	23726
879.588	23764
879.715	23843
879.842	23847
879.97	23608
880.097	23558
880.224	23444
880.351	23444
880.478	23467
880.605	23372
880.732	23474
880.859	23676
880.986	23440
881.112	23509
881.239	23364
881.366	23231
881.493	23056
881.619	22984
881.746	22995
881.872	23010
881.999	22968
882.125	22904
882.252	23064
882.378	23052
882.505	23140
882.631	22843
882.757	22763
882.883	22816
883.01	22656
883.136	22702
883.262	22557
883.388	22634
883.514	22592
883.64	22713
883.766	22618
883.892	22451
884.018	22409
884.143	22630
884.269	22634
884.395	22409
884.52	22352
884.646	22276
884.772	22173
884.897	22154
885.023	22318
885.148	22413
885.274	22470
885.399	22462
885.524	22284
885.65	22257
885.775	22341
885.9	22295
886.025	22356
886.15	22322
886.275	22371
886.4	22363
886.525	22173
886.65	22303
886.775	22211
886.9	22489
887.025	22485
887.149	22344
887.274	22131
887.399	22063
887.523	21998
887.648	21994
887.773	21987
887.897	22090
888.021	22109
888.146	22025
888.27	22196
888.395	22124
888.519	22082
888.643	22082
888.767	22074
888.891	21949
889.015	21793
889.139	21964
889.263	21884
889.387	22021
889.511	22185
889.635	21972
889.759	21812
889.883	21800
890.006	21911
890.13	22063
890.254	21827
890.377	21660
890.501	21679
890.624	21637
890.748	21580
890.871	21473
890.995	21389
891.118	21306
891.241	21424
891.364	21515
891.488	21545
891.611	21424
891.734	21401
891.857	21435
891.98	21405
892.103	21500
892.226	21431
892.349	21313
892.471	21237
892.594	21245
892.717	21431
892.839	21287
892.962	21294
893.085	21332
893.207	21272
893.33	21207
893.452	21047
893.575	21340
893.697	21260
893.819	21386
893.941	21507
894.064	21397
894.186	21272
894.308	21161
894.43	21332
894.552	21492
894.674	21363
894.796	21150
894.918	21336
895.04	21237
895.161	21332
895.283	21245
895.405	21127
895.526	21184
895.648	21252
895.769	21302
895.891	21279
896.012	21348
896.134	21310
896.255	21146
896.376	21241
896.498	21344
896.619	21275
896.74	21241
896.861	21268
896.982	21690
897.103	21781
897.224	21378
897.345	21397
897.466	21428
897.587	21477
897.708	21587
897.828	21618
897.949	21306
898.07	21302
898.19	21321
898.311	21450
898.431	21454
898.552	21397
898.672	21488
898.792	21496
898.913	21545
899.033	21431
899.153	21252
899.273	21051
899.393	21161
899.513	21199
899.633	21287
899.753	21218
899.873	21017
899.993	21127
900.113	21100
900.232	21203
900.352	21028
900.472	21077
900.591	20975
900.711	20998
900.83	20956
900.95	21051
901.069	20933
901.189	20849
901.308	20598
901.427	20571
901.546	20537
901.665	20541
901.784	20514
901.904	20362
902.023	20229
902.141	20081
902.26	20119
902.379	20183
902.498	20012
902.617	20077
902.735	20073
902.854	19970
902.973	19974
903.091	19651
903.21	19795
903.328	19693
903.446	19537
903.565	19495
903.683	19358
903.801	19411
903.919	19415
904.038	19411
904.156	19297
904.274	19316
904.392	19183
904.51	19198
904.627	19221
904.745	19221
904.863	19285
904.981	19027
905.098	18844
905.216	18894
905.334	18905
905.451	18913
905.569	18859
905.686	18825
905.803	18924
905.921	18631
906.038	18768
906.155	18688
906.272	18498
906.389	18654
906.506	18525
906.623	18437
906.74	18399
906.857	18311
906.974	18270
907.091	18410
907.208	18502
907.324	18475
907.441	18296
907.557	18224
907.674	18114
907.79	18098
907.907	18079
908.023	18194
908.139	18125
908.256	18019
908.372	18045
908.488	17988
908.604	17889
908.72	17882
908.836	17824
908.952	17821
909.068	17836
909.184	17996
909.3	17836
909.415	17855
909.531	17760
909.647	17596
909.762	17452
909.878	17604
909.993	17478
910.108	17551
910.224	17421
910.339	17417
910.454	17364
910.57	17204
910.685	17284
910.8	17543
910.915	17524
911.03	17315
911.145	17223
911.259	17037
911.374	17056
911.489	16930
911.604	16904
911.718	16839
911.833	16957
911.947	16721
912.062	16664
912.176	16843
912.291	16904
912.405	16778
912.519	16949
912.633	17056
912.748	16911
912.862	16702
912.976	16660
913.09	16535
913.204	16713
913.318	16653
913.431	16793
913.545	16733
913.659	16858
913.772	16645
913.886	16402
914	16424
914.113	16443
914.226	16611
914.34	16455
914.453	16333
914.566	16504
914.68	16284
914.793	16177
914.906	16181
915.019	16116
915.132	15979
915.245	16120
915.358	16032
915.47	15998
915.583	15983
915.696	16071
915.809	16120
915.921	16135
916.034	15899
916.146	15907
916.259	15873
916.371	15991
916.483	15953
916.595	15876
916.708	15857
916.82	15884
916.932	15842
917.044	15743
917.156	15774
917.268	15705
917.38	15606
917.491	15660
917.603	15671
917.715	15713
917.826	15648
917.938	15523
918.049	15378
918.161	15705
918.272	15709
918.384	15747
918.495	15679
918.606	15462
918.717	15302
918.828	15454
918.939	15405
919.05	15260
919.161	15321
919.272	15116
919.383	15211
919.494	15428
919.604	15580
919.715	15291
919.826	15203
919.936	15298
920.047	15408
920.157	15435
920.267	15492
920.378	15348
920.488	15332
920.598	15515
920.708	15599
920.818	15469
920.928	15420
921.038	15606
921.148	15542
921.258	15306
921.368	15180
921.477	15116
921.587	15001
921.697	14899
921.806	15070
921.916	14956
922.025	14746
922.134	14739
922.244	14587
922.353	14594
922.462	14488
922.571	14522
922.68	14298
922.789	14259
922.898	14263
923.007	14267
923.116	14248
923.224	14415
923.333	14298
923.442	14126
923.55	14092
923.659	14172
923.767	14115
923.876	14088
923.984	14043
924.092	14035
924.201	14065
924.309	14024
924.417	13986
924.525	14005
924.633	13928
924.741	14956
924.849	13746
924.956	13909
925.064	13784
925.172	13674
925.279	13670
925.387	13761
925.494	13700
925.602	13788
925.709	13677
925.816	13540
925.924	13693
926.031	13746
926.138	13586
926.245	13632
926.352	13483
926.459	13670
926.566	13616
926.673	13586
926.779	13533
926.886	13483
926.993	13228
927.099	13225
927.206	13160
927.312	13183
927.419	13320
927.525	13190
927.631	13304
927.737	13129
927.843	13057
927.95	12939
928.056	13034
928.162	12989
928.267	13088
928.373	13643
928.479	13099
928.585	12859
928.69	12996
928.796	13019
928.901	12875
929.007	12795
929.112	12890
929.218	12882
929.323	12802
929.428	12772
929.533	12844
929.638	12646
929.743	12707
929.848	12662
929.953	12711
930.058	12509
930.163	12506
930.267	12365
930.372	12513
930.477	12391
930.581	12593
930.685	12528
930.79	12273
930.894	12247
930.998	12232
931.103	12361
931.207	12064
931.311	12019
931.415	11859
931.519	11490
931.623	11642
