Data from test_V78500241_758.txt Node
Date: Fri Mar 25 15:47:03 CST 2022
User: usil
Spectrometer: V785-0024
Trigger mode: 0
Integration Time (sec): 4.000000E-1
Scans to average: 1
Nonlinearity correction enabled: false
Boxcar width: 0
Storing dark spectrum: false
XAxis mode: Wavelengths
Number of Pixels in Spectrum: 1024
>>>>>Begin Spectral Data<<<<<
801.071	28036
801.214	27926
801.356	27671
801.499	27698
801.641	27595
801.783	27561
801.926	27644
802.068	27519
802.211	27545
802.353	27420
802.496	27279
802.638	27222
802.78	27245
802.923	27169
803.065	27138
803.208	27245
803.35	27211
803.492	27344
803.635	27306
803.777	27405
803.919	27416
804.061	27789
804.204	27595
804.346	27424
804.488	27435
804.63	27355
804.773	27287
804.915	27424
805.057	27435
805.199	27427
805.341	27583
805.483	27523
805.626	27538
805.768	27397
805.91	27587
806.052	27576
806.194	27313
806.336	27774
806.478	27568
806.62	27694
806.762	27755
806.904	27835
807.046	28097
807.188	28010
807.33	28150
807.472	28044
807.614	27911
807.756	28017
807.898	27876
808.04	27873
808.182	27857
808.324	27945
808.465	27812
808.607	28101
808.749	28329
808.891	28417
809.033	28413
809.174	28325
809.316	28265
809.458	28291
809.6	28287
809.741	28360
809.883	28337
810.025	28519
810.166	28542
810.308	28607
810.45	28459
810.591	28325
810.733	28280
810.875	28173
811.016	28109
811.158	28154
811.299	28272
811.441	28466
811.582	28428
811.724	28382
811.865	28333
812.007	28162
812.148	28310
812.29	28226
812.431	28508
812.573	28557
812.714	28717
812.855	28736
812.997	28896
813.138	28999
813.279	28904
813.421	28858
813.562	28752
813.703	28634
813.845	28500
813.986	28287
814.127	28055
814.268	27876
814.41	28013
814.551	27949
814.692	28101
814.833	28010
814.974	27816
815.115	28059
815.256	27682
815.397	28010
815.539	27934
815.68	27789
815.821	27614
815.962	27751
816.103	27656
816.244	27526
816.385	27534
816.526	27625
816.666	27332
816.807	27420
816.948	27226
817.089	27233
817.23	27325
817.371	27313
817.512	27173
817.653	27249
817.793	27150
817.934	27203
818.075	27237
818.216	27260
818.356	27176
818.497	27020
818.638	26925
818.778	27024
818.919	27119
819.06	27051
819.2	27169
819.341	27176
819.481	27203
819.622	27275
819.762	27629
819.903	27496
820.043	27389
820.184	27427
820.324	27287
820.465	27405
820.605	27401
820.746	27348
820.886	27199
821.026	27298
821.167	27287
821.307	27275
821.447	27199
821.588	27135
821.728	27074
821.868	26834
822.008	26708
822.149	26682
822.289	26575
822.429	26446
822.569	26305
822.709	26233
822.849	26122
822.99	26248
823.13	26286
823.27	26145
823.41	26005
823.55	25890
823.69	26115
823.83	26027
823.97	26008
824.11	26020
824.25	25769
824.389	25833
824.529	25951
824.669	25936
824.809	25982
824.949	25909
825.089	25894
825.228	25940
825.368	25822
825.508	25670
825.648	25723
825.787	25704
825.927	25849
826.067	25674
826.206	25712
826.346	25719
826.485	25791
826.625	25674
826.765	25712
826.904	25772
827.044	25472
827.183	25510
827.323	25411
827.462	25468
827.601	25350
827.741	25358
827.88	25639
828.02	25320
828.159	25308
828.298	25594
828.437	25426
828.577	25358
828.716	25495
828.855	25396
828.994	25046
829.134	25160
829.273	25232
829.412	25088
829.551	25076
829.69	25076
829.829	25088
829.968	25107
830.107	25236
830.246	25053
830.385	25240
830.524	24989
830.663	24954
830.802	24992
830.941	24707
831.08	24650
831.219	24867
831.357	24840
831.496	24962
831.635	24966
831.774	24620
831.913	24521
832.051	24505
832.19	24574
832.329	24593
832.467	24410
832.606	24471
832.744	24460
832.883	24403
833.022	24281
833.16	24403
833.299	24395
833.437	24445
833.576	24604
833.714	24532
833.852	24547
833.991	24464
834.129	24741
834.267	24517
834.406	24422
834.544	24494
834.682	24566
834.821	24517
834.959	24745
835.097	24486
835.235	24460
835.373	24353
835.511	24441
835.65	24144
835.788	24323
835.926	24277
836.064	24136
836.202	24072
836.34	24129
836.478	24418
836.615	24270
836.753	24213
836.891	24277
837.029	24224
837.167	24091
837.305	24232
837.443	24251
837.58	24114
837.718	24197
837.856	24209
837.993	24186
838.131	24129
838.269	24007
838.406	23965
838.544	23923
838.681	23832
838.819	23748
838.956	23672
839.094	23600
839.231	23710
839.369	23649
839.506	23984
839.643	23847
839.781	23611
839.918	23535
840.055	23676
840.193	23657
840.33	23463
840.467	23570
840.604	23668
840.742	23764
840.879	23391
841.016	23516
841.153	23455
841.29	23699
841.427	23577
841.564	23486
841.701	23459
841.838	23501
841.975	23364
842.112	23364
842.249	23223
842.385	23208
842.522	23589
842.659	23444
842.796	23242
842.933	23242
843.069	23311
843.206	23246
843.343	23284
843.479	23372
843.616	23315
843.752	23098
843.889	23056
844.025	23155
844.162	23067
844.298	23067
844.435	23060
844.571	23178
844.708	23044
844.844	23269
844.98	23193
845.117	23090
845.253	23029
845.389	23018
845.525	23022
845.661	22896
845.798	22908
845.934	22843
846.07	22866
846.206	22759
846.342	22889
846.478	22740
846.614	22607
846.75	22424
846.886	22382
847.022	22592
847.158	22451
847.294	22611
847.429	22588
847.565	22318
847.701	22820
847.837	22196
847.972	22344
848.108	22409
848.244	22215
848.379	22219
848.515	22143
848.65	22055
848.786	22086
848.921	22105
849.057	22124
849.192	22173
849.328	22101
849.463	22074
849.598	22105
849.734	21975
849.869	22002
850.004	21926
850.14	21983
850.275	21987
850.41	21804
850.545	21770
850.68	21686
850.815	21808
850.95	21857
851.085	21975
851.22	21899
851.355	21880
851.49	21766
851.625	21823
851.76	21857
851.895	21812
852.03	21743
852.165	21953
852.299	21854
852.434	21899
852.569	21975
852.703	21857
852.838	21972
852.973	22112
853.107	22097
853.242	21861
853.376	21762
853.511	21515
853.645	21671
853.78	21736
853.914	21793
854.048	21587
854.183	21614
854.317	21622
854.451	21953
854.585	21808
854.72	21675
854.854	21884
854.988	21587
855.122	21629
855.256	21549
855.39	21622
855.524	21686
855.658	21732
855.792	21671
855.926	21709
856.06	21671
856.194	21728
856.327	21652
856.461	21606
856.595	21591
856.729	21671
856.862	21781
856.996	21762
857.13	21736
857.263	21816
857.397	21652
857.53	21816
857.664	21698
857.797	21618
857.931	21785
858.064	21713
858.197	21743
858.331	21583
858.464	21656
858.597	21629
858.731	21682
858.864	21766
858.997	21637
859.13	21694
859.263	21743
859.396	21873
859.529	21652
859.662	21599
859.795	21663
859.928	21622
860.061	21930
860.194	21816
860.327	21637
860.46	21671
860.592	21789
860.725	21736
860.858	21945
860.99	21648
861.123	21667
861.256	21644
861.388	21652
861.521	22299
861.653	21595
861.786	21416
861.918	21633
862.05	21477
862.183	21462
862.315	21622
862.447	21663
862.58	21644
862.712	21355
862.844	21393
862.976	21450
863.108	21393
863.24	21797
863.372	21393
863.504	21313
863.636	21310
863.768	21481
863.9	21310
864.032	21294
864.164	21382
864.296	21466
864.428	21405
864.559	21412
864.691	21504
864.823	21443
864.954	21370
865.086	21378
865.217	21287
865.349	21218
865.48	21230
865.612	21313
865.743	21408
865.875	21275
866.006	21287
866.137	21443
866.269	21256
866.4	21283
866.531	21344
866.662	21389
866.793	21180
866.924	21184
867.055	21302
867.186	21222
867.317	21165
867.448	21123
867.579	21142
867.71	21180
867.841	21127
867.972	21127
868.103	21211
868.233	21169
868.364	21127
868.495	21412
868.625	21492
868.756	21488
868.886	21332
869.017	21481
869.147	21557
869.278	21523
869.408	21538
869.539	21336
869.669	21564
869.799	21363
869.929	21553
870.06	21644
870.19	21709
870.32	21766
870.45	21793
870.58	21835
870.71	21983
870.84	21884
870.97	21835
871.1	21937
871.23	21964
871.36	22013
871.489	22013
871.619	22021
871.749	22063
871.879	22082
872.008	22207
872.138	22025
872.267	22002
872.397	21979
872.526	21937
872.656	21873
872.785	21846
872.915	22063
873.044	22070
873.173	21983
873.303	22029
873.432	22131
873.561	22150
873.69	22101
873.819	22090
873.948	22162
874.077	22093
874.206	22044
874.335	22059
874.464	22112
874.593	22268
874.722	22215
874.851	22386
874.979	22265
875.108	22226
875.237	22261
875.365	22234
875.494	22238
875.623	22386
875.751	22242
875.88	22295
876.008	22348
876.136	22516
876.265	22786
876.393	22763
876.521	22801
876.65	22843
876.778	22831
876.906	22561
877.034	22599
877.162	22611
877.29	22622
877.418	22729
877.546	22713
877.674	22611
877.802	22607
877.93	22740
878.058	22637
878.185	22660
878.313	22565
878.441	22569
878.568	22405
878.696	22615
878.824	22649
878.951	22679
879.079	22824
879.206	23025
879.333	22805
879.461	22584
879.588	22820
879.715	22805
879.842	22854
879.97	22847
880.097	22523
880.224	22333
880.351	22569
880.478	22375
880.605	22356
880.732	22478
880.859	22672
880.986	22550
881.112	22440
881.239	22299
881.366	22230
881.493	22135
881.619	22025
881.746	22105
881.872	22074
881.999	21892
882.125	21899
882.252	22029
882.378	22124
882.505	22196
882.631	21838
882.757	21793
882.883	21880
883.01	21679
883.136	21580
883.262	21580
883.388	21648
883.514	21793
883.64	21732
883.766	21812
883.892	21481
884.018	21496
884.143	21671
884.269	21766
884.395	21325
884.52	21386
884.646	21313
884.772	21287
884.897	21169
885.023	21401
885.148	21488
885.274	21466
885.399	21405
885.524	21405
885.65	21378
885.775	21382
885.9	21302
886.025	21488
886.15	21351
886.275	21443
886.4	21279
886.525	21408
886.65	21332
886.775	21222
886.9	21431
887.025	21443
887.149	21252
887.274	21188
887.399	21203
887.523	21104
887.648	20998
887.773	21176
887.897	20982
888.021	21146
888.146	21077
888.27	21188
888.395	21256
888.519	21233
888.643	21131
888.767	21214
888.891	21055
889.015	20853
889.139	21013
889.263	20876
889.387	21039
889.511	21195
889.635	20982
889.759	20941
889.883	20944
890.006	20914
890.13	21081
890.254	20800
890.377	20826
890.501	20556
890.624	20758
890.748	20765
890.871	20541
890.995	20499
891.118	20480
891.241	20457
891.364	20507
891.488	20530
891.611	20465
891.734	20454
891.857	20522
891.98	20476
892.103	20495
892.226	20484
892.349	20408
892.471	20282
892.594	20423
892.717	20480
892.839	20305
892.962	20415
893.085	20484
893.207	20461
893.33	20244
893.452	20294
893.575	20400
893.697	20404
893.819	20499
893.941	20511
894.064	20518
894.186	20351
894.308	20332
894.43	20473
894.552	20423
894.674	20461
894.796	20332
894.918	20446
895.04	20248
895.161	20473
895.283	20438
895.405	20355
895.526	20476
895.648	20370
895.769	20347
895.891	20362
896.012	20450
896.134	20454
896.255	20374
896.376	20324
896.498	20305
896.619	20419
896.74	20400
896.861	20465
896.982	20731
897.103	20883
897.224	20758
897.345	20670
897.466	20560
897.587	20613
897.708	20674
897.828	20621
897.949	20598
898.07	20480
898.19	20499
898.311	20705
898.431	20571
898.552	20636
898.672	20636
898.792	20598
898.913	20667
899.033	20537
899.153	20389
899.273	20278
899.393	20328
899.513	20328
899.633	20320
899.753	20275
899.873	20301
899.993	20396
900.113	20248
900.232	20294
900.352	20145
900.472	20195
900.591	19989
900.711	20191
900.83	20058
900.95	20259
901.069	20206
901.189	20001
901.308	19700
901.427	19738
901.546	19693
901.665	19643
901.784	19803
901.904	19647
902.023	19377
902.141	19392
902.26	19183
902.379	19297
902.498	19171
902.617	19221
902.735	19187
902.854	19187
902.973	19103
903.091	18924
903.21	18901
903.328	18928
903.446	18749
903.565	18688
903.683	18673
903.801	18574
903.919	18650
904.038	18627
904.156	18372
904.274	18506
904.392	18399
904.51	18391
904.627	18372
904.745	18467
904.863	18429
904.981	18296
905.098	18079
905.216	18087
905.334	18136
905.451	18125
905.569	18079
905.686	18224
905.803	18106
905.921	18091
906.038	17958
906.155	17973
906.272	17760
906.389	17863
906.506	17691
906.623	17687
906.74	17699
906.857	17490
906.974	17646
907.091	17630
907.208	17764
907.324	17604
907.441	17547
907.557	17455
907.674	17467
907.79	17311
907.907	17372
908.023	17493
908.139	17516
908.256	17414
908.372	17322
908.488	17189
908.604	17090
908.72	17166
908.836	17147
908.952	17223
909.068	17094
909.184	17208
909.3	17079
909.415	17090
909.531	17041
909.647	16797
909.762	16748
909.878	16755
909.993	16843
910.108	16881
910.224	16687
910.339	16721
910.454	16713
910.57	16645
910.685	16660
910.8	16809
910.915	16824
911.03	16538
911.145	16489
911.259	16443
911.374	16421
911.489	16382
911.604	16242
911.718	16112
911.833	16112
911.947	16036
912.062	16086
912.176	16120
912.291	16192
912.405	16147
912.519	16257
912.633	16230
912.748	16192
912.862	16071
912.976	16021
913.09	15770
913.204	15922
913.318	16021
913.431	16055
913.545	16051
913.659	16078
913.772	15869
913.886	15781
914	15766
914.113	15827
914.226	15816
914.34	15895
914.453	15694
914.566	15705
914.68	15622
914.793	15629
914.906	15443
915.019	15462
915.132	15294
915.245	15363
915.358	15386
915.47	15317
915.583	15329
915.696	15447
915.809	15488
915.921	15504
916.034	15272
916.146	15279
916.259	15313
916.371	15355
916.483	15317
916.595	15218
916.708	15074
916.82	15241
916.932	15214
917.044	15218
917.156	15108
917.268	14937
917.38	15005
917.491	15020
917.603	15047
917.715	15058
917.826	15017
917.938	14921
918.049	14838
918.161	14944
918.272	15062
918.384	14975
918.495	15024
918.606	14754
918.717	14701
918.828	14891
918.939	14792
919.05	14724
919.161	14804
919.272	14613
919.383	14632
919.494	14788
919.604	14883
919.715	14769
919.826	14716
919.936	14746
920.047	14777
920.157	14682
920.267	14910
920.378	14708
920.488	14602
920.598	14861
920.708	15047
920.818	14815
920.928	14868
921.038	15024
921.148	15074
921.258	14648
921.368	14492
921.477	14438
921.587	14454
921.697	14332
921.806	14450
921.916	14339
922.025	14214
922.134	14145
922.244	13951
922.353	14172
922.462	14050
922.571	13913
922.68	13731
922.789	13731
922.898	13803
923.007	13681
923.116	13769
923.224	13704
923.333	13658
923.442	13624
923.55	13483
923.659	13582
923.767	13616
923.876	13407
923.984	13510
924.092	13445
924.201	13415
924.309	13468
924.417	13422
924.525	13415
924.633	13441
924.741	14358
924.849	13145
924.956	13381
925.064	13133
925.172	13061
925.279	13198
925.387	13137
925.494	13171
925.602	13301
925.709	13164
925.816	13122
925.924	13156
926.031	13141
926.138	13057
926.245	13091
926.352	12951
926.459	13103
926.566	13122
926.673	13031
926.779	12966
926.886	12985
926.993	12760
927.099	12779
927.206	12696
927.312	12639
927.419	12760
927.525	12677
927.631	12734
927.737	12658
927.843	12551
927.95	12513
928.056	12452
928.162	12498
928.267	12555
928.373	13114
928.479	12654
928.585	12365
928.69	12502
928.796	12467
928.901	12323
929.007	12197
929.112	12399
929.218	12319
929.323	12232
929.428	12311
929.533	12475
929.638	12117
929.743	12213
929.848	12292
929.953	12152
930.058	12076
930.163	11870
930.267	11988
930.372	12057
930.477	11866
930.581	12232
930.685	12026
930.79	11832
930.894	11836
930.998	11786
931.103	12030
931.207	11547
931.311	11520
931.415	11368
931.519	11170
931.623	11216
