Data from test_V78500241_436.txt Node
Date: Fri Mar 25 15:44:49 CST 2022
User: usil
Spectrometer: V785-0024
Trigger mode: 0
Integration Time (sec): 4.000000E-1
Scans to average: 1
Nonlinearity correction enabled: false
Boxcar width: 0
Storing dark spectrum: false
XAxis mode: Wavelengths
Number of Pixels in Spectrum: 1024
>>>>>Begin Spectral Data<<<<<
801.071	28025
801.214	27994
801.356	27956
801.499	27644
801.641	27675
801.783	27557
801.926	27739
802.068	27561
802.211	27412
802.353	27370
802.496	27192
802.638	27287
802.78	27230
802.923	27165
803.065	27154
803.208	27203
803.35	27150
803.492	27294
803.635	27519
803.777	27348
803.919	27363
804.061	27667
804.204	27435
804.346	27195
804.488	27237
804.63	27298
804.773	27199
804.915	27317
805.057	27481
805.199	27195
805.341	27317
805.483	27549
805.626	27458
805.768	27317
805.91	27367
806.052	27431
806.194	27389
806.336	27614
806.478	27553
806.62	27549
806.762	27587
806.904	27728
807.046	28051
807.188	27937
807.33	27907
807.472	27998
807.614	27766
807.756	27816
807.898	27637
808.04	27622
808.182	27751
808.324	27701
808.465	27713
808.607	27926
808.749	28017
808.891	28177
809.033	28158
809.174	28204
809.316	28143
809.458	28249
809.6	27998
809.741	28143
809.883	28196
810.025	28265
810.166	28211
810.308	28295
810.45	28234
810.591	28253
810.733	28070
810.875	28135
811.016	27918
811.158	28044
811.299	28051
811.441	28223
811.582	28177
811.724	28093
811.865	27979
812.007	27968
812.148	28017
812.29	28070
812.431	28139
812.573	28367
812.714	28489
812.855	28748
812.997	28694
813.138	28816
813.279	28816
813.421	28596
813.562	28550
813.703	28424
813.845	28322
813.986	27823
814.127	27778
814.268	27675
814.41	27774
814.551	27595
814.692	27778
814.833	27614
814.974	27770
815.115	27686
815.256	27447
815.397	27652
815.539	27443
815.68	27431
815.821	27401
815.962	27492
816.103	27275
816.244	27397
816.385	27230
816.526	27294
816.666	27108
816.807	26940
816.948	26899
817.089	27039
817.23	26883
817.371	26826
817.512	26849
817.653	26906
817.793	26883
817.934	26906
818.075	26887
818.216	26838
818.356	26880
818.497	26716
818.638	26629
818.778	26781
818.919	26530
819.06	26765
819.2	26693
819.341	26811
819.481	26823
819.622	26937
819.762	27001
819.903	27249
820.043	26956
820.184	26754
820.324	26998
820.465	26971
820.605	27116
820.746	26990
820.886	26963
821.026	26891
821.167	26937
821.307	26861
821.447	26815
821.588	26651
821.728	26598
821.868	26427
822.008	26290
822.149	26290
822.289	26305
822.429	26069
822.569	25944
822.709	25940
822.849	25788
822.99	25715
823.13	25655
823.27	25613
823.41	25578
823.55	25411
823.69	25666
823.83	25594
823.97	25556
824.11	25411
824.25	25255
824.389	25343
824.529	25472
824.669	25350
824.809	25533
824.949	25479
825.089	25415
825.228	25415
825.368	25259
825.508	25206
825.648	25202
825.787	25266
825.927	25358
826.067	25183
826.206	25232
826.346	25202
826.485	25324
826.625	25103
826.765	25297
826.904	25213
827.044	24981
827.183	24973
827.323	24798
827.462	25069
827.601	24913
827.741	24924
827.88	24951
828.02	24856
828.159	24859
828.298	24848
828.437	24973
828.577	24928
828.716	24985
828.855	24943
828.994	24692
829.134	24597
829.273	24593
829.412	24505
829.551	24502
829.69	24544
829.829	24623
829.968	24525
830.107	24665
830.246	24551
830.385	24559
830.524	24460
830.663	24414
830.802	24292
830.941	24232
831.08	24098
831.219	24239
831.357	24155
831.496	24471
831.635	24213
831.774	23973
831.913	23988
832.051	23958
832.19	23832
832.329	23920
832.467	23764
832.606	23783
832.744	23794
832.883	23828
833.022	23737
833.16	23737
833.299	23817
833.437	23718
833.576	23870
833.714	23847
833.852	23965
833.991	24003
834.129	23961
834.267	23939
834.406	23878
834.544	23817
834.682	23859
834.821	23767
834.959	23965
835.097	23786
835.235	23897
835.373	23874
835.511	24018
835.65	23672
835.788	23802
835.926	23585
836.064	23436
836.202	23581
836.34	23676
836.478	23722
836.615	23661
836.753	23627
836.891	23798
837.029	23684
837.167	23577
837.305	23482
837.443	23604
837.58	23448
837.718	23512
837.856	23596
837.993	23512
838.131	23554
838.269	23410
838.406	23433
838.544	23254
838.681	23117
838.819	23079
838.956	23037
839.094	23041
839.231	23006
839.369	23083
839.506	23322
839.643	23208
839.781	23018
839.918	23056
840.055	22942
840.193	22889
840.33	22896
840.467	23102
840.604	22946
840.742	23254
840.879	22691
841.016	22877
841.153	22831
841.29	22999
841.427	22873
841.564	22790
841.701	22828
841.838	22763
841.975	22729
842.112	22698
842.249	22694
842.385	22656
842.522	22790
842.659	22767
842.796	22580
842.933	22771
843.069	22417
843.206	22615
843.343	22611
843.479	22596
843.616	22649
843.752	22394
843.889	22363
844.025	22497
844.162	22322
844.298	22474
844.435	22325
844.571	22367
844.708	22417
844.844	22497
844.98	22527
845.117	22394
845.253	22272
845.389	22242
845.525	22291
845.661	22173
845.798	22086
845.934	22265
846.07	22196
846.206	22207
846.342	22158
846.478	22010
846.614	21899
846.75	21743
846.886	21682
847.022	21850
847.158	21762
847.294	21781
847.429	21949
847.565	21762
847.701	21949
847.837	21576
847.972	21488
848.108	21603
848.244	21663
848.379	21481
848.515	21325
848.65	21302
848.786	21393
848.921	21363
849.057	21477
849.192	21511
849.328	21397
849.463	21420
849.598	21382
849.734	21230
849.869	21188
850.004	21176
850.14	21279
850.275	21211
850.41	21055
850.545	21081
850.68	21039
850.815	21154
850.95	21028
851.085	21165
851.22	21184
851.355	21161
851.49	21074
851.625	21085
851.76	21074
851.895	21119
852.03	21123
852.165	21176
852.299	21195
852.434	21199
852.569	21119
852.703	21165
852.838	21272
852.973	21195
853.107	21165
853.242	21062
853.376	20929
853.511	20838
853.645	20956
853.78	21043
853.914	20971
854.048	20956
854.183	20952
854.317	20826
854.451	21074
854.585	21051
854.72	20941
854.854	20990
854.988	20941
855.122	20956
855.256	20788
855.39	20971
855.524	20929
855.658	20918
855.792	20948
855.926	20982
856.06	20933
856.194	21100
856.327	20921
856.461	20800
856.595	20826
856.729	20937
856.862	20982
856.996	20944
857.13	20952
857.263	20952
857.397	21028
857.53	20925
857.664	20952
857.797	21001
857.931	21024
858.064	20914
858.197	21017
858.331	20963
858.464	20792
858.597	20830
858.731	20902
858.864	20811
858.997	20918
859.13	20895
859.263	20830
859.396	21089
859.529	20918
859.662	20845
859.795	20845
859.928	20872
860.061	21074
860.194	21032
860.327	20948
860.46	21017
860.592	21062
860.725	21017
860.858	20960
860.99	20941
861.123	20857
861.256	20876
861.388	20887
861.521	21587
861.653	20720
861.786	20746
861.918	20758
862.05	20937
862.183	20899
862.315	20876
862.447	20895
862.58	20883
862.712	20708
862.844	20606
862.976	20674
863.108	20655
863.24	21055
863.372	20530
863.504	20545
863.636	20617
863.768	20541
863.9	20640
864.032	20602
864.164	20644
864.296	20583
864.428	20781
864.559	20609
864.691	20693
864.823	20621
864.954	20636
865.086	20609
865.217	20484
865.349	20438
865.48	20545
865.612	20648
865.743	20720
865.875	20473
866.006	20427
866.137	20427
866.269	20511
866.4	20511
866.531	20492
866.662	20389
866.793	20389
866.924	20480
867.055	20480
867.186	20522
867.317	20446
867.448	20423
867.579	20400
867.71	20454
867.841	20263
867.972	20514
868.103	20423
868.233	20522
868.364	20427
868.495	20606
868.625	20640
868.756	20853
868.886	20682
869.017	20663
869.147	20708
869.278	20777
869.408	20708
869.539	20705
869.669	20769
869.799	20632
869.929	20842
870.06	20785
870.19	21058
870.32	20971
870.45	21077
870.58	21123
870.71	21096
870.84	21283
870.97	20986
871.1	21104
871.23	21203
871.36	21317
871.489	21184
871.619	21184
871.749	21260
871.879	21272
872.008	21264
872.138	21351
872.267	21256
872.397	21131
872.526	21173
872.656	21123
872.785	21184
872.915	21291
873.044	21378
873.173	21256
873.303	21420
873.432	21378
873.561	21393
873.69	21176
873.819	21340
873.948	21481
874.077	21264
874.206	21256
874.335	21359
874.464	21496
874.593	21629
874.722	21488
874.851	21583
874.979	21610
875.108	21587
875.237	21496
875.365	21462
875.494	21443
875.623	21439
875.751	21568
875.88	21557
876.008	21709
876.136	21732
876.265	21968
876.393	22105
876.521	21975
876.65	22013
876.778	21880
876.906	21922
877.034	21895
877.162	21922
877.29	21819
877.418	21861
877.546	22021
877.674	21838
877.802	21880
877.93	21949
878.058	21888
878.185	21823
878.313	21930
878.441	21774
878.568	21728
878.696	21876
878.824	21861
878.951	22021
879.079	22128
879.206	22169
879.333	22055
879.461	21998
879.588	21972
879.715	22067
879.842	22112
879.97	21895
880.097	21831
880.224	21705
880.351	21816
880.478	21629
880.605	21534
880.732	21671
880.859	21987
880.986	21671
881.112	21816
881.239	21599
881.366	21412
881.493	21408
881.619	21279
881.746	21363
881.872	21321
881.999	21397
882.125	21230
882.252	21367
882.378	21211
882.505	21378
882.631	21222
882.757	21108
882.883	21199
883.01	21055
883.136	21074
883.262	20944
883.388	20819
883.514	21131
883.64	21051
883.766	21055
883.892	20769
884.018	20750
884.143	21020
884.269	21036
884.395	20811
884.52	20598
884.646	20735
884.772	20617
884.897	20594
885.023	20739
885.148	20758
885.274	20880
885.399	20788
885.524	20632
885.65	20609
885.775	20697
885.9	20743
886.025	20705
886.15	20785
886.275	20575
886.4	20465
886.525	20530
886.65	20549
886.775	20583
886.9	20674
887.025	20872
887.149	20716
887.274	20613
887.399	20385
887.523	20415
887.648	20282
887.773	20370
887.897	20583
888.021	20495
888.146	20446
888.27	20461
888.395	20465
888.519	20469
888.643	20431
888.767	20503
888.891	20252
889.015	20259
889.139	20294
889.263	20180
889.387	20301
889.511	20332
889.635	20431
889.759	20199
889.883	20164
890.006	20233
890.13	20191
890.254	20168
890.377	20119
890.501	19997
890.624	20008
890.748	19986
890.871	19803
890.995	19719
891.118	19681
891.241	19902
891.364	19906
891.488	19955
891.611	19753
891.734	19731
891.857	19902
891.98	19909
892.103	19784
892.226	19944
892.349	19712
892.471	19670
892.594	19681
892.717	19647
892.839	19708
892.962	19769
893.085	19788
893.207	19620
893.33	19731
893.452	19609
893.575	19685
893.697	19624
893.819	19883
893.941	19883
894.064	19890
894.186	19643
894.308	19674
894.43	19830
894.552	19750
894.674	19849
894.796	19590
894.918	19674
895.04	19635
895.161	19769
895.283	19757
895.405	19624
895.526	19670
895.648	19658
895.769	19712
895.891	19803
896.012	19913
896.134	19811
896.255	19830
896.376	19677
896.498	19814
896.619	19727
896.74	19727
896.861	19890
896.982	20218
897.103	20263
897.224	20062
897.345	19940
897.466	19890
897.587	20046
897.708	20122
897.828	20050
897.949	19852
898.07	19807
898.19	19875
898.311	20107
898.431	19795
898.552	19951
898.672	20031
898.792	20062
898.913	19887
899.033	19890
899.153	19685
899.273	19689
899.393	19704
899.513	19868
899.633	19788
899.753	19731
899.873	19700
899.993	19708
900.113	19708
900.232	19632
900.352	19601
900.472	19540
900.591	19529
900.711	19514
900.83	19548
900.95	19540
901.069	19487
901.189	19407
901.308	19110
901.427	19145
901.546	19080
901.665	19187
901.784	19061
901.904	18890
902.023	18810
902.141	18741
902.26	18650
902.379	18673
902.498	18631
902.617	18460
902.735	18589
902.854	18589
902.973	18483
903.091	18311
903.21	18220
903.328	18277
903.446	18144
903.565	18076
903.683	18125
903.801	17996
903.919	17980
904.038	18106
904.156	17866
904.274	17855
904.392	17752
904.51	17836
904.627	17657
904.745	17741
904.863	17836
904.981	17630
905.098	17471
905.216	17512
905.334	17615
905.451	17505
905.569	17493
905.686	17493
905.803	17558
905.921	17364
906.038	17353
906.155	17288
906.272	17200
906.389	17174
906.506	17003
906.623	17048
906.74	17045
906.857	16934
906.974	16946
907.091	17094
907.208	17132
907.324	16991
907.441	16961
907.557	16752
907.674	16725
907.79	16675
907.907	16725
908.023	16771
908.139	16748
908.256	16653
908.372	16679
908.488	16626
908.604	16481
908.72	16322
908.836	16523
908.952	16428
909.068	16424
909.184	16519
909.3	16436
909.415	16390
909.531	16493
909.647	16166
909.762	16150
909.878	16158
909.993	16169
910.108	16173
910.224	16109
910.339	16154
910.454	16109
910.57	15945
910.685	15873
910.8	16185
910.915	16135
911.03	15922
911.145	15892
911.259	15762
911.374	15656
911.489	15663
911.604	15686
911.718	15454
911.833	15526
911.947	15443
912.062	15389
912.176	15538
912.291	15431
912.405	15641
912.519	15690
912.633	15667
912.748	15511
912.862	15454
912.976	15344
913.09	15135
913.204	15237
913.318	15351
913.431	15332
913.545	15431
913.659	15378
913.772	15332
913.886	15192
914	15100
914.113	15176
914.226	15264
914.34	15161
914.453	15055
914.566	15104
914.68	15017
914.793	15013
914.906	14792
915.019	14754
915.132	14701
915.245	14686
915.358	14762
915.47	14830
915.583	14716
915.696	14689
915.809	14891
915.921	14876
916.034	14754
916.146	14636
916.259	14655
916.371	14613
916.483	14682
916.595	14587
916.708	14617
916.82	14511
916.932	14530
917.044	14530
917.156	14571
917.268	14362
917.38	14438
917.491	14301
917.603	14374
917.715	14495
917.826	14480
917.938	14366
918.049	14347
918.161	14305
918.272	14530
918.384	14465
918.495	14381
918.606	14183
918.717	14100
918.828	14183
918.939	14149
919.05	14130
919.161	14134
919.272	14020
919.383	14008
919.494	14191
919.604	14366
919.715	14164
919.826	14020
919.936	14054
920.047	14187
920.157	14168
920.267	14237
920.378	14187
920.488	14046
920.598	14282
920.708	14415
920.818	14244
920.928	14256
921.038	14480
921.148	14309
921.258	14115
921.368	13887
921.477	13959
921.587	13890
921.697	13662
921.806	13947
921.916	13776
922.025	13525
922.134	13567
922.244	13457
922.353	13571
922.462	13426
922.571	13259
922.68	13301
922.789	13274
922.898	13168
923.007	13141
923.116	13221
923.224	13095
923.333	13015
923.442	12943
923.55	12951
923.659	13088
923.767	13126
923.876	12878
923.984	13019
924.092	12829
924.201	12954
924.309	12890
924.417	12856
924.525	12943
924.633	12890
924.741	13655
924.849	12711
924.956	12791
925.064	12604
925.172	12589
925.279	12479
925.387	12620
925.494	12555
925.602	12810
925.709	12654
925.816	12509
925.924	12566
926.031	12601
926.138	12631
926.245	12578
926.352	12521
926.459	12578
926.566	12563
926.673	12467
926.779	12433
926.886	12338
926.993	12148
927.099	12194
927.206	12133
927.312	12121
927.419	12228
927.525	12163
927.631	12155
927.737	12041
927.843	11965
927.95	11874
928.056	11977
928.162	12079
928.267	12049
928.373	12601
928.479	12152
928.585	11836
928.69	11893
928.796	11969
928.901	11897
929.007	11699
929.112	11840
929.218	11863
929.323	11703
929.428	11733
929.533	11840
929.638	11688
929.743	11623
929.848	11798
929.953	11680
930.058	11634
930.163	11459
930.267	11478
930.372	11592
930.477	11406
930.581	11665
930.685	11528
930.79	11246
930.894	11387
930.998	11265
931.103	11436
931.207	11071
931.311	10980
931.415	10820
931.519	10706
931.623	10653
