Data from test_V78500241_2411.txt Node
Date: Fri Mar 25 15:58:30 CST 2022
User: usil
Spectrometer: V785-0024
Trigger mode: 0
Integration Time (sec): 4.000000E-1
Scans to average: 1
Nonlinearity correction enabled: false
Boxcar width: 0
Storing dark spectrum: false
XAxis mode: Wavelengths
Number of Pixels in Spectrum: 1024
>>>>>Begin Spectral Data<<<<<
801.071	28550
801.214	28546
801.356	28375
801.499	28204
801.641	28051
801.783	28124
801.926	28226
802.068	27953
802.211	28040
802.353	27937
802.496	27766
802.638	27762
802.78	27633
802.923	27816
803.065	27648
803.208	27861
803.35	27926
803.492	27842
803.635	27975
803.777	27770
803.919	27994
804.061	28078
804.204	28162
804.346	27941
804.488	28063
804.63	27949
804.773	27998
804.915	27975
805.057	28219
805.199	27930
805.341	28063
805.483	28154
805.626	28185
805.768	27987
805.91	28238
806.052	28344
806.194	28135
806.336	28173
806.478	28158
806.62	28112
806.762	28306
806.904	28493
807.046	28831
807.188	28580
807.33	28436
807.472	28729
807.614	28542
807.756	28485
807.898	28538
808.04	28421
808.182	28386
808.324	28485
808.465	28485
808.607	28744
808.749	28763
808.891	28930
809.033	28961
809.174	28858
809.316	28771
809.458	28763
809.6	28805
809.741	28866
809.883	28873
810.025	29151
810.166	29151
810.308	29128
810.45	29136
810.591	29041
810.733	28831
810.875	28805
811.016	28740
811.158	28828
811.299	28972
811.441	28942
811.582	28881
811.724	28866
811.865	28828
812.007	28877
812.148	28915
812.29	28888
812.431	29014
812.573	29250
812.714	29178
812.855	29436
812.997	29417
813.138	29615
813.279	29471
813.421	29356
813.562	29322
813.703	29197
813.845	28991
813.986	28828
814.127	28596
814.268	28588
814.41	28516
814.551	28554
814.692	28485
814.833	28596
814.974	28390
815.115	28527
815.256	28432
815.397	28394
815.539	28409
815.68	28401
815.821	28356
815.962	28329
816.103	28398
816.244	28280
816.385	28169
816.526	28219
816.666	27869
816.807	27816
816.948	27926
817.089	28013
817.23	27835
817.371	27827
817.512	27850
817.653	27861
817.793	27656
817.934	27747
818.075	27857
818.216	27698
818.356	27831
818.497	27766
818.638	27580
818.778	27610
818.919	27652
819.06	27743
819.2	27785
819.341	27914
819.481	27857
819.622	28044
819.762	28177
819.903	28013
820.043	28010
820.184	28131
820.324	28040
820.465	28150
820.605	27991
820.746	27941
820.886	27880
821.026	27987
821.167	27983
821.307	27934
821.447	27892
821.588	27895
821.728	27705
821.868	27587
822.008	27443
822.149	27340
822.289	27279
822.429	27001
822.569	27058
822.709	27005
822.849	26986
822.99	26864
823.13	26853
823.27	26800
823.41	26670
823.55	26545
823.69	26644
823.83	26765
823.97	26594
824.11	26446
824.25	26461
824.389	26526
824.529	26522
824.669	26415
824.809	26636
824.949	26636
825.089	26381
825.228	26594
825.368	26271
825.508	26290
825.648	26298
825.787	26351
825.927	26419
826.067	26419
826.206	26294
826.346	26358
826.485	26366
826.625	26199
826.765	26377
826.904	26317
827.044	26248
827.183	26138
827.323	25917
827.462	26134
827.601	25978
827.741	26092
827.88	26119
828.02	25864
828.159	26077
828.298	26073
828.437	26130
828.577	26031
828.716	26115
828.855	25936
828.994	25807
829.134	25852
829.273	25864
829.412	25674
829.551	25651
829.69	25666
829.829	25750
829.968	25807
830.107	25875
830.246	25791
830.385	25715
830.524	25540
830.663	25468
830.802	25453
830.941	25415
831.08	25175
831.219	25434
831.357	25316
831.496	25540
831.635	25392
831.774	25285
831.913	25316
832.051	25160
832.19	25198
832.329	25160
832.467	24977
832.606	25027
832.744	24943
832.883	25069
833.022	24977
833.16	25034
833.299	25019
833.437	25076
833.576	25088
833.714	25080
833.852	25080
833.991	25202
834.129	25183
834.267	25232
834.406	25236
834.544	25129
834.682	25221
834.821	25088
834.959	25221
835.097	25015
835.235	25126
835.373	25152
835.511	25050
835.65	24935
835.788	24886
835.926	24753
836.064	24791
836.202	24848
836.34	24920
836.478	24962
836.615	24981
836.753	24924
836.891	24977
837.029	25027
837.167	24837
837.305	24745
837.443	24802
837.58	24696
837.718	24700
837.856	24783
837.993	24757
838.131	24787
838.269	24574
838.406	24608
838.544	24513
838.681	24563
838.819	24353
838.956	24106
839.094	24216
839.231	24182
839.369	24334
839.506	24639
839.643	24563
839.781	24186
839.918	24186
840.055	24163
840.193	24140
840.33	24102
840.467	24114
840.604	24201
840.742	24361
840.879	23908
841.016	24007
841.153	23988
841.29	24194
841.427	24076
841.564	24117
841.701	24079
841.838	24083
841.975	24007
842.112	24102
842.249	23961
842.385	23824
842.522	24091
842.659	23897
842.796	23882
842.933	23882
843.069	23695
843.206	23836
843.343	23927
843.479	23847
843.616	23916
843.752	23661
843.889	23676
844.025	23821
844.162	23653
844.298	23824
844.435	23707
844.571	23665
844.708	23699
844.844	23760
844.98	23722
845.117	23684
845.253	23581
845.389	23573
845.525	23554
845.661	23414
845.798	23334
845.934	23410
846.07	23509
846.206	23398
846.342	23395
846.478	23368
846.614	23189
846.75	23048
846.886	23052
847.022	23166
847.158	23052
847.294	23121
847.429	23178
847.565	23090
847.701	23296
847.837	22725
847.972	22786
848.108	22854
848.244	22831
848.379	22778
848.515	22698
848.65	22812
848.786	22675
848.921	22626
849.057	22812
849.192	22668
849.328	22683
849.463	22717
849.598	22493
849.734	22500
849.869	22493
850.004	22523
850.14	22462
850.275	22436
850.41	22409
850.545	22497
850.68	22356
850.815	22474
850.95	22424
851.085	22679
851.22	22683
851.355	22554
851.49	22394
851.625	22398
851.76	22413
851.895	22356
852.03	22386
852.165	22363
852.299	22455
852.434	22641
852.569	22500
852.703	22451
852.838	22451
852.973	22500
853.107	22607
853.242	22382
853.376	22200
853.511	22166
853.645	22211
853.78	22363
853.914	22234
854.048	22325
854.183	22310
854.317	22367
854.451	22382
854.585	22219
854.72	22230
854.854	22303
854.988	22173
855.122	22249
855.256	22162
855.39	22181
855.524	22363
855.658	22223
855.792	22344
855.926	22287
856.06	22219
856.194	22242
856.327	22234
856.461	22192
856.595	22204
856.729	22185
856.862	22417
856.996	22386
857.13	22356
857.263	22325
857.397	22242
857.53	22219
857.664	22219
857.797	22409
857.931	22337
858.064	22200
858.197	22451
858.331	22246
858.464	22154
858.597	22112
858.731	22215
858.864	22234
858.997	22204
859.13	22177
859.263	22287
859.396	22284
859.529	22158
859.662	22257
859.795	22284
859.928	22257
860.061	22527
860.194	22390
860.327	22405
860.46	22318
860.592	22390
860.725	22413
860.858	22344
860.99	22329
861.123	22173
861.256	22234
861.388	22169
861.521	22999
861.653	22234
861.786	22109
861.918	22093
862.05	22090
862.183	22139
862.315	22261
862.447	22234
862.58	22204
862.712	22124
862.844	21907
862.976	22074
863.108	22124
863.24	22573
863.372	21857
863.504	21937
863.636	21937
863.768	21975
863.9	21972
864.032	21873
864.164	21873
864.296	21994
864.428	22029
864.559	22055
864.691	22032
864.823	21930
864.954	21941
865.086	21838
865.217	21926
865.349	21861
865.48	21785
865.612	21888
865.743	21960
865.875	21846
866.006	21785
866.137	21705
866.269	21842
866.4	21766
866.531	21816
866.662	21823
866.793	21686
866.924	21892
867.055	21732
867.186	21903
867.317	21724
867.448	21785
867.579	21793
867.71	21789
867.841	21675
867.972	21789
868.103	21876
868.233	21679
868.364	21827
868.495	21869
868.625	22086
868.756	22128
868.886	22070
869.017	21998
869.147	22128
869.278	22116
869.408	22032
869.539	21991
869.669	22029
869.799	22082
869.929	22162
870.06	22196
870.19	22356
870.32	22329
870.45	22310
870.58	22493
870.71	22618
870.84	22637
870.97	22512
871.1	22493
871.23	22603
871.36	22782
871.489	22691
871.619	22599
871.749	22672
871.879	22618
872.008	22706
872.138	22531
872.267	22607
872.397	22428
872.526	22375
872.656	22493
872.785	22580
872.915	22736
873.044	22721
873.173	22660
873.303	22839
873.432	22580
873.561	22755
873.69	22694
873.819	22641
873.948	22736
874.077	22637
874.206	22656
874.335	22672
874.464	22812
874.593	23014
874.722	22759
874.851	22892
874.979	22976
875.108	22961
875.237	22866
875.365	22843
875.494	22828
875.623	23010
875.751	22873
875.88	22828
876.008	22980
876.136	23094
876.265	23246
876.393	23410
876.521	23383
876.65	23326
876.778	23197
876.906	23185
877.034	23239
877.162	23288
877.29	23227
877.418	23353
877.546	23326
877.674	23204
877.802	23242
877.93	23277
878.058	23204
878.185	23086
878.313	23265
878.441	23410
878.568	23083
878.696	23170
878.824	23178
878.951	23330
879.079	23425
879.206	23573
879.333	23402
879.461	23292
879.588	23330
879.715	23395
879.842	23642
879.97	23296
880.097	23105
880.224	23067
880.351	23094
880.478	23022
880.605	23029
880.732	23128
880.859	23197
880.986	23094
881.112	23003
881.239	22820
881.366	22740
881.493	22717
881.619	22630
881.746	22698
881.872	22531
881.999	22649
882.125	22637
882.252	22672
882.378	22660
882.505	22664
882.631	22379
882.757	22337
882.883	22382
883.01	22295
883.136	22268
883.262	22166
883.388	22051
883.514	22272
883.64	22337
883.766	22211
883.892	22055
884.018	22131
884.143	22360
884.269	22352
884.395	22025
884.52	22017
884.646	22013
884.772	21987
884.897	21934
885.023	21926
885.148	21972
885.274	22029
885.399	21983
885.524	21953
885.65	21964
885.775	22082
885.9	21945
886.025	22059
886.15	21907
886.275	21994
886.4	21838
886.525	21937
886.65	21797
886.775	21876
886.9	22078
887.025	22185
887.149	21930
887.274	21732
887.399	21709
887.523	21675
887.648	21610
887.773	21557
887.897	21755
888.021	21762
888.146	21591
888.27	21781
888.395	21728
888.519	21747
888.643	21698
888.767	21770
888.891	21618
889.015	21542
889.139	21572
889.263	21488
889.387	21622
889.511	21717
889.635	21549
889.759	21359
889.883	21507
890.006	21439
890.13	21557
890.254	21340
890.377	21424
890.501	21283
890.624	21169
890.748	21310
890.871	21066
890.995	21116
891.118	20963
891.241	21135
891.364	21116
891.488	21058
891.611	20990
891.734	21051
891.857	21279
891.98	20979
892.103	21020
892.226	20963
892.349	20998
892.471	20834
892.594	20956
892.717	20975
892.839	20765
892.962	21020
893.085	20960
893.207	20899
893.33	20883
893.452	21005
893.575	21013
893.697	20948
893.819	21009
893.941	21081
894.064	21009
894.186	20826
894.308	20876
894.43	21047
894.552	21127
894.674	20971
894.796	20815
894.918	20754
895.04	20811
895.161	20990
895.283	20982
895.405	20758
895.526	20872
895.648	20876
895.769	20960
895.891	20956
896.012	21009
896.134	20994
896.255	20979
896.376	20864
896.498	20872
896.619	20944
896.74	20952
896.861	20929
896.982	21173
897.103	21344
897.224	21241
897.345	21169
897.466	21074
897.587	21074
897.708	21226
897.828	21203
897.949	21051
898.07	20967
898.19	20960
898.311	21131
898.431	21127
898.552	21112
898.672	21096
898.792	21226
898.913	21127
899.033	20979
899.153	20868
899.273	20868
899.393	20887
899.513	20826
899.633	20864
899.753	20811
899.873	20754
899.993	20815
900.113	20727
900.232	20876
900.352	20834
900.472	20644
900.591	20579
900.711	20590
900.83	20549
900.95	20705
901.069	20777
901.189	20404
901.308	20240
901.427	20199
901.546	20218
901.665	20119
901.784	20187
901.904	20084
902.023	20046
902.141	19784
902.26	19742
902.379	19830
902.498	19776
902.617	19670
902.735	19753
902.854	19643
902.973	19613
903.091	19377
903.21	19285
903.328	19396
903.446	19247
903.565	19156
903.683	19175
903.801	19015
903.919	19084
904.038	19160
904.156	19042
904.274	19031
904.392	18863
904.51	18837
904.627	18882
904.745	18837
904.863	18966
904.981	18722
905.098	18563
905.216	18517
905.334	18574
905.451	18654
905.569	18475
905.686	18608
905.803	18608
905.921	18391
906.038	18467
906.155	18384
906.272	18338
906.389	18285
906.506	18220
906.623	18129
906.74	18159
906.857	17996
906.974	18083
907.091	18266
907.208	18304
907.324	18091
907.441	18011
907.557	17885
907.674	17912
907.79	17661
907.907	17779
908.023	17882
908.139	17809
908.256	17699
908.372	17634
908.488	17756
908.604	17566
908.72	17448
908.836	17638
908.952	17562
909.068	17520
909.184	17687
909.3	17532
909.415	17512
909.531	17547
909.647	17208
909.762	17208
909.878	17277
909.993	17113
910.108	17075
910.224	17105
910.339	17223
910.454	17124
910.57	16999
910.685	16938
910.8	17220
910.915	17200
911.03	16972
911.145	16885
911.259	16755
911.374	16729
911.489	16755
911.604	16725
911.718	16580
911.833	16558
911.947	16322
912.062	16409
912.176	16611
912.291	16634
912.405	16447
912.519	16702
912.633	16702
912.748	16637
912.862	16485
912.976	16402
913.09	16162
913.204	16348
913.318	16337
913.431	16478
913.545	16322
913.659	16424
913.772	16246
913.886	16173
914	16185
914.113	16162
914.226	16265
914.34	16242
914.453	16051
914.566	16169
914.68	15983
914.793	16059
914.906	15892
915.019	15778
915.132	15770
915.245	15701
915.358	15789
915.47	15709
915.583	15698
915.696	15816
915.809	15774
915.921	15903
916.034	15774
916.146	15667
916.259	15618
916.371	15797
916.483	15652
916.595	15595
916.708	15561
916.82	15526
916.932	15405
917.044	15519
917.156	15557
917.268	15382
917.38	15359
917.491	15279
917.603	15408
917.715	15397
917.826	15492
917.938	15321
918.049	15230
918.161	15298
918.272	15355
918.384	15477
918.495	15321
918.606	15131
918.717	15066
918.828	15230
918.939	15119
919.05	15077
919.161	15047
919.272	14861
919.383	14864
919.494	15142
919.604	15325
919.715	15108
919.826	15043
919.936	15112
920.047	15032
920.157	15047
920.267	15218
920.378	15081
920.488	15024
920.598	15252
920.708	15310
920.818	15214
920.928	15180
921.038	15351
921.148	15336
921.258	15036
921.368	14937
921.477	14838
921.587	14739
921.697	14575
921.806	14807
921.916	14674
922.025	14412
922.134	14419
922.244	14442
922.353	14450
922.462	14233
922.571	14191
922.68	14084
922.789	14126
922.898	14142
923.007	14107
923.116	14107
923.224	14100
923.333	14016
923.442	13894
923.55	13830
923.659	13925
923.767	13909
923.876	13879
923.984	13932
924.092	13746
924.201	13830
924.309	13780
924.417	13769
924.525	13750
924.633	13788
924.741	14492
924.849	13487
924.956	13616
925.064	13563
925.172	13369
925.279	13438
925.387	13392
925.494	13483
925.602	13578
925.709	13499
925.816	13384
925.924	13259
926.031	13449
926.138	13362
926.245	13449
926.352	13301
926.459	13388
926.566	13483
926.673	13327
926.779	13179
926.886	13194
926.993	13088
927.099	12939
927.206	12901
927.312	12989
927.419	13065
927.525	13076
927.631	12989
927.737	12863
927.843	12913
927.95	12757
928.056	12821
928.162	12871
928.267	12970
928.373	13487
928.479	12913
928.585	12707
928.69	12776
928.796	12829
928.901	12681
929.007	12585
929.112	12646
929.218	12566
929.323	12623
929.428	12517
929.533	12673
929.638	12513
929.743	12494
929.848	12479
929.953	12433
930.058	12338
930.163	12201
930.267	12216
930.372	12395
930.477	12155
930.581	12334
930.685	12308
930.79	12171
930.894	12121
930.998	11961
931.103	12190
931.207	11847
931.311	11657
931.415	11615
931.519	11471
931.623	11512
