Data from test_V78500241_1402.txt Node
Date: Fri Mar 25 15:51:30 CST 2022
User: usil
Spectrometer: V785-0024
Trigger mode: 0
Integration Time (sec): 4.000000E-1
Scans to average: 1
Nonlinearity correction enabled: false
Boxcar width: 0
Storing dark spectrum: false
XAxis mode: Wavelengths
Number of Pixels in Spectrum: 1024
>>>>>Begin Spectral Data<<<<<
801.071	28025
801.214	28017
801.356	27789
801.499	27759
801.641	27568
801.783	27568
801.926	27633
802.068	27618
802.211	27378
802.353	27447
802.496	27355
802.638	27359
802.78	27180
802.923	27135
803.065	27135
803.208	27131
803.35	27203
803.492	27306
803.635	27306
803.777	27332
803.919	27431
804.061	27766
804.204	27466
804.346	27355
804.488	27416
804.63	27336
804.773	27279
804.915	27504
805.057	27526
805.199	27279
805.341	27447
805.483	27549
805.626	27530
805.768	27485
805.91	27599
806.052	27625
806.194	27591
806.336	27774
806.478	27595
806.62	27538
806.762	27641
806.904	27675
807.046	28048
807.188	28036
807.33	27987
807.472	28002
807.614	27968
807.756	27956
807.898	27899
808.04	27907
808.182	27709
808.324	27907
808.465	27880
808.607	28128
808.749	28147
808.891	28299
809.033	28363
809.174	28299
809.316	28177
809.458	28169
809.6	28265
809.741	28268
809.883	28299
810.025	28497
810.166	28436
810.308	28478
810.45	28519
810.591	28394
810.733	28219
810.875	28101
811.016	28215
811.158	28055
811.299	28272
811.441	28432
811.582	28424
811.724	28166
811.865	28196
812.007	28337
812.148	28234
812.29	28299
812.431	28428
812.573	28371
812.714	28497
812.855	28740
812.997	28923
813.138	28984
813.279	28653
813.421	28767
813.562	28702
813.703	28466
813.845	28348
813.986	28188
814.127	27914
814.268	27888
814.41	27983
814.551	27857
814.692	27937
814.833	27854
814.974	27865
815.115	27876
815.256	27698
815.397	27838
815.539	27781
815.68	27656
815.821	27496
815.962	27759
816.103	27603
816.244	27447
816.385	27618
816.526	27507
816.666	27302
816.807	27096
816.948	27351
817.089	27268
817.23	27203
817.371	27199
817.512	27264
817.653	27173
817.793	27211
817.934	27260
818.075	27252
818.216	27233
818.356	27127
818.497	27077
818.638	26929
818.778	27017
818.919	26899
819.06	26933
819.2	27024
819.341	27066
819.481	27294
819.622	27359
819.762	27397
819.903	27389
820.043	27302
820.184	27340
820.324	27264
820.465	27272
820.605	27283
820.746	27233
820.886	27089
821.026	27291
821.167	27332
821.307	27241
821.447	27230
821.588	27192
821.728	26910
821.868	26762
822.008	26716
822.149	26773
822.289	26670
822.429	26404
822.569	26480
822.709	26511
822.849	26202
822.99	26210
823.13	26256
823.27	26138
823.41	25925
823.55	25902
823.69	25978
823.83	25902
823.97	25963
824.11	25655
824.25	25685
824.389	25826
824.529	25887
824.669	25837
824.809	25959
824.949	25955
825.089	25799
825.228	25826
825.368	25814
825.508	25727
825.648	25628
825.787	25784
825.927	25723
826.067	25689
826.206	25655
826.346	25757
826.485	25715
826.625	25666
826.765	25689
826.904	25681
827.044	25369
827.183	25373
827.323	25529
827.462	25426
827.601	25400
827.741	25419
827.88	25533
828.02	25255
828.159	25411
828.298	25407
828.437	25594
828.577	25369
828.716	25544
828.855	25415
828.994	25107
829.134	25046
829.273	25057
829.412	25110
829.551	25206
829.69	24989
829.829	25076
829.968	25206
830.107	25129
830.246	25206
830.385	24996
830.524	24932
830.663	24970
830.802	24905
830.941	24604
831.08	24734
831.219	24734
831.357	24894
831.496	24924
831.635	24696
831.774	24585
831.913	24513
832.051	24502
832.19	24460
832.329	24597
832.467	24528
832.606	24353
832.744	24296
832.883	24365
833.022	24334
833.16	24399
833.299	24323
833.437	24486
833.576	24391
833.714	24490
833.852	24505
833.991	24574
834.129	24555
834.267	24555
834.406	24467
834.544	24471
834.682	24426
834.821	24433
834.959	24578
835.097	24418
835.235	24403
835.373	24422
835.511	24395
835.65	24315
835.788	24342
835.926	24167
836.064	24083
836.202	24155
836.34	24258
836.478	24376
836.615	24391
836.753	24209
836.891	24155
837.029	24129
837.167	24194
837.305	24159
837.443	24201
837.58	24159
837.718	24171
837.856	24079
837.993	23946
838.131	24102
838.269	24083
838.406	23969
838.544	23984
838.681	23760
838.819	23687
838.956	23585
839.094	23596
839.231	23630
839.369	23847
839.506	24068
839.643	23802
839.781	23444
839.918	23493
840.055	23528
840.193	23589
840.33	23448
840.467	23600
840.604	23455
840.742	23687
840.879	23535
841.016	23360
841.153	23395
841.29	23646
841.427	23566
841.564	23478
841.701	23585
841.838	23497
841.975	23360
842.112	23379
842.249	23353
842.385	23299
842.522	23482
842.659	23402
842.796	23227
842.933	23124
843.069	23204
843.206	23151
843.343	23151
843.479	23265
843.616	23258
843.752	22965
843.889	23094
844.025	23140
844.162	22957
844.298	23170
844.435	23067
844.571	22980
844.708	23014
844.844	23303
844.98	23159
845.117	23094
845.253	23033
845.389	22839
845.525	22885
845.661	22873
845.798	22656
845.934	22790
846.07	22801
846.206	22687
846.342	22965
846.478	22710
846.614	22519
846.75	22424
846.886	22497
847.022	22569
847.158	22497
847.294	22466
847.429	22561
847.565	22421
847.701	22736
847.837	22169
847.972	22128
848.108	22333
848.244	22318
848.379	22120
848.515	22158
848.65	21979
848.786	22116
848.921	21975
849.057	22276
849.192	22257
849.328	22177
849.463	22029
849.598	22032
849.734	21983
849.869	21823
850.004	21808
850.14	21827
850.275	21774
850.41	21781
850.545	21785
850.68	21778
850.815	21846
850.95	21793
851.085	22112
851.22	21968
851.355	21922
851.49	21831
851.625	21793
851.76	21709
851.895	21808
852.03	21724
852.165	21759
852.299	21823
852.434	21934
852.569	21861
852.703	21705
852.838	21873
852.973	22017
853.107	21979
853.242	21694
853.376	21766
853.511	21504
853.645	21629
853.78	21793
853.914	21652
854.048	21568
854.183	21583
854.317	21728
854.451	21857
854.585	21587
854.72	21747
854.854	21599
854.988	21583
855.122	21663
855.256	21564
855.39	21523
855.524	21747
855.658	21705
855.792	21564
855.926	21686
856.06	21732
856.194	21652
856.327	21618
856.461	21549
856.595	21439
856.729	21576
856.862	21732
856.996	21641
857.13	21724
857.263	21762
857.397	21812
857.53	21553
857.664	21629
857.797	21610
857.931	21762
858.064	21526
858.197	21743
858.331	21667
858.464	21618
858.597	21420
858.731	21526
858.864	21583
858.997	21644
859.13	21701
859.263	21553
859.396	21728
859.529	21633
859.662	21549
859.795	21553
859.928	21618
860.061	21827
860.194	21770
860.327	21595
860.46	21641
860.592	21762
860.725	21766
860.858	21705
860.99	21507
861.123	21481
861.256	21542
861.388	21660
861.521	22470
861.653	21428
861.786	21454
861.918	21492
862.05	21587
862.183	21583
862.315	21538
862.447	21671
862.58	21549
862.712	21351
862.844	21340
862.976	21439
863.108	21450
863.24	21888
863.372	21435
863.504	21272
863.636	21321
863.768	21344
863.9	21389
864.032	21321
864.164	21325
864.296	21401
864.428	21466
864.559	21374
864.691	21462
864.823	21325
864.954	21382
865.086	21443
865.217	21359
865.349	21249
865.48	21195
865.612	21291
865.743	21370
865.875	21184
866.006	21252
866.137	21264
866.269	21188
866.4	21252
866.531	21066
866.662	21093
866.793	21116
866.924	21119
867.055	21188
867.186	21184
867.317	21100
867.448	21058
867.579	21055
867.71	21047
867.841	21058
867.972	21043
868.103	21100
868.233	21233
868.364	21127
868.495	21233
868.625	21405
868.756	21542
868.886	21466
869.017	21340
869.147	21595
869.278	21526
869.408	21351
869.539	21378
869.669	21545
869.799	21424
869.929	21557
870.06	21561
870.19	21675
870.32	21705
870.45	21717
870.58	21861
870.71	21968
870.84	21808
870.97	21778
871.1	21751
871.23	21964
871.36	21987
871.489	21895
871.619	21998
871.749	21968
871.879	22010
872.008	22025
872.138	22074
872.267	22040
872.397	21930
872.526	21842
872.656	21865
872.785	21736
872.915	22021
873.044	22207
873.173	22162
873.303	22139
873.432	22109
873.561	22219
873.69	22002
873.819	22116
873.948	22063
874.077	22188
874.206	22051
874.335	22082
874.464	22147
874.593	22287
874.722	22112
874.851	22314
874.979	22329
875.108	22352
875.237	22120
875.365	22223
875.494	22234
875.623	22272
875.751	22181
875.88	22215
876.008	22485
876.136	22382
876.265	22660
876.393	22892
876.521	22713
876.65	22729
876.778	22649
876.906	22626
877.034	22615
877.162	22649
877.29	22542
877.418	22615
877.546	22626
877.674	22645
877.802	22561
877.93	22645
878.058	22542
878.185	22535
878.313	22550
878.441	22569
878.568	22440
878.696	22493
878.824	22573
878.951	22702
879.079	22679
879.206	22858
879.333	22847
879.461	22554
879.588	22656
879.715	22698
879.842	22793
879.97	22603
880.097	22440
880.224	22489
880.351	22409
880.478	22409
880.605	22478
880.732	22451
880.859	22630
880.986	22573
881.112	22470
881.239	22333
881.366	22120
881.493	22128
881.619	21953
881.746	22074
881.872	21983
881.999	21994
882.125	21949
882.252	21934
882.378	21991
882.505	22029
882.631	21930
882.757	21724
882.883	21869
883.01	21690
883.136	21629
883.262	21564
883.388	21469
883.514	21618
883.64	21660
883.766	21679
883.892	21450
884.018	21519
884.143	21705
884.269	21720
884.395	21397
884.52	21283
884.646	21447
884.772	21325
884.897	21291
885.023	21382
885.148	21283
885.274	21507
885.399	21443
885.524	21370
885.65	21359
885.775	21249
885.9	21272
886.025	21370
886.15	21355
886.275	21401
886.4	21173
886.525	21291
886.65	21233
886.775	21207
886.9	21439
887.025	21568
887.149	21260
887.274	21104
887.399	21077
887.523	21089
887.648	21119
887.773	20990
887.897	21108
888.021	21123
888.146	21062
888.27	21161
888.395	21272
888.519	21077
888.643	21070
888.767	21096
888.891	21024
889.015	20762
889.139	21066
889.263	20960
889.387	21009
889.511	21024
889.635	21070
889.759	20823
889.883	20834
890.006	20887
890.13	20975
890.254	20819
890.377	20750
890.501	20674
890.624	20670
890.748	20651
890.871	20571
890.995	20530
891.118	20473
891.241	20579
891.364	20511
891.488	20583
891.611	20560
891.734	20484
891.857	20575
891.98	20465
892.103	20377
892.226	20450
892.349	20454
892.471	20237
892.594	20434
892.717	20298
892.839	20381
892.962	20434
893.085	20408
893.207	20351
893.33	20206
893.452	20138
893.575	20419
893.697	20336
893.819	20518
893.941	20564
894.064	20408
894.186	20366
894.308	20286
894.43	20514
894.552	20427
894.674	20499
894.796	20305
894.918	20355
895.04	20336
895.161	20385
895.283	20473
895.405	20275
895.526	20343
895.648	20305
895.769	20343
895.891	20461
896.012	20450
896.134	20370
896.255	20450
896.376	20370
896.498	20434
896.619	20347
896.74	20332
896.861	20427
896.982	20659
897.103	20838
897.224	20670
897.345	20613
897.466	20514
897.587	20644
897.708	20697
897.828	20598
897.949	20571
898.07	20389
898.19	20587
898.311	20564
898.431	20716
898.552	20499
898.672	20708
898.792	20750
898.913	20484
899.033	20423
899.153	20423
899.273	20233
899.393	20286
899.513	20484
899.633	20324
899.753	20385
899.873	20214
899.993	20301
900.113	20183
900.232	20180
900.352	20408
900.472	20172
900.591	20001
900.711	20084
900.83	20039
900.95	20172
901.069	20298
901.189	19997
901.308	19651
901.427	19696
901.546	19685
901.665	19658
901.784	19681
901.904	19518
902.023	19453
902.141	19225
902.26	19274
902.379	19324
902.498	19110
902.617	19183
902.735	19217
902.854	19240
902.973	19107
903.091	18897
903.21	18928
903.328	18867
903.446	18753
903.565	18696
903.683	18593
903.801	18635
903.919	18654
904.038	18635
904.156	18445
904.274	18441
904.392	18372
904.51	18388
904.627	18327
904.745	18422
904.863	18502
904.981	18224
905.098	18133
905.216	18060
905.334	18152
905.451	18068
905.569	18087
905.686	18091
905.803	18053
905.921	17798
906.038	17870
906.155	17885
906.272	17828
906.389	17855
906.506	17748
906.623	17665
906.74	17653
906.857	17478
906.974	17551
907.091	17615
907.208	17741
907.324	17646
907.441	17608
907.557	17220
907.674	17379
907.79	17269
907.907	17379
908.023	17364
908.139	17292
908.256	17326
908.372	17220
908.488	17121
908.604	17170
908.72	17022
908.836	16949
908.952	16995
909.068	17052
909.184	17128
909.3	17105
909.415	17071
909.531	17041
909.647	16812
909.762	16778
909.878	16710
909.993	16763
910.108	16759
910.224	16672
910.339	16668
910.454	16485
910.57	16569
910.685	16508
910.8	16740
910.915	16752
911.03	16584
911.145	16329
911.259	16367
911.374	16329
911.489	16295
911.604	16204
911.718	16036
911.833	16124
911.947	16002
912.062	15937
912.176	16067
912.291	16021
912.405	15987
912.519	16272
912.633	16337
912.748	16169
912.862	16105
912.976	15846
913.09	15747
913.204	15759
913.318	15873
913.431	15922
913.545	15994
913.659	15941
913.772	15793
913.886	15747
914	15736
914.113	15698
914.226	15953
914.34	15778
914.453	15504
914.566	15667
914.68	15603
914.793	15485
914.906	15424
915.019	15313
915.132	15226
915.245	15310
915.358	15355
915.47	15329
915.583	15313
915.696	15325
915.809	15329
915.921	15439
916.034	15188
916.146	15237
916.259	15222
916.371	15450
916.483	15233
916.595	15123
916.708	15112
916.82	15138
916.932	15047
917.044	15062
917.156	15005
917.268	14876
917.38	14994
917.491	14941
917.603	14895
917.715	15085
917.826	15036
917.938	14819
918.049	14693
918.161	14902
918.272	15020
918.384	14960
918.495	14864
918.606	14617
918.717	14648
918.828	14720
918.939	14746
919.05	14632
919.161	14575
919.272	14537
919.383	14533
919.494	14754
919.604	14910
919.715	14651
919.826	14537
919.936	14678
920.047	14613
920.157	14640
920.267	14857
920.378	14686
920.488	14606
920.598	14762
920.708	14971
920.818	14788
920.928	14785
921.038	14956
921.148	14944
921.258	14655
921.368	14590
921.477	14305
921.587	14377
921.697	14320
921.806	14374
921.916	14210
922.025	14096
922.134	14005
922.244	14046
922.353	14046
922.462	13982
922.571	13849
922.68	13677
922.789	13738
922.898	13658
923.007	13677
923.116	13712
923.224	13693
923.333	13651
923.442	13518
923.55	13495
923.659	13521
923.767	13651
923.876	13453
923.984	13426
924.092	13354
924.201	13419
924.309	13422
924.417	13430
924.525	13365
924.633	13384
924.741	14161
924.849	13053
924.956	13293
925.064	13103
925.172	13076
925.279	13072
925.387	13175
925.494	13164
925.602	13217
925.709	13160
925.816	12954
925.924	13019
926.031	13095
926.138	13050
926.245	13072
926.352	12913
926.459	13069
926.566	13145
926.673	12966
926.779	12837
926.886	12837
926.993	12749
927.099	12654
927.206	12566
927.312	12574
927.419	12662
927.525	12658
927.631	12673
927.737	12532
927.843	12486
927.95	12361
928.056	12445
928.162	12467
928.267	12467
928.373	13145
928.479	12528
928.585	12296
928.69	12521
928.796	12448
928.901	12376
929.007	12201
929.112	12247
929.218	12273
929.323	12254
929.428	12076
929.533	12304
929.638	12171
929.743	12197
929.848	12133
929.953	12098
930.058	12140
930.163	11893
930.267	11901
930.372	11988
930.477	11847
930.581	12049
930.685	11885
930.79	11756
930.894	11821
930.998	11722
931.103	11863
931.207	11505
931.311	11520
931.415	11318
931.519	11136
931.623	11143
