Data from test_V78500241_420.txt Node
Date: Fri Mar 25 15:44:42 CST 2022
User: usil
Spectrometer: V785-0024
Trigger mode: 0
Integration Time (sec): 4.000000E-1
Scans to average: 1
Nonlinearity correction enabled: false
Boxcar width: 0
Storing dark spectrum: false
XAxis mode: Wavelengths
Number of Pixels in Spectrum: 1024
>>>>>Begin Spectral Data<<<<<
801.071	29265
801.214	29174
801.356	28797
801.499	28995
801.641	28801
801.783	28782
801.926	28896
802.068	28786
802.211	28820
802.353	28645
802.496	28421
802.638	28584
802.78	28443
802.923	28557
803.065	28409
803.208	28447
803.35	28432
803.492	28622
803.635	28618
803.777	28500
803.919	28653
804.061	28881
804.204	28645
804.346	28588
804.488	28679
804.63	28752
804.773	28504
804.915	28577
805.057	28702
805.199	28546
805.341	28653
805.483	28733
805.626	28816
805.768	28672
805.91	28713
806.052	28809
806.194	28740
806.336	28984
806.478	28885
806.62	28782
806.762	29033
806.904	29105
807.046	29387
807.188	29231
807.33	29193
807.472	29322
807.614	29197
807.756	29124
807.898	28965
808.04	29052
808.182	29067
808.324	29090
808.465	29098
808.607	29303
808.749	29398
808.891	29611
809.033	29581
809.174	29619
809.316	29471
809.458	29459
809.6	29512
809.741	29512
809.883	29585
810.025	29695
810.166	29653
810.308	29885
810.45	29672
810.591	29680
810.733	29459
810.875	29459
811.016	29368
811.158	29414
811.299	29577
811.441	29539
811.582	29611
811.724	29277
811.865	29455
812.007	29387
812.148	29452
812.29	29581
812.431	29627
812.573	29946
812.714	29954
812.855	30030
812.997	30087
813.138	30243
813.279	30049
813.421	29958
813.562	29897
813.703	29862
813.845	29714
813.986	29406
814.127	29284
814.268	29056
814.41	29151
814.551	29189
814.692	29178
814.833	29037
814.974	29147
815.115	29159
815.256	29003
815.397	29048
815.539	29075
815.68	28934
815.821	28740
815.962	28991
816.103	28873
816.244	28858
816.385	28713
816.526	28580
816.666	28531
816.807	28443
816.948	28394
817.089	28421
817.23	28436
817.371	28379
817.512	28466
817.653	28432
817.793	28360
817.934	28341
818.075	28299
818.216	28451
818.356	28367
818.497	28265
818.638	28112
818.778	28116
818.919	27964
819.06	28169
819.2	28261
819.341	28398
819.481	28379
819.622	28440
819.762	28649
819.903	28603
820.043	28607
820.184	28360
820.324	28481
820.465	28519
820.605	28455
820.746	28535
820.886	28249
821.026	28417
821.167	28569
821.307	28417
821.447	28390
821.588	28226
821.728	28101
821.868	28032
822.008	27823
822.149	27770
822.289	27827
822.429	27515
822.569	27447
822.709	27466
822.849	27340
822.99	27306
823.13	27226
823.27	27275
823.41	27013
823.55	26982
823.69	27157
823.83	27226
823.97	27062
824.11	26845
824.25	26902
824.389	26887
824.529	26971
824.669	27028
824.809	26994
824.949	27062
825.089	26857
825.228	27100
825.368	26735
825.508	26773
825.648	26678
825.787	26834
825.927	26845
826.067	26796
826.206	26777
826.346	26883
826.485	26853
826.625	26750
826.765	26914
826.904	26819
827.044	26629
827.183	26598
827.323	26469
827.462	26587
827.601	26450
827.741	26419
827.88	26579
828.02	26362
828.159	26419
828.298	26442
828.437	26450
828.577	26514
828.716	26530
828.855	26278
828.994	26221
829.134	26153
829.273	26225
829.412	26043
829.551	26161
829.69	26153
829.829	26218
829.968	26225
830.107	26233
830.246	26187
830.385	26119
830.524	25921
830.663	25925
830.802	25803
830.941	25662
831.08	25727
831.219	25750
831.357	25712
831.496	25913
831.635	25708
831.774	25586
831.913	25453
832.051	25518
832.19	25464
832.329	25460
832.467	25419
832.606	25274
832.744	25312
832.883	25449
833.022	25297
833.16	25388
833.299	25335
833.437	25384
833.576	25362
833.714	25396
833.852	25529
833.991	25422
834.129	25495
834.267	25373
834.406	25316
834.544	25304
834.682	25453
834.821	25304
834.959	25487
835.097	25457
835.235	25472
835.373	25354
835.511	25362
835.65	25240
835.788	25259
835.926	25183
836.064	24924
836.202	25175
836.34	25179
836.478	25217
836.615	25114
836.753	25183
836.891	25304
837.029	25202
837.167	25080
837.305	25072
837.443	25133
837.58	25057
837.718	25057
837.856	24973
837.993	24913
838.131	24913
838.269	24897
838.406	24989
838.544	24840
838.681	24661
838.819	24604
838.956	24376
839.094	24486
839.231	24498
839.369	24711
839.506	24909
839.643	24707
839.781	24505
839.918	24391
840.055	24467
840.193	24441
840.33	24315
840.467	24494
840.604	24369
840.742	24631
840.879	24216
841.016	24391
841.153	24163
841.29	24532
841.427	24414
841.564	24475
841.701	24410
841.838	24281
841.975	24277
842.112	24258
842.249	24197
842.385	24098
842.522	24292
842.659	24163
842.796	24041
842.933	24194
843.069	23954
843.206	23950
843.343	24152
843.479	24117
843.616	24152
843.752	23809
843.889	23965
844.025	23851
844.162	23912
844.298	23973
844.435	23783
844.571	23897
844.708	23748
844.844	24007
844.98	23931
845.117	23969
845.253	23703
845.389	23684
845.525	23646
845.661	23600
845.798	23608
845.934	23581
846.07	23497
846.206	23661
846.342	23703
846.478	23531
846.614	23349
846.75	23330
846.886	23269
847.022	23376
847.158	23136
847.294	23334
847.429	23250
847.565	23265
847.701	23410
847.837	22999
847.972	22968
848.108	23094
848.244	23147
848.379	22934
848.515	22752
848.65	22793
848.786	22873
848.921	22877
849.057	22980
849.192	22949
849.328	22869
849.463	22866
849.598	22839
849.734	22729
849.869	22561
850.004	22546
850.14	22561
850.275	22584
850.41	22523
850.545	22474
850.68	22561
850.815	22554
850.95	22500
851.085	22736
851.22	22748
851.355	22615
851.49	22489
851.625	22500
851.76	22519
851.895	22424
852.03	22413
852.165	22531
852.299	22668
852.434	22660
852.569	22542
852.703	22523
852.838	22664
852.973	22672
853.107	22656
853.242	22462
853.376	22512
853.511	22253
853.645	22398
853.78	22478
853.914	22398
854.048	22272
854.183	22337
854.317	22413
854.451	22531
854.585	22249
854.72	22413
854.854	22337
854.988	22287
855.122	22382
855.256	22192
855.39	22200
855.524	22356
855.658	22379
855.792	22344
855.926	22352
856.06	22409
856.194	22436
856.327	22314
856.461	22215
856.595	22303
856.729	22367
856.862	22455
856.996	22291
857.13	22466
857.263	22523
857.397	22493
857.53	22360
857.664	22318
857.797	22451
857.931	22337
858.064	22402
858.197	22440
858.331	22443
858.464	22246
858.597	22398
858.731	22188
858.864	22470
858.997	22284
859.13	22440
859.263	22405
859.396	22443
859.529	22238
859.662	22154
859.795	22265
859.928	22249
860.061	22607
860.194	22527
860.327	22295
860.46	22356
860.592	22440
860.725	22341
860.858	22577
860.99	22287
861.123	22219
861.256	22249
861.388	22402
861.521	22938
861.653	22257
861.786	22181
861.918	22116
862.05	22371
862.183	22230
862.315	22249
862.447	22314
862.58	22211
862.712	22082
862.844	22044
862.976	22124
863.108	22120
863.24	22554
863.372	21956
863.504	22048
863.636	22036
863.768	22067
863.9	22021
864.032	21941
864.164	22013
864.296	22139
864.428	22177
864.559	22093
864.691	22029
864.823	22006
864.954	21991
865.086	22006
865.217	21884
865.349	21892
865.48	21842
865.612	22070
865.743	21941
865.875	21781
866.006	21941
866.137	21987
866.269	21975
866.4	21823
866.531	21865
866.662	21789
866.793	21903
866.924	21827
867.055	21903
867.186	21888
867.317	21842
867.448	21720
867.579	21736
867.71	21701
867.841	21663
867.972	21907
868.103	21751
868.233	21732
868.364	21755
868.495	21903
868.625	22147
868.756	22204
868.886	21994
869.017	22082
869.147	22268
869.278	22181
869.408	22124
869.539	22029
869.669	22097
869.799	22044
869.929	22265
870.06	22204
870.19	22287
870.32	22356
870.45	22337
870.58	22485
870.71	22546
870.84	22516
870.97	22504
871.1	22596
871.23	22542
871.36	22596
871.489	22557
871.619	22752
871.749	22626
871.879	22740
872.008	22717
872.138	22691
872.267	22550
872.397	22546
872.526	22432
872.656	22542
872.785	22569
872.915	22611
873.044	22767
873.173	22573
873.303	22645
873.432	22771
873.561	22793
873.69	22729
873.819	22615
873.948	22725
874.077	22729
874.206	22577
874.335	22653
874.464	22782
874.593	22942
874.722	22976
874.851	22942
874.979	22942
875.108	22980
875.237	22854
875.365	22812
875.494	22877
875.623	22999
875.751	22873
875.88	22835
876.008	23014
876.136	23090
876.265	23269
876.393	23345
876.521	23292
876.65	23273
876.778	23277
876.906	23178
877.034	23220
877.162	23193
877.29	23174
877.418	23311
877.546	23341
877.674	23318
877.802	23147
877.93	23170
878.058	23143
878.185	23109
878.313	23170
878.441	23337
878.568	23022
878.696	23227
878.824	23151
878.951	23284
879.079	23376
879.206	23554
879.333	23395
879.461	23383
879.588	23341
879.715	23440
879.842	23493
879.97	23364
880.097	23113
880.224	23060
880.351	23189
880.478	23140
880.605	23022
880.732	23022
880.859	23258
880.986	23071
881.112	23060
881.239	22972
881.366	22831
881.493	22725
881.619	22736
881.746	22660
881.872	22694
881.999	22599
882.125	22603
882.252	22782
882.378	22554
882.505	22710
882.631	22497
882.757	22310
882.883	22405
883.01	22367
883.136	22405
883.262	22249
883.388	22276
883.514	22341
883.64	22337
883.766	22162
883.892	22082
884.018	22196
884.143	22211
884.269	22409
884.395	22029
884.52	21892
884.646	21960
884.772	21766
884.897	21797
885.023	21888
885.148	22067
885.274	22051
885.399	22051
885.524	21857
885.65	21930
885.775	21949
885.9	21926
886.025	22051
886.15	22006
886.275	21895
886.4	21800
886.525	21922
886.65	21873
886.775	21823
886.9	21972
887.025	22162
887.149	21979
887.274	21728
887.399	21580
887.523	21739
887.648	21641
887.773	21591
887.897	21751
888.021	21797
888.146	21603
888.27	21800
888.395	21720
888.519	21739
888.643	21755
888.767	21804
888.891	21595
889.015	21412
889.139	21583
889.263	21389
889.387	21519
889.511	21694
889.635	21648
889.759	21492
889.883	21431
890.006	21587
890.13	21622
890.254	21355
890.377	21363
890.501	21207
890.624	21146
890.748	21214
890.871	21009
890.995	20952
891.118	20929
891.241	21001
891.364	21017
891.488	21093
891.611	21039
891.734	21043
891.857	21112
891.98	21055
892.103	21062
892.226	21028
892.349	20902
892.471	20857
892.594	20963
892.717	20925
892.839	21017
892.962	20952
893.085	21176
893.207	20918
893.33	20883
893.452	20937
893.575	20994
893.697	20986
893.819	21119
893.941	21180
894.064	21062
894.186	20773
894.308	20735
894.43	20963
894.552	21062
894.674	21043
894.796	20796
894.918	20895
895.04	20872
895.161	21028
895.283	20868
895.405	20921
895.526	20849
895.648	20990
895.769	20921
895.891	20823
896.012	20895
896.134	21001
896.255	20891
896.376	20921
896.498	20899
896.619	20895
896.74	20887
896.861	20986
896.982	21199
897.103	21386
897.224	21199
897.345	21104
897.466	21150
897.587	21165
897.708	21260
897.828	21131
897.949	21256
898.07	20994
898.19	21055
898.311	21283
898.431	21020
898.552	21104
898.672	21173
898.792	21180
898.913	21001
899.033	21024
899.153	20971
899.273	20826
899.393	20845
899.513	20944
899.633	20781
899.753	20880
899.873	20724
899.993	20906
900.113	20689
900.232	20773
900.352	20788
900.472	20609
900.591	20587
900.711	20739
900.83	20560
900.95	20689
901.069	20769
901.189	20442
901.308	20298
901.427	20084
901.546	20168
901.665	20145
901.784	20164
901.904	20081
902.023	19944
902.141	19746
902.26	19635
902.379	19772
902.498	19704
902.617	19704
902.735	19795
902.854	19689
902.973	19571
903.091	19369
903.21	19388
903.328	19316
903.446	19183
903.565	19198
903.683	19129
903.801	19084
903.919	19008
904.038	19141
904.156	19019
904.274	18928
904.392	19012
904.51	18890
904.627	18852
904.745	18913
904.863	18905
904.981	18719
905.098	18593
905.216	18418
905.334	18570
905.451	18585
905.569	18490
905.686	18544
905.803	18616
905.921	18376
906.038	18464
906.155	18273
906.272	18209
906.389	18300
906.506	18015
906.623	18182
906.74	18083
906.857	17889
906.974	18015
907.091	18121
907.208	18216
907.324	18053
907.441	17950
907.557	17859
907.674	17809
907.79	17756
907.907	17687
908.023	17733
908.139	17809
908.256	17718
908.372	17528
908.488	17665
908.604	17448
908.72	17429
908.836	17524
908.952	17315
909.068	17463
909.184	17478
909.3	17467
909.415	17547
909.531	17417
909.647	17315
909.762	17185
909.878	17086
909.993	17079
910.108	17105
910.224	17094
910.339	17117
910.454	16995
910.57	16889
910.685	16987
910.8	17151
910.915	17162
911.03	16942
911.145	16801
911.259	16710
911.374	16717
911.489	16702
911.604	16580
911.718	16531
911.833	16459
911.947	16424
912.062	16447
912.176	16516
912.291	16493
912.405	16398
912.519	16675
912.633	16542
912.748	16451
912.862	16402
912.976	16226
913.09	16120
913.204	16318
913.318	16177
913.431	16519
913.545	16261
913.659	16325
913.772	16223
913.886	16006
914	16074
914.113	16093
914.226	16150
914.34	16143
914.453	15937
914.566	16078
914.68	15915
914.793	15964
914.906	15713
915.019	15644
915.132	15584
915.245	15694
915.358	15717
915.47	15625
915.583	15557
915.696	15705
915.809	15804
915.921	15774
916.034	15587
916.146	15538
916.259	15450
916.371	15591
916.483	15660
916.595	15568
916.708	15553
916.82	15443
916.932	15488
917.044	15466
917.156	15370
917.268	15313
917.38	15298
917.491	15279
917.603	15249
917.715	15332
917.826	15317
917.938	15264
918.049	15085
918.161	15260
918.272	15294
918.384	15329
918.495	15161
918.606	15097
918.717	14967
918.828	15116
918.939	15112
919.05	14891
919.161	14838
919.272	14842
919.383	14826
919.494	14948
919.604	15195
919.715	14948
919.826	14899
919.936	14921
920.047	15055
920.157	14971
920.267	15112
920.378	15047
920.488	14845
920.598	15058
920.708	15226
920.818	15142
920.928	15089
921.038	15195
921.148	15233
921.258	14982
921.368	14826
921.477	14735
921.587	14720
921.697	14598
921.806	14781
921.916	14537
922.025	14343
922.134	14313
922.244	14267
922.353	14377
922.462	14214
922.571	14134
922.68	14024
922.789	14001
922.898	13989
923.007	13852
923.116	14035
923.224	13940
923.333	14005
923.442	13845
923.55	13868
923.659	13674
923.767	13795
923.876	13708
923.984	13784
924.092	13666
924.201	13662
924.309	13655
924.417	13662
924.525	13586
924.633	13597
924.741	14419
924.849	13441
924.956	13590
925.064	13358
925.172	13346
925.279	13324
925.387	13388
925.494	13274
925.602	13476
925.709	13434
925.816	13278
925.924	13327
926.031	13381
926.138	13247
926.245	13369
926.352	13255
926.459	13373
926.566	13362
926.673	13198
926.779	13209
926.886	13050
926.993	13023
927.099	12924
927.206	12863
927.312	12852
927.419	12878
927.525	12909
927.631	12882
927.737	12772
927.843	12772
927.95	12612
928.056	12681
928.162	12696
928.267	12764
928.373	13354
928.479	12810
928.585	12525
928.69	12654
928.796	12757
928.901	12559
929.007	12448
929.112	12528
929.218	12475
929.323	12418
929.428	12452
929.533	12547
929.638	12376
929.743	12429
929.848	12395
929.953	12365
930.058	12262
930.163	12087
930.267	12121
930.372	12277
930.477	12015
930.581	12292
930.685	12125
930.79	12026
930.894	12095
930.998	11946
931.103	12068
931.207	11771
931.311	11634
931.415	11532
931.519	11372
931.623	11417
