Data from test_V78500241_3600.txt Node
Date: Fri Mar 25 16:06:44 CST 2022
User: usil
Spectrometer: V785-0024
Trigger mode: 0
Integration Time (sec): 4.000000E-1
Scans to average: 1
Nonlinearity correction enabled: false
Boxcar width: 0
Storing dark spectrum: false
XAxis mode: Wavelengths
Number of Pixels in Spectrum: 1024
>>>>>Begin Spectral Data<<<<<
801.071	28554
801.214	28497
801.356	28341
801.499	28348
801.641	28135
801.783	28207
801.926	28246
802.068	28249
802.211	28063
802.353	28032
802.496	27934
802.638	27949
802.78	27949
802.923	27743
803.065	27922
803.208	27960
803.35	27816
803.492	28181
803.635	28040
803.777	27899
803.919	28093
804.061	28493
804.204	28135
804.346	27998
804.488	28090
804.63	28010
804.773	27888
804.915	28135
805.057	28234
805.199	28131
805.341	28139
805.483	28268
805.626	28352
805.768	28116
805.91	28280
806.052	28295
806.194	28078
806.336	28440
806.478	28246
806.62	28322
806.762	28272
806.904	28519
807.046	28774
807.188	28744
807.33	28721
807.472	28736
807.614	28668
807.756	28535
807.898	28618
808.04	28630
808.182	28474
808.324	28630
808.465	28687
808.607	28831
808.749	28987
808.891	29041
809.033	29124
809.174	29060
809.316	28961
809.458	29006
809.6	28885
809.741	28957
809.883	29102
810.025	29250
810.166	29193
810.308	29315
810.45	29052
810.591	29204
810.733	29117
810.875	29010
811.016	28938
811.158	28744
811.299	29044
811.441	29052
811.582	29181
811.724	28995
811.865	28927
812.007	29098
812.148	29056
812.29	29029
812.431	29117
812.573	29421
812.714	29414
812.855	29501
812.997	29539
813.138	29691
813.279	29581
813.421	29444
813.562	29429
813.703	29322
813.845	29159
813.986	29079
814.127	28869
814.268	28691
814.41	28645
814.551	28592
814.692	28759
814.833	28755
814.974	28668
815.115	28828
815.256	28565
815.397	28603
815.539	28527
815.68	28653
815.821	28599
815.962	28691
816.103	28573
816.244	28265
816.385	28401
816.526	28139
816.666	28074
816.807	27892
816.948	28074
817.089	28101
817.23	28090
817.371	28025
817.512	27888
817.653	27892
817.793	27911
817.934	28017
818.075	27907
818.216	27949
818.356	28029
818.497	27914
818.638	27648
818.778	27694
818.919	27701
819.06	27797
819.2	27911
819.341	28109
819.481	28025
819.622	28093
819.762	28337
819.903	28371
820.043	28261
820.184	28196
820.324	28006
820.465	28105
820.605	28109
820.746	28055
820.886	27987
821.026	28135
821.167	28021
821.307	28093
821.447	28059
821.588	27941
821.728	27835
821.868	27637
822.008	27595
822.149	27519
822.289	27523
822.429	27211
822.569	27085
822.709	27154
822.849	26838
822.99	27005
823.13	26895
823.27	27036
823.41	26838
823.55	26769
823.69	26830
823.83	26769
823.97	26758
824.11	26571
824.25	26602
824.389	26594
824.529	26621
824.669	26613
824.809	26781
824.949	26796
825.089	26826
825.228	26724
825.368	26655
825.508	26522
825.648	26609
825.787	26682
825.927	26583
826.067	26518
826.206	26400
826.346	26594
826.485	26579
826.625	26473
826.765	26651
826.904	26629
827.044	26206
827.183	26278
827.323	26240
827.462	26294
827.601	26191
827.741	26210
827.88	26187
828.02	26145
828.159	26282
828.298	26195
828.437	26214
828.577	26161
828.716	26168
828.855	26046
828.994	25978
829.134	25788
829.273	26073
829.412	25841
829.551	25860
829.69	25993
829.829	26084
829.968	25978
830.107	26016
830.246	25940
830.385	25875
830.524	25856
830.663	25681
830.802	25635
830.941	25582
831.08	25426
831.219	25635
831.357	25708
831.496	25742
831.635	25540
831.774	25362
831.913	25293
832.051	25396
832.19	25289
832.329	25388
832.467	25179
832.606	25236
832.744	25118
832.883	25141
833.022	25091
833.16	25133
833.299	25217
833.437	25327
833.576	25209
833.714	25236
833.852	25396
833.991	25346
834.129	25441
834.267	25274
834.406	25308
834.544	25209
834.682	25141
834.821	25373
834.959	25487
835.097	25221
835.235	25327
835.373	25419
835.511	25137
835.65	25129
835.788	25076
835.926	25050
836.064	24943
836.202	24901
836.34	25164
836.478	25160
836.615	25000
836.753	25019
836.891	25126
837.029	25110
837.167	25027
837.305	24905
837.443	24909
837.58	24867
837.718	24867
837.856	24859
837.993	24890
838.131	25004
838.269	24909
838.406	24795
838.544	24661
838.681	24471
838.819	24467
838.956	24361
839.094	24422
839.231	24532
839.369	24658
839.506	24601
839.643	24635
839.781	24361
839.918	24311
840.055	24273
840.193	24201
840.33	24338
840.467	24330
840.604	24266
840.742	24597
840.879	24148
841.016	24182
841.153	24209
841.29	24418
841.427	24232
841.564	24365
841.701	24262
841.838	24273
841.975	24178
842.112	24323
842.249	24045
842.385	24041
842.522	24315
842.659	24220
842.796	24030
842.933	24011
843.069	23885
843.206	23965
843.343	24155
843.479	24076
843.616	24030
843.752	23836
843.889	23752
844.025	23977
844.162	23790
844.298	23904
844.435	23828
844.571	23798
844.708	23798
844.844	24060
844.98	23958
845.117	23977
845.253	23847
845.389	23653
845.525	23840
845.661	23634
845.798	23604
845.934	23718
846.07	23676
846.206	23539
846.342	23741
846.478	23634
846.614	23433
846.75	23288
846.886	23288
847.022	23455
847.158	23174
847.294	23288
847.429	23417
847.565	23204
847.701	23634
847.837	22949
847.972	23018
848.108	23067
848.244	23048
848.379	22782
848.515	22862
848.65	22740
848.786	22778
848.921	23018
849.057	22957
849.192	23067
849.328	22934
849.463	22915
849.598	22877
849.734	22820
849.869	22573
850.004	22607
850.14	22774
850.275	22710
850.41	22504
850.545	22649
850.68	22519
850.815	22675
850.95	22554
851.085	22805
851.22	22805
851.355	22694
851.49	22592
851.625	22618
851.76	22645
851.895	22462
852.03	22508
852.165	22668
852.299	22687
852.434	22656
852.569	22744
852.703	22713
852.838	22660
852.973	22835
853.107	22782
853.242	22611
853.376	22459
853.511	22284
853.645	22386
853.78	22523
853.914	22409
854.048	22306
854.183	22489
854.317	22481
854.451	22573
854.585	22440
854.72	22466
854.854	22577
854.988	22325
855.122	22436
855.256	22398
855.39	22402
855.524	22443
855.658	22535
855.792	22333
855.926	22424
856.06	22508
856.194	22649
856.327	22314
856.461	22386
856.595	22284
856.729	22466
856.862	22512
856.996	22497
857.13	22557
857.263	22588
857.397	22481
857.53	22485
857.664	22611
857.797	22516
857.931	22481
858.064	22512
858.197	22516
858.331	22504
858.464	22344
858.597	22295
858.731	22390
858.864	22363
858.997	22417
859.13	22390
859.263	22542
859.396	22451
859.529	22402
859.662	22299
859.795	22409
859.928	22443
860.061	22660
860.194	22706
860.327	22470
860.46	22512
860.592	22618
860.725	22630
860.858	22493
860.99	22497
861.123	22382
861.256	22333
861.388	22485
861.521	23147
861.653	22318
861.786	22257
861.918	22196
862.05	22215
862.183	22226
862.315	22398
862.447	22421
862.58	22440
862.712	22158
862.844	22226
862.976	22200
863.108	22287
863.24	22569
863.372	22204
863.504	22158
863.636	22276
863.768	22177
863.9	22211
864.032	22013
864.164	22158
864.296	22196
864.428	22192
864.559	22162
864.691	22230
864.823	22166
864.954	22200
865.086	22177
865.217	22036
865.349	21949
865.48	22086
865.612	22055
865.743	22295
865.875	22040
866.006	22078
866.137	21953
866.269	21907
866.4	21979
866.531	22048
866.662	21956
866.793	22101
866.924	21918
867.055	21926
867.186	21979
867.317	21968
867.448	21831
867.579	21899
867.71	22006
867.841	21972
867.972	21949
868.103	22006
868.233	21876
868.364	22067
868.495	21968
868.625	22093
868.756	22242
868.886	22143
869.017	22131
869.147	22333
869.278	22394
869.408	22200
869.539	22204
869.669	22280
869.799	22238
869.929	22424
870.06	22375
870.19	22557
870.32	22504
870.45	22493
870.58	22592
870.71	22729
870.84	22729
870.97	22710
871.1	22702
871.23	22660
871.36	22889
871.489	22683
871.619	22694
871.749	22805
871.879	22873
872.008	22938
872.138	22858
872.267	22831
872.397	22717
872.526	22710
872.656	22596
872.785	22683
872.915	22778
873.044	22976
873.173	22778
873.303	22812
873.432	22976
873.561	22976
873.69	22748
873.819	22873
873.948	22809
874.077	22843
874.206	22812
874.335	22763
874.464	22824
874.593	23124
874.722	22949
874.851	23113
874.979	23140
875.108	23037
875.237	23136
875.365	22938
875.494	22873
875.623	23075
875.751	23033
875.88	23033
876.008	23235
876.136	23220
876.265	23436
876.393	23608
876.521	23551
876.65	23478
876.778	23452
876.906	23410
877.034	23303
877.162	23543
877.29	23277
877.418	23493
877.546	23379
877.674	23307
877.802	23353
877.93	23299
878.058	23337
878.185	23261
878.313	23414
878.441	23364
878.568	23147
878.696	23345
878.824	23528
878.951	23436
879.079	23611
879.206	23680
879.333	23562
879.461	23417
879.588	23558
879.715	23486
879.842	23802
879.97	23376
880.097	23299
880.224	23181
880.351	23330
880.478	23079
880.605	23147
880.732	23330
880.859	23490
880.986	23181
881.112	23189
881.239	23170
881.366	22972
881.493	22889
881.619	22877
881.746	22812
881.872	22942
881.999	22763
882.125	22683
882.252	22771
882.378	22744
882.505	22850
882.631	22588
882.757	22398
882.883	22432
883.01	22440
883.136	22348
883.262	22314
883.388	22360
883.514	22557
883.64	22466
883.766	22325
883.892	22166
884.018	22166
884.143	22409
884.269	22489
884.395	22154
884.52	22135
884.646	22063
884.772	21930
884.897	21968
885.023	22078
885.148	22242
885.274	22234
885.399	22097
885.524	22082
885.65	21972
885.775	22101
885.9	22029
886.025	22215
886.15	22162
886.275	22101
886.4	22010
886.525	21987
886.65	21960
886.775	21972
886.9	22063
887.025	22158
887.149	22025
887.274	21804
887.399	21785
887.523	21876
887.648	21762
887.773	21690
887.897	21823
888.021	21835
888.146	21812
888.27	21873
888.395	21899
888.519	21816
888.643	21831
888.767	21797
888.891	21774
889.015	21694
889.139	21736
889.263	21671
889.387	21736
889.511	21789
889.635	21686
889.759	21705
889.883	21576
890.006	21564
890.13	21785
890.254	21477
890.377	21564
890.501	21378
890.624	21359
890.748	21363
890.871	21207
890.995	21100
891.118	21249
891.241	21245
891.364	21131
891.488	21222
891.611	21268
891.734	21135
891.857	21123
891.98	21112
892.103	21268
892.226	21188
892.349	21184
892.471	21001
892.594	21051
892.717	21058
892.839	20994
892.962	20944
893.085	21039
893.207	21020
893.33	20876
893.452	21036
893.575	21085
893.697	21039
893.819	21211
893.941	21332
894.064	21108
894.186	20891
894.308	20925
894.43	21062
894.552	21203
894.674	21104
894.796	20845
894.918	20914
895.04	21017
895.161	21123
895.283	21055
895.405	21039
895.526	20929
895.648	21005
895.769	20944
895.891	20994
896.012	21131
896.134	20925
896.255	21039
896.376	20982
896.498	20979
896.619	21055
896.74	20853
896.861	21184
896.982	21386
897.103	21564
897.224	21230
897.345	21211
897.466	21108
897.587	21214
897.708	21287
897.828	21218
897.949	21108
898.07	21062
898.19	21051
898.311	21192
898.431	21188
898.552	21279
898.672	21184
898.792	21298
898.913	21321
899.033	21119
899.153	21020
899.273	20941
899.393	21108
899.513	20914
899.633	20895
899.753	20982
899.873	20891
899.993	21074
900.113	20944
900.232	20952
900.352	20838
900.472	20758
900.591	20636
900.711	20670
900.83	20674
900.95	20815
901.069	20876
901.189	20678
901.308	20434
901.427	20301
901.546	20183
901.665	20294
901.784	20343
901.904	20259
902.023	20256
902.141	19902
902.26	19868
902.379	19913
902.498	19712
902.617	19788
902.735	19803
902.854	19780
902.973	19655
903.091	19445
903.21	19407
903.328	19411
903.446	19396
903.565	19247
903.683	19270
903.801	19076
903.919	19198
904.038	19308
904.156	19137
904.274	19133
904.392	18939
904.51	19038
904.627	19076
904.745	18947
904.863	19042
904.981	18856
905.098	18787
905.216	18582
905.334	18696
905.451	18798
905.569	18646
905.686	18688
905.803	18692
905.921	18319
906.038	18604
906.155	18536
906.272	18376
906.389	18410
906.506	18220
906.623	18277
906.74	18270
906.857	18072
906.974	18114
907.091	18266
907.208	18327
907.324	18251
907.441	18064
907.557	17965
907.674	17920
907.79	17817
907.907	17923
908.023	17935
908.139	17904
908.256	17916
908.372	17779
908.488	17805
908.604	17714
908.72	17642
908.836	17745
908.952	17703
909.068	17794
909.184	17840
909.3	17627
909.415	17623
909.531	17558
909.647	17349
909.762	17452
909.878	17364
909.993	17376
910.108	17277
910.224	17318
910.339	17235
910.454	17273
910.57	17159
910.685	17071
910.8	17341
910.915	17315
911.03	17216
911.145	17033
911.259	16957
911.374	16938
911.489	16885
911.604	16744
911.718	16755
911.833	16736
911.947	16588
912.062	16607
912.176	16691
912.291	16668
912.405	16786
912.519	16892
912.633	16854
912.748	16786
912.862	16653
912.976	16558
913.09	16455
913.204	16440
913.318	16561
913.431	16634
913.545	16573
913.659	16535
913.772	16462
913.886	16360
914	16219
914.113	16375
914.226	16295
914.34	16356
914.453	16143
914.566	16341
914.68	16188
914.793	16090
914.906	16017
915.019	15899
915.132	15816
915.245	15983
915.358	15934
915.47	15907
915.583	15972
915.696	15922
915.809	16097
915.921	16021
916.034	15793
916.146	15759
916.259	15770
916.371	15861
916.483	15759
916.595	15694
916.708	15610
916.82	15663
916.932	15637
917.044	15675
917.156	15572
917.268	15603
917.38	15564
917.491	15557
917.603	15557
917.715	15641
917.826	15610
917.938	15469
918.049	15370
918.161	15378
918.272	15622
918.384	15549
918.495	15450
918.606	15287
918.717	15211
918.828	15226
918.939	15287
919.05	15131
919.161	15154
919.272	15043
919.383	15108
919.494	15218
919.604	15412
919.715	15165
919.826	15104
919.936	15184
920.047	15226
920.157	15154
920.267	15454
920.378	15211
920.488	15203
920.598	15389
920.708	15431
920.818	15344
920.928	15268
921.038	15412
921.148	15515
921.258	15097
921.368	15089
921.477	14876
921.587	14956
921.697	14746
921.806	14910
921.916	14682
922.025	14617
922.134	14606
922.244	14495
922.353	14579
922.462	14457
922.571	14362
922.68	14252
922.789	14157
922.898	14206
923.007	14084
923.116	14248
923.224	14176
923.333	14199
923.442	14046
923.55	14081
923.659	13993
923.767	14046
923.876	13864
923.984	13982
924.092	13879
924.201	13936
924.309	14005
924.417	13928
924.525	13784
924.633	13830
924.741	14720
924.849	13548
924.956	13761
925.064	13628
925.172	13480
925.279	13601
925.387	13609
925.494	13480
925.602	13636
925.709	13590
925.816	13521
925.924	13502
926.031	13616
926.138	13487
926.245	13464
926.352	13392
926.459	13556
926.566	13556
926.673	13369
926.779	13274
926.886	13263
926.993	13164
927.099	13133
927.206	13141
927.312	12996
927.419	13099
927.525	13107
927.631	13198
927.737	12966
927.843	12882
927.95	12901
928.056	12894
928.162	12943
928.267	12996
928.373	13594
928.479	12954
928.585	12821
928.69	12798
928.796	12840
928.901	12798
929.007	12616
929.112	12825
929.218	12722
929.323	12688
929.428	12555
929.533	12730
929.638	12513
929.743	12642
929.848	12601
929.953	12574
930.058	12460
930.163	12323
930.267	12300
930.372	12395
930.477	12251
930.581	12570
930.685	12308
930.79	12213
930.894	12205
930.998	12163
931.103	12251
931.207	12057
931.311	11889
931.415	11733
931.519	11589
931.623	11551
