Data from test_V78500241_2328.txt Node
Date: Fri Mar 25 15:57:55 CST 2022
User: usil
Spectrometer: V785-0024
Trigger mode: 0
Integration Time (sec): 4.000000E-1
Scans to average: 1
Nonlinearity correction enabled: false
Boxcar width: 0
Storing dark spectrum: false
XAxis mode: Wavelengths
Number of Pixels in Spectrum: 1024
>>>>>Begin Spectral Data<<<<<
801.071	28957
801.214	28854
801.356	28649
801.499	28535
801.641	28557
801.783	28432
801.926	28489
802.068	28554
802.211	28409
802.353	28401
802.496	28131
802.638	28295
802.78	28192
802.923	28006
803.065	27934
803.208	28078
803.35	28158
803.492	28253
803.635	28424
803.777	28261
803.919	28462
804.061	28675
804.204	28466
804.346	28379
804.488	28306
804.63	28356
804.773	28265
804.915	28504
805.057	28413
805.199	28440
805.341	28542
805.483	28698
805.626	28466
805.768	28405
805.91	28554
806.052	28634
806.194	28478
806.336	28744
806.478	28500
806.62	28523
806.762	28694
806.904	28809
807.046	29193
807.188	28953
807.33	29060
807.472	29044
807.614	29079
807.756	28957
807.898	28877
808.04	28710
808.182	28812
808.324	28763
808.465	29044
808.607	29136
808.749	29265
808.891	29208
809.033	29410
809.174	29330
809.316	29296
809.458	29178
809.6	29231
809.741	29220
809.883	29505
810.025	29474
810.166	29570
810.308	29509
810.45	29474
810.591	29353
810.733	29406
810.875	29318
811.016	29315
811.158	29010
811.299	29406
811.441	29455
811.582	29425
811.724	29356
811.865	29143
812.007	29375
812.148	29349
812.29	29235
812.431	29471
812.573	29695
812.714	29623
812.855	29832
812.997	30076
813.138	30087
813.279	29882
813.421	29756
813.562	29771
813.703	29585
813.845	29490
813.986	29250
814.127	29075
814.268	29041
814.41	29052
814.551	28854
814.692	29060
814.833	28782
814.974	28854
815.115	29071
815.256	28866
815.397	28691
815.539	28763
815.68	28854
815.821	28660
815.962	28725
816.103	28744
816.244	28710
816.385	28516
816.526	28577
816.666	28436
816.807	28306
816.948	28325
817.089	28607
817.23	28371
817.371	28280
817.512	28360
817.653	28329
817.793	28306
817.934	28249
818.075	28261
818.216	28375
818.356	28261
818.497	28234
818.638	28105
818.778	28032
818.919	28143
819.06	28074
819.2	28253
819.341	28303
819.481	28352
819.622	28424
819.762	28535
819.903	28618
820.043	28512
820.184	28386
820.324	28371
820.465	28478
820.605	28409
820.746	28546
820.886	28242
821.026	28512
821.167	28432
821.307	28462
821.447	28379
821.588	28318
821.728	27994
821.868	27922
822.008	27709
822.149	27812
822.289	27724
822.429	27488
822.569	27370
822.709	27439
822.849	27329
822.99	27386
823.13	27237
823.27	27310
823.41	27070
823.55	27066
823.69	27135
823.83	27131
823.97	26986
824.11	26845
824.25	26933
824.389	26758
824.529	26975
824.669	27001
824.809	26979
824.949	27070
825.089	26982
825.228	26952
825.368	26785
825.508	26716
825.648	26891
825.787	26876
825.927	26842
826.067	26788
826.206	26963
826.346	26769
826.485	26975
826.625	26883
826.765	26910
826.904	26910
827.044	26598
827.183	26651
827.323	26545
827.462	26678
827.601	26587
827.741	26648
827.88	26629
828.02	26453
828.159	26290
828.298	26556
828.437	26556
828.577	26514
828.716	26564
828.855	26450
828.994	26221
829.134	26336
829.273	26351
829.412	26256
829.551	26145
829.69	26172
829.829	26103
829.968	26282
830.107	26347
830.246	26252
830.385	26218
830.524	26168
830.663	25974
830.802	25917
830.941	25769
831.08	25788
831.219	25917
831.357	25898
831.496	26046
831.635	25814
831.774	25738
831.913	25647
832.051	25540
832.19	25578
832.329	25590
832.467	25601
832.606	25559
832.744	25438
832.883	25586
833.022	25533
833.16	25502
833.299	25540
833.437	25559
833.576	25696
833.714	25628
833.852	25624
833.991	25537
834.129	25670
834.267	25518
834.406	25502
834.544	25518
834.682	25464
834.821	25540
834.959	25693
835.097	25635
835.235	25624
835.373	25628
835.511	25529
835.65	25514
835.788	25411
835.926	25236
836.064	25217
836.202	25221
836.34	25495
836.478	25422
836.615	25278
836.753	25464
836.891	25297
837.029	25266
837.167	25270
837.305	25312
837.443	25183
837.58	25266
837.718	25301
837.856	25240
837.993	25194
838.131	25266
838.269	25209
838.406	25129
838.544	25027
838.681	24886
838.819	24848
838.956	24722
839.094	24597
839.231	24703
839.369	24753
839.506	24962
839.643	25027
839.781	24658
839.918	24585
840.055	24673
840.193	24601
840.33	24582
840.467	24509
840.604	24490
840.742	24905
840.879	24525
841.016	24528
841.153	24589
841.29	24623
841.427	24502
841.564	24544
841.701	24513
841.838	24384
841.975	24456
842.112	24426
842.249	24327
842.385	24410
842.522	24597
842.659	24372
842.796	24330
842.933	24308
843.069	24262
843.206	24266
843.343	24494
843.479	24330
843.616	24300
843.752	24159
843.889	24072
844.025	24167
844.162	24003
844.298	24178
844.435	24095
844.571	24083
844.708	24045
844.844	24273
844.98	24247
845.117	24258
845.253	23965
845.389	24045
845.525	23942
845.661	23954
845.798	23893
845.934	23863
846.07	23878
846.206	23813
846.342	23889
846.478	23687
846.614	23619
846.75	23486
846.886	23646
847.022	23657
847.158	23501
847.294	23562
847.429	23535
847.565	23505
847.701	23745
847.837	23280
847.972	23227
848.108	23368
848.244	23307
848.379	23212
848.515	23094
848.65	23056
848.786	23185
848.921	23140
849.057	23185
849.192	23185
849.328	23223
849.463	23212
849.598	23086
849.734	23067
849.869	22968
850.004	22961
850.14	22930
850.275	22904
850.41	22831
850.545	22896
850.68	22839
850.815	22812
850.95	22923
851.085	22999
851.22	23159
851.355	23022
851.49	22889
851.625	22790
851.76	22801
851.895	22816
852.03	22809
852.165	22934
852.299	22984
852.434	23083
852.569	22927
852.703	22953
852.838	22991
852.973	23067
853.107	23060
853.242	22805
853.376	22717
853.511	22599
853.645	22752
853.78	22835
853.914	22687
854.048	22660
854.183	22596
854.317	22755
854.451	22873
854.585	22702
854.72	22656
854.854	22740
854.988	22752
855.122	22740
855.256	22645
855.39	22759
855.524	22744
855.658	22694
855.792	22847
855.926	22713
856.06	22786
856.194	22850
856.327	22729
856.461	22809
856.595	22675
856.729	22725
856.862	22866
856.996	22717
857.13	22736
857.263	22710
857.397	22892
857.53	22698
857.664	22744
857.797	22725
857.931	22889
858.064	22729
858.197	22820
858.331	22721
858.464	22573
858.597	22569
858.731	22752
858.864	22577
858.997	22713
859.13	22687
859.263	22763
859.396	22557
859.529	22698
859.662	22653
859.795	22615
859.928	22729
860.061	22801
860.194	22930
860.327	22828
860.46	22778
860.592	22831
860.725	22793
860.858	22767
860.99	22721
861.123	22611
861.256	22653
861.388	22736
861.521	23303
861.653	22508
861.786	22409
861.918	22557
862.05	22630
862.183	22615
862.315	22603
862.447	22687
862.58	22637
862.712	22504
862.844	22436
862.976	22428
863.108	22504
863.24	22816
863.372	22333
863.504	22577
863.636	22440
863.768	22432
863.9	22360
864.032	22413
864.164	22485
864.296	22523
864.428	22508
864.559	22497
864.691	22588
864.823	22470
864.954	22421
865.086	22348
865.217	22306
865.349	22363
865.48	22249
865.612	22314
865.743	22432
865.875	22314
866.006	22166
866.137	22379
866.269	22310
866.4	22276
866.531	22150
866.662	22097
866.793	22230
866.924	22253
867.055	22325
867.186	22188
867.317	22230
867.448	22105
867.579	22276
867.71	22131
867.841	22116
867.972	22215
868.103	22284
868.233	22154
868.364	22287
868.495	22242
868.625	22417
868.756	22546
868.886	22356
869.017	22478
869.147	22565
869.278	22580
869.408	22554
869.539	22542
869.669	22527
869.799	22432
869.929	22599
870.06	22512
870.19	22736
870.32	22839
870.45	22710
870.58	22649
870.71	22866
870.84	23014
870.97	22831
871.1	22866
871.23	23025
871.36	23060
871.489	22915
871.619	22968
871.749	22984
871.879	23090
872.008	23155
872.138	23166
872.267	23022
872.397	22801
872.526	22889
872.656	22816
872.785	23006
872.915	23067
873.044	23147
873.173	23075
873.303	23136
873.432	23151
873.561	23185
873.69	23079
873.819	23025
873.948	23056
874.077	23044
874.206	23041
874.335	23136
874.464	23212
874.593	23372
874.722	23277
874.851	23273
874.979	23356
875.108	23265
875.237	23121
875.365	23223
875.494	23197
875.623	23353
875.751	23315
875.88	23345
876.008	23410
876.136	23562
876.265	23653
876.393	23760
876.521	23794
876.65	23802
876.778	23657
876.906	23581
877.034	23512
877.162	23562
877.29	23577
877.418	23558
877.546	23615
877.674	23657
877.802	23577
877.93	23680
878.058	23551
878.185	23512
878.313	23630
878.441	23642
878.568	23433
878.696	23467
878.824	23619
878.951	23805
879.079	23771
879.206	23904
879.333	23779
879.461	23627
879.588	23764
879.715	23733
879.842	23828
879.97	23756
880.097	23414
880.224	23452
880.351	23421
880.478	23467
880.605	23516
880.732	23296
880.859	23680
880.986	23535
881.112	23535
881.239	23345
881.366	23166
881.493	22984
881.619	23105
881.746	23052
881.872	22976
881.999	23018
882.125	22900
882.252	23041
882.378	23029
882.505	23037
882.631	22820
882.757	22702
882.883	22668
883.01	22675
883.136	22626
883.262	22546
883.388	22618
883.514	22634
883.64	22683
883.766	22637
883.892	22557
884.018	22443
884.143	22470
884.269	22698
884.395	22223
884.52	22303
884.646	22333
884.772	22211
884.897	22177
885.023	22314
885.148	22432
885.274	22478
885.399	22402
885.524	22322
885.65	22287
885.775	22223
885.9	22253
886.025	22344
886.15	22333
886.275	22192
886.4	22238
886.525	22287
886.65	22253
886.775	22253
886.9	22356
887.025	22527
887.149	22177
887.274	22124
887.399	22105
887.523	22055
887.648	22006
887.773	21930
887.897	22063
888.021	22150
888.146	22048
888.27	22124
888.395	22162
888.519	22188
888.643	22036
888.767	22051
888.891	21960
889.015	21789
889.139	21842
889.263	21869
889.387	21953
889.511	22040
889.635	21846
889.759	21827
889.883	21846
890.006	21884
890.13	22131
890.254	21823
890.377	21755
890.501	21610
890.624	21564
890.748	21644
890.871	21511
890.995	21401
891.118	21264
891.241	21397
891.364	21386
891.488	21405
891.611	21359
891.734	21523
891.857	21340
891.98	21439
892.103	21431
892.226	21317
892.349	21233
892.471	21222
892.594	21283
892.717	21256
892.839	21310
892.962	21317
893.085	21260
893.207	21344
893.33	21222
893.452	21199
893.575	21233
893.697	21203
893.819	21302
893.941	21485
894.064	21367
894.186	21260
894.308	21157
894.43	21382
894.552	21485
894.674	21317
894.796	21199
894.918	21332
895.04	21169
895.161	21214
895.283	21233
895.405	21188
895.526	21298
895.648	21283
895.769	21283
895.891	21214
896.012	21294
896.134	21363
896.255	21256
896.376	21245
896.498	21302
896.619	21260
896.74	21279
896.861	21325
896.982	21549
897.103	21656
897.224	21447
897.345	21538
897.466	21329
897.587	21477
897.708	21622
897.828	21462
897.949	21275
898.07	21252
898.19	21310
898.311	21591
898.431	21492
898.552	21443
898.672	21534
898.792	21549
898.913	21595
899.033	21283
899.153	21291
899.273	21074
899.393	21157
899.513	21252
899.633	21214
899.753	21154
899.873	21116
899.993	21089
900.113	21131
900.232	21131
900.352	20998
900.472	21039
900.591	20937
900.711	20929
900.83	21013
900.95	20979
901.069	21093
901.189	20788
901.308	20609
901.427	20507
901.546	20545
901.665	20511
901.784	20575
901.904	20320
902.023	20305
902.141	20046
902.26	20122
902.379	20214
902.498	20073
902.617	19879
902.735	19997
902.854	19883
902.973	19906
903.091	19662
903.21	19567
903.328	19693
903.446	19540
903.565	19441
903.683	19331
903.801	19335
903.919	19346
904.038	19362
904.156	19179
904.274	19141
904.392	19072
904.51	19175
904.627	19160
904.745	19297
904.863	19247
904.981	19126
905.098	18848
905.216	18966
905.334	18814
905.451	18932
905.569	18783
905.686	18897
905.803	18753
905.921	18684
906.038	18764
906.155	18741
906.272	18536
906.389	18544
906.506	18498
906.623	18372
906.74	18395
906.857	18376
906.974	18414
907.091	18479
907.208	18593
907.324	18452
907.441	18304
907.557	18125
907.674	18209
907.79	18072
907.907	18087
908.023	18060
908.139	18110
908.256	18057
908.372	18026
908.488	18083
908.604	17904
908.72	17813
908.836	17893
908.952	17760
909.068	17908
909.184	17878
909.3	17767
909.415	17855
909.531	17714
909.647	17539
909.762	17615
909.878	17509
909.993	17539
910.108	17471
910.224	17512
910.339	17490
910.454	17459
910.57	17387
910.685	17159
910.8	17444
910.915	17421
911.03	17296
911.145	17162
911.259	17178
911.374	17037
911.489	16984
911.604	16999
911.718	16812
911.833	16835
911.947	16752
912.062	16729
912.176	16771
912.291	16805
912.405	16790
912.519	17052
912.633	17041
912.748	16873
912.862	16786
912.976	16733
913.09	16538
913.204	16538
913.318	16660
913.431	16717
913.545	16679
913.659	16721
913.772	16478
913.886	16554
914	16455
914.113	16577
914.226	16538
914.34	16481
914.453	16379
914.566	16428
914.68	16417
914.793	16280
914.906	16120
915.019	16017
915.132	16017
915.245	16006
915.358	16013
915.47	16040
915.583	15926
915.696	16074
915.809	16120
915.921	16223
916.034	15880
916.146	15838
916.259	15869
916.371	15987
916.483	15937
916.595	15934
916.708	15835
916.82	15789
916.932	15759
917.044	15759
917.156	15785
917.268	15675
917.38	15557
917.491	15603
917.603	15698
917.715	15736
917.826	15819
917.938	15576
918.049	15625
918.161	15507
918.272	15686
918.384	15743
918.495	15534
918.606	15367
918.717	15279
918.828	15374
918.939	15447
919.05	15226
919.161	15355
919.272	15127
919.383	15184
919.494	15374
919.604	15576
919.715	15325
919.826	15233
919.936	15325
920.047	15454
920.157	15249
920.267	15523
920.378	15351
920.488	15214
920.598	15485
920.708	15633
920.818	15488
920.928	15443
921.038	15591
921.148	15576
921.258	15222
921.368	15146
921.477	15017
921.587	14998
921.697	14899
921.806	15047
921.916	14902
922.025	14792
922.134	14705
922.244	14549
922.353	14629
922.462	14419
922.571	14488
922.68	14332
922.789	14271
922.898	14336
923.007	14271
923.116	14355
923.224	14278
923.333	14275
923.442	14119
923.55	14100
923.659	14233
923.767	14183
923.876	14031
923.984	14149
924.092	14001
924.201	14043
924.309	13925
924.417	14103
924.525	13967
924.633	13940
924.741	14830
924.849	13807
924.956	13864
925.064	13647
925.172	13693
925.279	13597
925.387	13765
925.494	13613
925.602	13791
925.709	13780
925.816	13540
925.924	13628
926.031	13651
926.138	13639
926.245	13582
926.352	13468
926.459	13715
926.566	13681
926.673	13480
926.779	13441
926.886	13430
926.993	13217
927.099	13217
927.206	13122
927.312	13137
927.419	13240
927.525	13171
927.631	13133
927.737	13019
927.843	13091
927.95	12935
928.056	13023
928.162	13122
928.267	13031
928.373	13662
928.479	13076
928.585	12882
928.69	12947
928.796	12977
928.901	12875
929.007	12867
929.112	12928
929.218	12882
929.323	12764
929.428	12730
929.533	12871
929.638	12715
929.743	12608
929.848	12772
929.953	12707
930.058	12513
930.163	12388
930.267	12376
930.372	12559
930.477	12353
930.581	12616
930.685	12376
930.79	12209
930.894	12353
930.998	12178
931.103	12342
931.207	11961
931.311	11897
931.415	11878
931.519	11638
931.623	11577
