Data from test_V78500241_277.txt Node
Date: Fri Mar 25 15:43:43 CST 2022
User: usil
Spectrometer: V785-0024
Trigger mode: 0
Integration Time (sec): 4.000000E-1
Scans to average: 1
Nonlinearity correction enabled: false
Boxcar width: 0
Storing dark spectrum: false
XAxis mode: Wavelengths
Number of Pixels in Spectrum: 1024
>>>>>Begin Spectral Data<<<<<
801.071	29996
801.214	29775
801.356	29505
801.499	29474
801.641	29459
801.783	29505
801.926	29452
802.068	29448
802.211	29391
802.353	29261
802.496	29239
802.638	29174
802.78	29147
802.923	28991
803.065	28908
803.208	29102
803.35	29044
803.492	29280
803.635	29269
803.777	29208
803.919	29372
804.061	29608
804.204	29254
804.346	29246
804.488	29170
804.63	29269
804.773	29200
804.915	29178
805.057	29471
805.199	29277
805.341	29463
805.483	29383
805.626	29493
805.768	29227
805.91	29375
806.052	29421
806.194	29448
806.336	29661
806.478	29455
806.62	29554
806.762	29657
806.904	29752
807.046	29916
807.188	29904
807.33	29737
807.472	29847
807.614	29859
807.756	29901
807.898	29501
808.04	29505
808.182	29630
808.324	29627
808.465	29680
808.607	29779
808.749	29870
808.891	30106
809.033	30201
809.174	29950
809.316	30022
809.458	30136
809.6	30140
809.741	30155
809.883	30129
810.025	30247
810.166	30342
810.308	30311
810.45	30258
810.591	30125
810.733	30174
810.875	29984
811.016	29996
811.158	29961
811.299	30045
811.441	30205
811.582	30262
811.724	30049
811.865	29851
812.007	30102
812.148	30152
812.29	30041
812.431	30190
812.573	30372
812.714	30327
812.855	30589
812.997	30692
813.138	30734
813.279	30658
813.421	30494
813.562	30445
813.703	30380
813.845	30228
813.986	30060
814.127	29783
814.268	29699
814.41	29885
814.551	29676
814.692	29733
814.833	29539
814.974	29638
815.115	29592
815.256	29531
815.397	29577
815.539	29589
815.68	29535
815.821	29292
815.962	29444
816.103	29379
816.244	29440
816.385	29197
816.526	29193
816.666	28961
816.807	28938
816.948	28984
817.089	28991
817.23	28980
817.371	28896
817.512	28934
817.653	28694
817.793	28740
817.934	28953
818.075	28942
818.216	28771
818.356	28797
818.497	28786
818.638	28706
818.778	28668
818.919	28755
819.06	28691
819.2	28767
819.341	28816
819.481	28843
819.622	29022
819.762	29197
819.903	29006
820.043	29052
820.184	28900
820.324	28938
820.465	29060
820.605	28919
820.746	29003
820.886	28816
821.026	28927
821.167	28854
821.307	28900
821.447	28824
821.588	28691
821.728	28733
821.868	28455
822.008	28280
822.149	28181
822.289	28242
822.429	27926
822.569	27869
822.709	27827
822.849	27846
822.99	27793
823.13	27717
823.27	27587
823.41	27629
823.55	27458
823.69	27549
823.83	27458
823.97	27481
824.11	27340
824.25	27237
824.389	27401
824.529	27534
824.669	27378
824.809	27439
824.949	27408
825.089	27488
825.228	27389
825.368	27192
825.508	27272
825.648	27226
825.787	27142
825.927	27329
826.067	27058
826.206	27119
826.346	27348
826.485	27260
826.625	27283
826.765	27367
826.904	27241
827.044	27005
827.183	27066
827.323	26887
827.462	26906
827.601	26899
827.741	26876
827.88	26979
828.02	26689
828.159	26902
828.298	26906
828.437	26956
828.577	26796
828.716	27017
828.855	26868
828.994	26663
829.134	26530
829.273	26571
829.412	26522
829.551	26495
829.69	26522
829.829	26552
829.968	26571
830.107	26541
830.246	26537
830.385	26419
830.524	26400
830.663	26358
830.802	26103
830.941	25993
831.08	26069
831.219	26149
831.357	26225
831.496	26343
831.635	25993
831.774	25997
831.913	26050
832.051	25780
832.19	25887
832.329	25860
832.467	25852
832.606	25666
832.744	25685
832.883	25712
833.022	25780
833.16	25750
833.299	25750
833.437	25750
833.576	25734
833.714	25742
833.852	25799
833.991	25814
834.129	25936
834.267	25856
834.406	25693
834.544	25849
834.682	25795
834.821	25765
834.959	26062
835.097	25746
835.235	25712
835.373	25734
835.511	25734
835.65	25563
835.788	25628
835.926	25556
836.064	25487
836.202	25502
836.34	25594
836.478	25578
836.615	25597
836.753	25525
836.891	25628
837.029	25628
837.167	25563
837.305	25472
837.443	25479
837.58	25460
837.718	25548
837.856	25430
837.993	25346
838.131	25320
838.269	25331
838.406	25278
838.544	25156
838.681	25072
838.819	24939
838.956	24791
839.094	24825
839.231	24787
839.369	25027
839.506	25091
839.643	24989
839.781	24806
839.918	24734
840.055	24909
840.193	24779
840.33	24749
840.467	24635
840.604	24859
840.742	25107
840.879	24521
841.016	24544
841.153	24525
841.29	24696
841.427	24502
841.564	24650
841.701	24677
841.838	24589
841.975	24563
842.112	24551
842.249	24517
842.385	24429
842.522	24536
842.659	24445
842.796	24300
842.933	24464
843.069	24353
843.206	24369
843.343	24448
843.479	24441
843.616	24422
843.752	24064
843.889	24174
844.025	24243
844.162	24133
844.298	24167
844.435	24133
844.571	24155
844.708	24155
844.844	24232
844.98	24270
845.117	24239
845.253	24159
845.389	23988
845.525	23996
845.661	24007
845.798	23843
845.934	23954
846.07	23882
846.206	23939
846.342	23920
846.478	23809
846.614	23783
846.75	23482
846.886	23535
847.022	23634
847.158	23676
847.294	23646
847.429	23528
847.565	23619
847.701	23859
847.837	23284
847.972	23296
848.108	23356
848.244	23425
848.379	23239
848.515	23151
848.65	23102
848.786	23025
848.921	23102
849.057	23284
849.192	23113
849.328	23212
849.463	23155
849.598	23117
849.734	23079
849.869	23060
850.004	22858
850.14	22885
850.275	22801
850.41	22869
850.545	22744
850.68	22790
850.815	22850
850.95	22873
851.085	23014
851.22	23037
851.355	22938
851.49	22782
851.625	22835
851.76	22892
851.895	22725
852.03	22790
852.165	22736
852.299	22900
852.434	22923
852.569	22938
852.703	22843
852.838	22896
852.973	23113
853.107	22927
853.242	22672
853.376	22561
853.511	22580
853.645	22599
853.78	22736
853.914	22694
854.048	22653
854.183	22653
854.317	22710
854.451	22892
854.585	22664
854.72	22637
854.854	22786
854.988	22584
855.122	22641
855.256	22527
855.39	22497
855.524	22801
855.658	22729
855.792	22634
855.926	22729
856.06	22721
856.194	22805
856.327	22588
856.461	22603
856.595	22565
856.729	22596
856.862	22653
856.996	22664
857.13	22698
857.263	22687
857.397	22660
857.53	22603
857.664	22717
857.797	22626
857.931	22725
858.064	22675
858.197	22653
858.331	22649
858.464	22542
858.597	22550
858.731	22531
858.864	22584
858.997	22474
859.13	22736
859.263	22599
859.396	22679
859.529	22493
859.662	22481
859.795	22535
859.928	22603
860.061	22725
860.194	22843
860.327	22675
860.46	22630
860.592	22713
860.725	22649
860.858	22744
860.99	22584
861.123	22432
861.256	22470
861.388	22637
861.521	23341
861.653	22375
861.786	22394
861.918	22443
862.05	22615
862.183	22618
862.315	22668
862.447	22626
862.58	22675
862.712	22344
862.844	22268
862.976	22440
863.108	22348
863.24	22580
863.372	22265
863.504	22295
863.636	22166
863.768	22329
863.9	22360
864.032	22166
864.164	22177
864.296	22280
864.428	22367
864.559	22344
864.691	22253
864.823	22291
864.954	22329
865.086	22204
865.217	22154
865.349	22143
865.48	22246
865.612	22166
865.743	22249
865.875	22040
866.006	22147
866.137	22150
866.269	22150
866.4	22158
866.531	22139
866.662	21991
866.793	22131
866.924	22067
867.055	22219
867.186	21968
867.317	22078
867.448	21972
867.579	22116
867.71	21979
867.841	21930
867.972	22109
868.103	21987
868.233	22086
868.364	21975
868.495	22238
868.625	22394
868.756	22379
868.886	22215
869.017	22440
869.147	22356
869.278	22531
869.408	22306
869.539	22409
869.669	22386
869.799	22417
869.929	22436
870.06	22440
870.19	22527
870.32	22599
870.45	22542
870.58	22786
870.71	22854
870.84	22801
870.97	22755
871.1	22733
871.23	22771
871.36	22881
871.489	22835
871.619	22862
871.749	22828
871.879	22809
872.008	23140
872.138	22885
872.267	22911
872.397	22748
872.526	22656
872.656	22702
872.785	22740
872.915	22866
873.044	22847
873.173	22816
873.303	22942
873.432	22995
873.561	23075
873.69	22934
873.819	22991
873.948	22987
874.077	23025
874.206	22881
874.335	23086
874.464	23010
874.593	23117
874.722	23006
874.851	23181
874.979	23200
875.108	23235
875.237	22987
875.365	23060
875.494	23071
875.623	23162
875.751	23067
875.88	23109
876.008	23220
876.136	23360
876.265	23452
876.393	23657
876.521	23512
876.65	23551
876.778	23619
876.906	23452
877.034	23474
877.162	23531
877.29	23337
877.418	23520
877.546	23433
877.674	23490
877.802	23486
877.93	23471
878.058	23398
878.185	23455
878.313	23364
878.441	23570
878.568	23288
878.696	23379
878.824	23474
878.951	23615
879.079	23657
879.206	23760
879.333	23585
879.461	23611
879.588	23558
879.715	23703
879.842	23748
879.97	23604
880.097	23296
880.224	23220
880.351	23307
880.478	23330
880.605	23178
880.732	23208
880.859	23421
880.986	23334
881.112	23174
881.239	23170
881.366	23033
881.493	22957
881.619	22744
881.746	22949
881.872	22889
881.999	22820
882.125	22748
882.252	22763
882.378	22839
882.505	23041
882.631	22733
882.757	22599
882.883	22637
883.01	22736
883.136	22421
883.262	22451
883.388	22390
883.514	22717
883.64	22618
883.766	22466
883.892	22329
884.018	22348
884.143	22516
884.269	22470
884.395	22337
884.52	22185
884.646	22207
884.772	21998
884.897	22150
885.023	22188
885.148	22295
885.274	22276
885.399	22143
885.524	22348
885.65	22169
885.775	22192
885.9	22097
886.025	22261
886.15	22325
886.275	22249
886.4	22074
886.525	22124
886.65	22204
886.775	22131
886.9	22238
887.025	22386
887.149	22131
887.274	22040
887.399	21922
887.523	21880
887.648	21812
887.773	21785
887.897	22021
888.021	21800
888.146	21941
888.27	22078
888.395	21998
888.519	22006
888.643	21972
888.767	21998
888.891	21793
889.015	21633
889.139	21800
889.263	21690
889.387	21793
889.511	21812
889.635	21732
889.759	21686
889.883	21755
890.006	21778
890.13	21759
890.254	21530
890.377	21679
890.501	21431
890.624	21530
890.748	21321
890.871	21321
890.995	21252
891.118	21298
891.241	21260
891.364	21176
891.488	21329
891.611	21222
891.734	21184
891.857	21363
891.98	21180
892.103	21241
892.226	21226
892.349	21161
892.471	20982
892.594	21058
892.717	21131
892.839	21142
892.962	21192
893.085	21112
893.207	21135
893.33	20963
893.452	21062
893.575	21096
893.697	21058
893.819	21359
893.941	21291
894.064	21192
894.186	21150
894.308	21146
894.43	21184
894.552	21176
894.674	21260
894.796	21043
894.918	20960
895.04	21039
895.161	21214
895.283	21146
895.405	21055
895.526	21138
895.648	20975
895.769	21093
895.891	21165
896.012	21161
896.134	21184
896.255	21043
896.376	21283
896.498	21241
896.619	21154
896.74	21180
896.861	21241
896.982	21393
897.103	21603
897.224	21389
897.345	21325
897.466	21302
897.587	21378
897.708	21561
897.828	21336
897.949	21283
898.07	21096
898.19	21302
898.311	21374
898.431	21340
898.552	21275
898.672	21192
898.792	21393
898.913	21378
899.033	21032
899.153	20971
899.273	20994
899.393	21020
899.513	21058
899.633	21055
899.753	20998
899.873	20895
899.993	21085
900.113	20864
900.232	21013
900.352	21028
900.472	20807
900.591	20754
900.711	20857
900.83	20811
900.95	20887
901.069	20876
901.189	20678
901.308	20484
901.427	20263
901.546	20278
901.665	20389
901.784	20408
901.904	20145
902.023	20077
902.141	19925
902.26	19879
902.379	19757
902.498	19734
902.617	19833
902.735	19921
902.854	19761
902.973	19639
903.091	19620
903.21	19438
903.328	19422
903.446	19377
903.565	19362
903.683	19206
903.801	19194
903.919	19251
904.038	19160
904.156	19038
904.274	19099
904.392	18985
904.51	18947
904.627	19023
904.745	19008
904.863	19088
904.981	18913
905.098	18745
905.216	18726
905.334	18715
905.451	18776
905.569	18620
905.686	18738
905.803	18631
905.921	18452
906.038	18528
906.155	18414
906.272	18289
906.389	18429
906.506	18247
906.623	18243
906.74	18182
906.857	18125
906.974	18182
907.091	18239
907.208	18296
907.324	18194
907.441	18095
907.557	17935
907.674	17889
907.79	17767
907.907	17889
908.023	17916
908.139	17973
908.256	17775
908.372	17748
908.488	17771
908.604	17543
908.72	17512
908.836	17501
908.952	17490
909.068	17699
909.184	17653
909.3	17497
909.415	17611
909.531	17532
909.647	17269
909.762	17292
909.878	17246
909.993	17379
910.108	17235
910.224	17090
910.339	17178
910.454	17200
910.57	17067
910.685	16972
910.8	17273
910.915	17288
911.03	17010
911.145	16919
911.259	16866
911.374	16854
911.489	16805
911.604	16706
911.718	16546
911.833	16550
911.947	16538
912.062	16489
912.176	16577
912.291	16687
912.405	16634
912.519	16801
912.633	16729
912.748	16531
912.862	16447
912.976	16371
913.09	16314
913.204	16287
913.318	16341
913.431	16447
913.545	16413
913.659	16466
913.772	16329
913.886	16192
914	16139
914.113	16185
914.226	16181
914.34	16211
914.453	16044
914.566	16147
914.68	16093
914.793	16051
914.906	15892
915.019	15766
915.132	15774
915.245	15717
915.358	15819
915.47	15755
915.583	15762
915.696	15804
915.809	15911
915.921	15812
916.034	15705
916.146	15698
916.259	15557
916.371	15679
916.483	15694
916.595	15595
916.708	15652
916.82	15576
916.932	15526
917.044	15584
917.156	15458
917.268	15359
917.38	15428
917.491	15298
917.603	15329
917.715	15439
917.826	15439
917.938	15310
918.049	15161
918.161	15256
918.272	15378
918.384	15507
918.495	15298
918.606	15173
918.717	15013
918.828	15142
918.939	15203
919.05	15070
919.161	15055
919.272	14895
919.383	14891
919.494	15123
919.604	15291
919.715	15020
919.826	14963
919.936	15138
920.047	15123
920.157	15066
920.267	15218
920.378	15036
920.488	14963
920.598	15138
920.708	15249
920.818	15192
920.928	15089
921.038	15325
921.148	15298
921.258	14902
921.368	14937
921.477	14804
921.587	14674
921.697	14636
921.806	14693
921.916	14712
922.025	14526
922.134	14393
922.244	14404
922.353	14442
922.462	14267
922.571	14218
922.68	13997
922.789	13993
922.898	14077
923.007	13970
923.116	14081
923.224	14065
923.333	13928
923.442	13909
923.55	13830
923.659	13837
923.767	13909
923.876	13841
923.984	13822
924.092	13734
924.201	13772
924.309	13719
924.417	13738
924.525	13700
924.633	13628
924.741	14583
924.849	13407
924.956	13537
925.064	13533
925.172	13324
925.279	13312
925.387	13438
925.494	13324
925.602	13457
925.709	13483
925.816	13312
925.924	13384
926.031	13392
926.138	13320
926.245	13343
926.352	13244
926.459	13358
926.566	13483
926.673	13225
926.779	13129
926.886	13156
926.993	12947
927.099	12924
927.206	12913
927.312	12829
927.419	12939
927.525	12947
927.631	13015
927.737	12840
927.843	12840
927.95	12642
928.056	12844
928.162	12810
928.267	12787
928.373	13460
928.479	12757
928.585	12566
928.69	12681
928.796	12741
928.901	12608
929.007	12502
929.112	12627
929.218	12528
929.323	12597
929.428	12471
929.533	12486
929.638	12372
929.743	12372
929.848	12441
929.953	12452
930.058	12262
930.163	12178
930.267	12144
930.372	12224
930.477	12117
930.581	12334
930.685	12216
930.79	11912
930.894	11984
930.998	11973
931.103	12098
931.207	11767
931.311	11707
931.415	11570
931.519	11395
931.623	11334
