Data from test_V78500241_685.txt Node
Date: Fri Mar 25 15:46:32 CST 2022
User: usil
Spectrometer: V785-0024
Trigger mode: 0
Integration Time (sec): 4.000000E-1
Scans to average: 1
Nonlinearity correction enabled: false
Boxcar width: 0
Storing dark spectrum: false
XAxis mode: Wavelengths
Number of Pixels in Spectrum: 1024
>>>>>Begin Spectral Data<<<<<
801.071	27945
801.214	27827
801.356	27690
801.499	27568
801.641	27538
801.783	27507
801.926	27564
802.068	27488
802.211	27374
802.353	27504
802.496	27226
802.638	27214
802.78	26929
802.923	27161
803.065	27150
803.208	27169
803.35	27108
803.492	27359
803.635	27367
803.777	27275
803.919	27507
804.061	27660
804.204	27313
804.346	27287
804.488	27245
804.63	27214
804.773	27199
804.915	27473
805.057	27412
805.199	27420
805.341	27382
805.483	27572
805.626	27523
805.768	27313
805.91	27568
806.052	27549
806.194	27237
806.336	27629
806.478	27443
806.62	27587
806.762	27618
806.904	27816
807.046	28265
807.188	27793
807.33	27926
807.472	28021
807.614	27907
807.756	27960
807.898	27766
808.04	27838
808.182	27667
808.324	27854
808.465	27785
808.607	27994
808.749	28109
808.891	28093
809.033	28409
809.174	28185
809.316	28158
809.458	28306
809.6	28185
809.741	28284
809.883	28371
810.025	28538
810.166	28451
810.308	28481
810.45	28325
810.591	28386
810.733	28223
810.875	28196
811.016	28032
811.158	28188
811.299	28272
811.441	28481
811.582	28394
811.724	28105
811.865	28120
812.007	28196
812.148	28135
812.29	28246
812.431	28341
812.573	28390
812.714	28500
812.855	28771
812.997	28885
813.138	28858
813.279	28740
813.421	28786
813.562	28584
813.703	28577
813.845	28261
813.986	28109
814.127	28059
814.268	27797
814.41	28086
814.551	27914
814.692	27964
814.833	27755
814.974	27854
815.115	27717
815.256	27652
815.397	27781
815.539	27709
815.68	27667
815.821	27561
815.962	27622
816.103	27823
816.244	27576
816.385	27443
816.526	27424
816.666	27325
816.807	27230
816.948	27173
817.089	27386
817.23	27336
817.371	27291
817.512	27180
817.653	27123
817.793	27108
817.934	27218
818.075	27207
818.216	27230
818.356	27180
818.497	27127
818.638	26754
818.778	26918
818.919	26811
819.06	26815
819.2	27013
819.341	27180
819.481	27135
819.622	27332
819.762	27614
819.903	27462
820.043	27325
820.184	27245
820.324	27226
820.465	27325
820.605	27264
820.746	27135
820.886	27222
821.026	27294
821.167	27142
821.307	27359
821.447	27195
821.588	27024
821.728	26998
821.868	26762
822.008	26731
822.149	26629
822.289	26533
822.429	26476
822.569	26366
822.709	26377
822.849	26142
822.99	26122
823.13	26043
823.27	26153
823.41	25959
823.55	25864
823.69	25978
823.83	26005
823.97	25890
824.11	25841
824.25	25814
824.389	25868
824.529	25898
824.669	25765
824.809	25871
824.949	25883
825.089	25811
825.228	25894
825.368	25655
825.508	25582
825.648	25693
825.787	25784
825.927	25818
826.067	25704
826.206	25613
826.346	25658
826.485	25731
826.625	25628
826.765	25906
826.904	25677
827.044	25529
827.183	25434
827.323	25251
827.462	25514
827.601	25392
827.741	25479
827.88	25491
828.02	25293
828.159	25369
828.298	25415
828.437	25445
828.577	25255
828.716	25510
828.855	25266
828.994	25103
829.134	25027
829.273	25198
829.412	25046
829.551	25053
829.69	25088
829.829	25099
829.968	25278
830.107	25194
830.246	25164
830.385	24970
830.524	24943
830.663	24753
830.802	24715
830.941	24661
831.08	24650
831.219	24658
831.357	24715
831.496	24962
831.635	24540
831.774	24460
831.913	24540
832.051	24525
832.19	24585
832.329	24544
832.467	24399
832.606	24232
832.744	24342
832.883	24369
833.022	24391
833.16	24502
833.299	24365
833.437	24403
833.576	24414
833.714	24467
833.852	24528
833.991	24452
834.129	24559
834.267	24483
834.406	24502
834.544	24460
834.682	24414
834.821	24346
834.959	24604
835.097	24308
835.235	24350
835.373	24338
835.511	24319
835.65	24285
835.788	24213
835.926	24076
836.064	24007
836.202	24144
836.34	24190
836.478	24350
836.615	24338
836.753	24266
836.891	24270
837.029	24327
837.167	24148
837.305	24121
837.443	24155
837.58	24003
837.718	24136
837.856	24152
837.993	24098
838.131	24038
838.269	24026
838.406	23996
838.544	23847
838.681	23752
838.819	23695
838.956	23535
839.094	23543
839.231	23634
839.369	23741
839.506	23961
839.643	23771
839.781	23482
839.918	23539
840.055	23623
840.193	23539
840.33	23486
840.467	23562
840.604	23528
840.742	23729
840.879	23421
841.016	23459
841.153	23398
841.29	23577
841.427	23474
841.564	23433
841.701	23512
841.838	23334
841.975	23512
842.112	23410
842.249	23341
842.385	23284
842.522	23482
842.659	23250
842.796	23181
842.933	23318
843.069	23132
843.206	23193
843.343	23372
843.479	23315
843.616	23246
843.752	23121
843.889	22968
844.025	23200
844.162	22904
844.298	23029
844.435	22881
844.571	22999
844.708	22934
844.844	23159
844.98	23197
845.117	23075
845.253	22908
845.389	22938
845.525	22896
845.661	22911
845.798	22733
845.934	22782
846.07	22850
846.206	22866
846.342	22942
846.478	22679
846.614	22497
846.75	22535
846.886	22432
847.022	22588
847.158	22531
847.294	22405
847.429	22470
847.565	22402
847.701	22691
847.837	22093
847.972	22192
848.108	22306
848.244	22219
848.379	22002
848.515	22017
848.65	22055
848.786	22055
848.921	22223
849.057	22177
849.192	22112
849.328	22162
849.463	22040
849.598	22002
849.734	21991
849.869	21892
850.004	21827
850.14	21781
850.275	21804
850.41	21797
850.545	21720
850.68	21831
850.815	21728
850.95	21823
851.085	22051
851.22	21835
851.355	21903
851.49	21797
851.625	21899
851.76	21759
851.895	21644
852.03	21728
852.165	21819
852.299	21823
852.434	21850
852.569	21774
852.703	21850
852.838	21797
852.973	21903
853.107	21994
853.242	21656
853.376	21637
853.511	21481
853.645	21652
853.78	21728
853.914	21606
854.048	21553
854.183	21557
854.317	21629
854.451	21869
854.585	21641
854.72	21652
854.854	21804
854.988	21561
855.122	21667
855.256	21511
855.39	21561
855.524	21732
855.658	21713
855.792	21682
855.926	21675
856.06	21698
856.194	21705
856.327	21576
856.461	21496
856.595	21622
856.729	21622
856.862	21857
856.996	21705
857.13	21724
857.263	21766
857.397	21755
857.53	21625
857.664	21724
857.797	21709
857.931	21682
858.064	21705
858.197	21854
858.331	21690
858.464	21599
858.597	21519
858.731	21614
858.864	21690
858.997	21606
859.13	21610
859.263	21663
859.396	21747
859.529	21648
859.662	21580
859.795	21447
859.928	21561
860.061	21892
860.194	21888
860.327	21701
860.46	21606
860.592	21762
860.725	21781
860.858	21652
860.99	21591
861.123	21625
861.256	21462
861.388	21713
861.521	22287
861.653	21618
861.786	21443
861.918	21370
862.05	21454
862.183	21412
862.315	21603
862.447	21637
862.58	21542
862.712	21382
862.844	21287
862.976	21500
863.108	21317
863.24	21747
863.372	21363
863.504	21310
863.636	21336
863.768	21355
863.9	21332
864.032	21245
864.164	21408
864.296	21283
864.428	21500
864.559	21355
864.691	21416
864.823	21321
864.954	21329
865.086	21252
865.217	21112
865.349	21230
865.48	21169
865.612	21192
865.743	21252
865.875	21363
866.006	21176
866.137	21207
866.269	21188
866.4	21230
866.531	21096
866.662	21165
866.793	21131
866.924	21074
867.055	21222
867.186	21161
867.317	21127
867.448	20963
867.579	21161
867.71	21119
867.841	20952
867.972	21085
868.103	21135
868.233	21146
868.364	21233
868.495	21218
868.625	21424
868.756	21355
868.886	21256
869.017	21382
869.147	21507
869.278	21553
869.408	21317
869.539	21382
869.669	21428
869.799	21454
869.929	21564
870.06	21386
870.19	21755
870.32	21625
870.45	21671
870.58	21785
870.71	21930
870.84	21846
870.97	21838
871.1	21816
871.23	22109
871.36	21994
871.489	21884
871.619	22025
871.749	21975
871.879	22128
872.008	22135
872.138	21972
872.267	21892
872.397	21911
872.526	21736
872.656	21804
872.785	21804
872.915	21987
873.044	22036
873.173	21941
873.303	21987
873.432	22177
873.561	22158
873.69	22029
873.819	22040
873.948	22124
874.077	22002
874.206	21945
874.335	22032
874.464	22169
874.593	22348
874.722	22299
874.851	22261
874.979	22337
875.108	22356
875.237	22185
875.365	22181
875.494	22200
875.623	22424
875.751	22219
875.88	22371
876.008	22478
876.136	22489
876.265	22607
876.393	22782
876.521	22653
876.65	22744
876.778	22634
876.906	22626
877.034	22500
877.162	22550
877.29	22451
877.418	22694
877.546	22736
877.674	22531
877.802	22474
877.93	22462
878.058	22634
878.185	22535
878.313	22550
878.441	22653
878.568	22382
878.696	22592
878.824	22615
878.951	22710
879.079	22717
879.206	22953
879.333	22793
879.461	22550
879.588	22550
879.715	22790
879.842	22828
879.97	22618
880.097	22462
880.224	22219
880.351	22645
880.478	22470
880.605	22276
880.732	22500
880.859	22554
880.986	22402
881.112	22485
881.239	22150
881.366	22185
881.493	22090
881.619	22013
881.746	22105
881.872	21915
881.999	21873
882.125	21892
882.252	21854
882.378	21968
882.505	22021
882.631	21857
882.757	21728
882.883	21732
883.01	21709
883.136	21682
883.262	21583
883.388	21545
883.514	21770
883.64	21660
883.766	21564
883.892	21363
884.018	21534
884.143	21713
884.269	21720
884.395	21568
884.52	21302
884.646	21382
884.772	21256
884.897	21233
885.023	21325
885.148	21424
885.274	21481
885.399	21401
885.524	21298
885.65	21359
885.775	21492
885.9	21241
886.025	21401
886.15	21420
886.275	21256
886.4	21081
886.525	21245
886.65	21237
886.775	21188
886.9	21370
887.025	21428
887.149	21298
887.274	21070
887.399	21131
887.523	21104
887.648	21093
887.773	20979
887.897	21165
888.021	21146
888.146	21131
888.27	21070
888.395	21218
888.519	21077
888.643	21093
888.767	21108
888.891	21100
889.015	20918
889.139	20941
889.263	20826
889.387	20963
889.511	21070
889.635	21051
889.759	20811
889.883	20921
890.006	20807
890.13	20979
890.254	20864
890.377	20800
890.501	20655
890.624	20686
890.748	20697
890.871	20461
890.995	20396
891.118	20366
891.241	20503
891.364	20446
891.488	20518
891.611	20461
891.734	20594
891.857	20522
891.98	20549
892.103	20530
892.226	20431
892.349	20317
892.471	20267
892.594	20358
892.717	20366
892.839	20324
892.962	20286
893.085	20385
893.207	20199
893.33	20275
893.452	20286
893.575	20427
893.697	20309
893.819	20431
893.941	20583
894.064	20415
894.186	20347
894.308	20088
894.43	20446
894.552	20434
894.674	20362
894.796	20176
894.918	20301
895.04	20259
895.161	20438
895.283	20309
895.405	20362
895.526	20370
895.648	20298
895.769	20374
895.891	20298
896.012	20473
896.134	20298
896.255	20351
896.376	20267
896.498	20221
896.619	20446
896.74	20419
896.861	20385
896.982	20651
897.103	20731
897.224	20644
897.345	20552
897.466	20423
897.587	20473
897.708	20644
897.828	20659
897.949	20579
898.07	20442
898.19	20549
898.311	20533
898.431	20552
898.552	20480
898.672	20571
898.792	20712
898.913	20511
899.033	20336
899.153	20427
899.273	20210
899.393	20298
899.513	20404
899.633	20419
899.753	20446
899.873	20153
899.993	20400
900.113	20221
900.232	20396
900.352	20324
900.472	20062
900.591	20122
900.711	20012
900.83	20043
900.95	20168
901.069	20202
901.189	20012
901.308	19750
901.427	19594
901.546	19655
901.665	19689
901.784	19628
901.904	19521
902.023	19476
902.141	19213
902.26	19183
902.379	19278
902.498	19213
902.617	19141
902.735	19118
902.854	19171
902.973	19107
903.091	18848
903.21	18817
903.328	18871
903.446	18749
903.565	18673
903.683	18741
903.801	18486
903.919	18658
904.038	18601
904.156	18494
904.274	18502
904.392	18311
904.51	18342
904.627	18388
904.745	18395
904.863	18479
904.981	18194
905.098	18041
905.216	18053
905.334	18026
905.451	18129
905.569	18079
905.686	18144
905.803	18106
905.921	17828
906.038	17904
906.155	17817
906.272	17794
906.389	17798
906.506	17619
906.623	17611
906.74	17684
906.857	17543
906.974	17444
907.091	17657
907.208	17733
907.324	17589
907.441	17497
907.557	17376
907.674	17296
907.79	17193
907.907	17307
908.023	17334
908.139	17452
908.256	17326
908.372	17265
908.488	17239
908.604	17098
908.72	17071
908.836	17079
908.952	17117
909.068	17037
909.184	17037
909.3	17045
909.415	17018
909.531	17048
909.647	16771
909.762	16816
909.878	16702
909.993	16698
910.108	16706
910.224	16763
910.339	16748
910.454	16561
910.57	16519
910.685	16531
910.8	16790
910.915	16698
911.03	16573
911.145	16386
911.259	16363
911.374	16356
911.489	16253
911.604	16196
911.718	16044
911.833	16055
911.947	15987
912.062	15800
912.176	16051
912.291	16055
912.405	16124
912.519	16310
912.633	16318
912.748	16150
912.862	15873
912.976	15812
913.09	15762
913.204	15838
913.318	15831
913.431	15979
913.545	16010
913.659	15880
913.772	15800
913.886	15652
914	15766
914.113	15804
914.226	15762
914.34	15781
914.453	15553
914.566	15713
914.68	15633
914.793	15526
914.906	15378
915.019	15291
915.132	15306
915.245	15302
915.358	15397
915.47	15298
915.583	15233
915.696	15416
915.809	15466
915.921	15454
916.034	15283
916.146	15211
916.259	15340
916.371	15294
916.483	15211
916.595	15180
916.708	15184
916.82	15108
916.932	15150
917.044	15074
917.156	15043
917.268	14986
917.38	15036
917.491	14929
917.603	14979
917.715	14975
917.826	15036
917.938	14975
918.049	14868
918.161	14891
918.272	14975
918.384	15032
918.495	14975
918.606	14819
918.717	14697
918.828	14731
918.939	14815
919.05	14682
919.161	14716
919.272	14606
919.383	14678
919.494	14785
919.604	14925
919.715	14750
919.826	14575
919.936	14731
920.047	14773
920.157	14750
920.267	14994
920.378	14731
920.488	14632
920.598	14899
920.708	14963
920.818	14823
920.928	14902
921.038	14998
921.148	14971
921.258	14644
921.368	14655
921.477	14442
921.587	14362
921.697	14355
921.806	14415
921.916	14278
922.025	14161
922.134	14092
922.244	13978
922.353	14008
922.462	14012
922.571	13925
922.68	13791
922.789	13628
922.898	13666
923.007	13693
923.116	13700
923.224	13708
923.333	13632
923.442	13647
923.55	13552
923.659	13613
923.767	13578
923.876	13415
923.984	13506
924.092	13441
924.201	13453
924.309	13434
924.417	13403
924.525	13320
924.633	13362
924.741	14259
924.849	13190
924.956	13247
925.064	13114
925.172	13103
925.279	13107
925.387	13152
925.494	13088
925.602	13228
925.709	13228
925.816	13008
925.924	13080
926.031	13118
926.138	13103
926.245	13156
926.352	12962
926.459	13050
926.566	13080
926.673	13015
926.779	12749
926.886	12829
926.993	12711
927.099	12848
927.206	12623
927.312	12608
927.419	12719
927.525	12658
927.631	12700
927.737	12551
927.843	12490
927.95	12483
928.056	12551
928.162	12502
928.267	12566
928.373	13088
928.479	12574
928.585	12319
928.69	12414
928.796	12467
928.901	12399
929.007	12311
929.112	12350
929.218	12311
929.323	12289
929.428	12258
929.533	12437
929.638	12220
929.743	12098
929.848	12194
929.953	12133
930.058	12110
930.163	11916
930.267	11874
930.372	11996
930.477	11859
930.581	12178
930.685	11920
930.79	11817
930.894	11809
930.998	11760
931.103	11920
931.207	11509
931.311	11471
931.415	11364
931.519	11235
931.623	11124
