Data from test_V78500241_838.txt Node
Date: Fri Mar 25 15:47:36 CST 2022
User: usil
Spectrometer: V785-0024
Trigger mode: 0
Integration Time (sec): 4.000000E-1
Scans to average: 1
Nonlinearity correction enabled: false
Boxcar width: 0
Storing dark spectrum: false
XAxis mode: Wavelengths
Number of Pixels in Spectrum: 1024
>>>>>Begin Spectral Data<<<<<
801.071	27622
801.214	27568
801.356	27188
801.499	27055
801.641	27009
801.783	27051
801.926	27184
802.068	27104
802.211	27017
802.353	26918
802.496	26792
802.638	26716
802.78	26716
802.923	26686
803.065	26735
803.208	26708
803.35	26765
803.492	26902
803.635	27001
803.777	26773
803.919	26990
804.061	27344
804.204	26979
804.346	26918
804.488	26655
804.63	26800
804.773	26739
804.915	26906
805.057	27017
805.199	26967
805.341	26979
805.483	26979
805.626	26960
805.768	26963
805.91	26925
806.052	26975
806.194	26887
806.336	27112
806.478	27070
806.62	26979
806.762	27226
806.904	27401
807.046	27564
807.188	27427
807.33	27488
807.472	27374
807.614	27325
807.756	27386
807.898	27344
808.04	27340
808.182	27302
808.324	27245
808.465	27230
808.607	27504
808.749	27599
808.891	27770
809.033	27838
809.174	27903
809.316	27679
809.458	27633
809.6	27660
809.741	27914
809.883	27819
810.025	28029
810.166	27816
810.308	27869
810.45	27739
810.591	27835
810.733	27675
810.875	27675
811.016	27603
811.158	27485
811.299	27766
811.441	27899
811.582	27861
811.724	27694
811.865	27568
812.007	27732
812.148	27561
812.29	27637
812.431	27789
812.573	28040
812.714	28097
812.855	28196
812.997	28436
813.138	28424
813.279	28451
813.421	28105
813.562	28268
813.703	28063
813.845	27854
813.986	27599
814.127	27393
814.268	27256
814.41	27492
814.551	27386
814.692	27325
814.833	27344
814.974	27389
815.115	27344
815.256	27222
815.397	27218
815.539	27108
815.68	27157
815.821	27070
815.962	27192
816.103	27108
816.244	27142
816.385	26868
816.526	26826
816.666	26765
816.807	26625
816.948	26663
817.089	26819
817.23	26670
817.371	26552
817.512	26602
817.653	26686
817.793	26648
817.934	26609
818.075	26568
818.216	26484
818.356	26640
818.497	26530
818.638	26393
818.778	26377
818.919	26225
819.06	26484
819.2	26499
819.341	26815
819.481	26598
819.622	26727
819.762	26853
819.903	27017
820.043	26746
820.184	26906
820.324	26788
820.465	26864
820.605	26705
820.746	26746
820.886	26575
821.026	26667
821.167	26678
821.307	26651
821.447	26621
821.588	26659
821.728	26427
821.868	26290
822.008	25970
822.149	26199
822.289	25959
822.429	25731
822.569	25769
822.709	25753
822.849	25689
822.99	25609
823.13	25597
823.27	25635
823.41	25373
823.55	25304
823.69	25415
823.83	25373
823.97	25411
824.11	25129
824.25	25266
824.389	25148
824.529	25346
824.669	25320
824.809	25426
824.949	25350
825.089	25255
825.228	25240
825.368	25072
825.508	25084
825.648	25225
825.787	25076
825.927	25198
826.067	25065
826.206	24970
826.346	25183
826.485	25069
826.625	25122
826.765	25114
826.904	25129
827.044	24829
827.183	24844
827.323	24757
827.462	24977
827.601	24776
827.741	24722
827.88	24939
828.02	24726
828.159	24722
828.298	24890
828.437	24939
828.577	24776
828.716	24772
828.855	24681
828.994	24563
829.134	24441
829.273	24551
829.412	24601
829.551	24544
829.69	24589
829.829	24559
829.968	24623
830.107	24528
830.246	24574
830.385	24410
830.524	24437
830.663	24194
830.802	24209
830.941	24053
831.08	24148
831.219	24167
831.357	24140
831.496	24338
831.635	24174
831.774	24038
831.913	24064
832.051	23996
832.19	23984
832.329	23942
832.467	23828
832.606	23733
832.744	23824
832.883	23882
833.022	23756
833.16	23790
833.299	23828
833.437	23889
833.576	23999
833.714	23824
833.852	23927
833.991	23946
834.129	23916
834.267	24038
834.406	23973
834.544	24018
834.682	24003
834.821	23802
834.959	24011
835.097	23901
835.235	23912
835.373	23828
835.511	23821
835.65	23661
835.788	23756
835.926	23592
836.064	23600
836.202	23657
836.34	23737
836.478	23798
836.615	23863
836.753	23630
836.891	23691
837.029	23764
837.167	23726
837.305	23615
837.443	23665
837.58	23558
837.718	23668
837.856	23604
837.993	23463
838.131	23604
838.269	23459
838.406	23509
838.544	23303
838.681	23159
838.819	23174
838.956	23090
839.094	23151
839.231	23044
839.369	23189
839.506	23368
839.643	23239
839.781	23006
839.918	22968
840.055	23025
840.193	23056
840.33	23037
840.467	22934
840.604	22889
840.742	23280
840.879	22831
841.016	22889
841.153	22892
841.29	22984
841.427	22892
841.564	22896
841.701	22904
841.838	22843
841.975	22862
842.112	22854
842.249	22717
842.385	22679
842.522	22946
842.659	22790
842.796	22698
842.933	22782
843.069	22618
843.206	22713
843.343	22793
843.479	22752
843.616	22630
843.752	22462
843.889	22500
844.025	22672
844.162	22436
844.298	22592
844.435	22352
844.571	22421
844.708	22428
844.844	22675
844.98	22698
845.117	22459
845.253	22375
845.389	22291
845.525	22436
845.661	22337
845.798	22230
845.934	22192
846.07	22150
846.206	22272
846.342	22379
846.478	22226
846.614	21945
846.75	21816
846.886	21793
847.022	22070
847.158	21934
847.294	21850
847.429	21987
847.565	21934
847.701	22196
847.837	21728
847.972	21644
848.108	21785
848.244	21850
848.379	21625
848.515	21564
848.65	21507
848.786	21462
848.921	21622
849.057	21587
849.192	21698
849.328	21587
849.463	21568
849.598	21397
849.734	21424
849.869	21336
850.004	21272
850.14	21329
850.275	21287
850.41	21287
850.545	21245
850.68	21275
850.815	21370
850.95	21275
851.085	21401
851.22	21348
851.355	21325
851.49	21317
851.625	21249
851.76	21325
851.895	21138
852.03	21180
852.165	21272
852.299	21435
852.434	21317
852.569	21272
852.703	21348
852.838	21374
852.973	21435
853.107	21367
853.242	21237
853.376	21161
853.511	20826
853.645	21108
853.78	21291
853.914	21161
854.048	21150
854.183	21123
854.317	21157
854.451	21367
854.585	21096
854.72	21249
854.854	21298
854.988	21070
855.122	21264
855.256	20941
855.39	21020
855.524	21199
855.658	21180
855.792	21146
855.926	21203
856.06	21272
856.194	21294
856.327	21131
856.461	21028
856.595	21074
856.729	21116
856.862	21184
856.996	21237
857.13	21222
857.263	21268
857.397	21237
857.53	21154
857.664	21230
857.797	21096
857.931	21321
858.064	21169
858.197	21245
858.331	21001
858.464	21188
858.597	21089
858.731	21157
858.864	21070
858.997	21096
859.13	21047
859.263	21211
859.396	21237
859.529	21070
859.662	21116
859.795	21020
859.928	21135
860.061	21199
860.194	21355
860.327	21104
860.46	21161
860.592	21188
860.725	21310
860.858	21336
860.99	21176
861.123	21024
861.256	21096
861.388	21074
861.521	21732
861.653	20990
861.786	20967
861.918	20944
862.05	20956
862.183	21070
862.315	21112
862.447	21051
862.58	21108
862.712	20887
862.844	20823
862.976	20921
863.108	20956
863.24	21405
863.372	20731
863.504	20891
863.636	20815
863.768	20887
863.9	20948
864.032	20883
864.164	20800
864.296	20891
864.428	20872
864.559	20937
864.691	21020
864.823	20944
864.954	20804
865.086	20876
865.217	20644
865.349	20712
865.48	20720
865.612	20655
865.743	20731
865.875	20891
866.006	20743
866.137	20735
866.269	20773
866.4	20727
866.531	20762
866.662	20689
866.793	20682
866.924	20625
867.055	20667
867.186	20731
867.317	20598
867.448	20522
867.579	20724
867.71	20560
867.841	20613
867.972	20670
868.103	20663
868.233	20640
868.364	20670
868.495	20739
868.625	20982
868.756	21104
868.886	20849
869.017	20864
869.147	20937
869.278	21028
869.408	20948
869.539	20960
869.669	21020
869.799	21005
869.929	20994
870.06	20975
870.19	21321
870.32	21222
870.45	21268
870.58	21214
870.71	21458
870.84	21313
870.97	21260
871.1	21294
871.23	21462
871.36	21416
871.489	21344
871.619	21511
871.749	21450
871.879	21488
872.008	21580
872.138	21504
872.267	21485
872.397	21291
872.526	21351
872.656	21370
872.785	21291
872.915	21454
873.044	21580
873.173	21641
873.303	21526
873.432	21553
873.561	21580
873.69	21485
873.819	21515
873.948	21709
874.077	21568
874.206	21523
874.335	21610
874.464	21538
874.593	21778
874.722	21785
874.851	21835
874.979	21781
875.108	21755
875.237	21671
875.365	21667
875.494	21743
875.623	21827
875.751	21667
875.88	21743
876.008	21876
876.136	21941
876.265	22093
876.393	22253
876.521	22287
876.65	22162
876.778	22051
876.906	22192
877.034	22169
877.162	22173
877.29	22124
877.418	22063
877.546	22143
877.674	22166
877.802	22093
877.93	22101
878.058	22131
878.185	22120
878.313	22112
878.441	22006
878.568	22017
878.696	22143
878.824	22139
878.951	22249
879.079	22363
879.206	22344
879.333	22242
879.461	22059
879.588	22120
879.715	22223
879.842	22470
879.97	22207
880.097	21884
880.224	21865
880.351	21915
880.478	22048
880.605	21903
880.732	21960
880.859	22230
880.986	21918
881.112	21861
881.239	21759
881.366	21686
881.493	21629
881.619	21511
881.746	21530
881.872	21583
881.999	21458
882.125	21340
882.252	21492
882.378	21348
882.505	21606
882.631	21233
882.757	21294
882.883	21249
883.01	21272
883.136	21157
883.262	21077
883.388	21036
883.514	21294
883.64	21207
883.766	21047
883.892	20986
884.018	21085
884.143	21127
884.269	21214
884.395	20906
884.52	20842
884.646	20815
884.772	20765
884.897	20754
885.023	20857
885.148	21009
885.274	21142
885.399	20906
885.524	20883
885.65	20868
885.775	20868
885.9	20823
886.025	21013
886.15	21001
886.275	20773
886.4	20746
886.525	20899
886.65	20800
886.775	20796
886.9	20979
887.025	21142
887.149	20853
887.274	20682
887.399	20575
887.523	20663
887.648	20663
887.773	20469
887.897	20765
888.021	20663
888.146	20522
888.27	20724
888.395	20720
888.519	20670
888.643	20621
888.767	20735
888.891	20461
889.015	20438
889.139	20442
889.263	20438
889.387	20533
889.511	20613
889.635	20545
889.759	20412
889.883	20385
890.006	20461
890.13	20541
890.254	20370
890.377	20446
890.501	20043
890.624	20084
890.748	20248
890.871	20024
890.995	20035
891.118	19921
891.241	19982
891.364	19909
891.488	20008
891.611	20016
891.734	20016
891.857	20103
891.98	20046
892.103	20138
892.226	19917
892.349	19875
892.471	19864
892.594	19826
892.717	19959
892.839	19837
892.962	19909
893.085	19940
893.207	19921
893.33	19746
893.452	19818
893.575	19898
893.697	19864
893.819	20027
893.941	20103
894.064	20001
894.186	19917
894.308	19894
894.43	19963
894.552	19947
894.674	20039
894.796	19879
894.918	19776
895.04	19845
895.161	19963
895.283	19951
895.405	19849
895.526	19963
895.648	19940
895.769	19917
895.891	19928
896.012	20092
896.134	19986
896.255	19974
896.376	19803
896.498	19925
896.619	20001
896.74	19864
896.861	20084
896.982	20278
897.103	20400
897.224	20092
897.345	20237
897.466	20069
897.587	20138
897.708	20149
897.828	20225
897.949	20088
898.07	19951
898.19	19974
898.311	20195
898.431	20084
898.552	20103
898.672	20092
898.792	20119
898.913	20229
899.033	20077
899.153	19890
899.273	19841
899.393	19814
899.513	20012
899.633	19860
899.753	19875
899.873	19887
899.993	19875
900.113	19791
900.232	19738
900.352	19868
900.472	19780
900.591	19624
900.711	19731
900.83	19647
900.95	19830
901.069	19666
901.189	19544
901.308	19400
901.427	19228
901.546	19206
901.665	19270
901.784	19263
901.904	19251
902.023	19000
902.141	18837
902.26	18856
902.379	18867
902.498	18673
902.617	18711
902.735	18802
902.854	18783
902.973	18684
903.091	18464
903.21	18448
903.328	18479
903.446	18311
903.565	18235
903.683	18327
903.801	18197
903.919	18159
904.038	18277
904.156	18053
904.274	18053
904.392	18106
904.51	18026
904.627	18030
904.745	18159
904.863	18026
904.981	17760
905.098	17695
905.216	17668
905.334	17767
905.451	17863
905.569	17832
905.686	17771
905.803	17676
905.921	17547
906.038	17535
906.155	17532
906.272	17303
906.389	17372
906.506	17299
906.623	17330
906.74	17181
906.857	17136
906.974	17162
907.091	17372
907.208	17284
907.324	17258
907.441	17117
907.557	16923
907.674	16930
907.79	16934
907.907	16869
908.023	16892
908.139	17022
908.256	16885
908.372	16900
908.488	16736
908.604	16683
908.72	16641
908.836	16725
908.952	16618
909.068	16717
909.184	16733
909.3	16679
909.415	16698
909.531	16698
909.647	16485
909.762	16394
909.878	16375
909.993	16329
910.108	16333
910.224	16261
910.339	16322
910.454	16322
910.57	16200
910.685	16067
910.8	16417
910.915	16382
911.03	16234
911.145	16032
911.259	15918
911.374	16040
911.489	15994
911.604	15861
911.718	15739
911.833	15736
911.947	15648
912.062	15564
912.176	15793
912.291	15720
912.405	15762
912.519	15838
912.633	15911
912.748	15709
912.862	15732
912.976	15557
913.09	15351
913.204	15481
913.318	15534
913.431	15542
913.545	15717
913.659	15599
913.772	15370
913.886	15397
914	15176
914.113	15378
914.226	15572
914.34	15340
914.453	15268
914.566	15405
914.68	15173
914.793	15192
914.906	14921
915.019	14967
915.132	14845
915.245	14941
915.358	14960
915.47	14925
915.583	14994
915.696	15043
915.809	15028
915.921	15093
916.034	14948
916.146	14921
916.259	14705
916.371	14910
916.483	14944
916.595	14811
916.708	14765
916.82	14887
916.932	14667
917.044	14792
917.156	14701
917.268	14667
917.38	14708
917.491	14617
917.603	14670
917.715	14724
917.826	14777
917.938	14507
918.049	14476
918.161	14598
918.272	14670
918.384	14689
918.495	14556
918.606	14374
918.717	14294
918.828	14549
918.939	14438
919.05	14214
919.161	14248
919.272	14286
919.383	14233
919.494	14438
919.604	14629
919.715	14442
919.826	14286
919.936	14301
920.047	14415
920.157	14381
920.267	14518
920.378	14286
920.488	14294
920.598	14594
920.708	14693
920.818	14484
920.928	14499
921.038	14640
921.148	14518
921.258	14396
921.368	14191
921.477	14134
921.587	14062
921.697	13959
921.806	14065
921.916	13970
922.025	13772
922.134	13727
922.244	13620
922.353	13791
922.462	13655
922.571	13590
922.68	13362
922.789	13350
922.898	13369
923.007	13384
923.116	13369
923.224	13373
923.333	13335
923.442	13221
923.55	13160
923.659	13240
923.767	13316
923.876	13145
923.984	13221
924.092	13076
924.201	13202
924.309	13095
924.417	13061
924.525	13034
924.633	13091
924.741	13970
924.849	12871
924.956	13008
925.064	12928
925.172	12821
925.279	12833
925.387	12787
925.494	12837
925.602	12932
925.709	12791
925.816	12772
925.924	12829
926.031	12802
926.138	12730
926.245	12802
926.352	12650
926.459	12791
926.566	12821
926.673	12707
926.779	12620
926.886	12525
926.993	12391
927.099	12388
927.206	12330
927.312	12319
927.419	12391
927.525	12330
927.631	12490
927.737	12190
927.843	12182
927.95	12148
928.056	12224
928.162	12110
928.267	12273
928.373	12939
928.479	12258
928.585	12022
928.69	12144
928.796	12110
928.901	12079
929.007	11984
929.112	11946
929.218	12019
929.323	11931
929.428	11889
929.533	11999
929.638	11855
929.743	11897
929.848	11977
929.953	11885
930.058	11904
930.163	11604
930.267	11634
930.372	11798
930.477	11577
930.581	11840
930.685	11722
930.79	11497
930.894	11539
930.998	11493
931.103	11634
931.207	11284
931.311	11189
931.415	11132
931.519	10957
931.623	10892
