Data from test_V78500241_1803.txt Node
Date: Fri Mar 25 15:54:17 CST 2022
User: usil
Spectrometer: V785-0024
Trigger mode: 0
Integration Time (sec): 4.000000E-1
Scans to average: 1
Nonlinearity correction enabled: false
Boxcar width: 0
Storing dark spectrum: false
XAxis mode: Wavelengths
Number of Pixels in Spectrum: 1024
>>>>>Begin Spectral Data<<<<<
801.071	28645
801.214	28554
801.356	28386
801.499	28177
801.641	28192
801.783	28204
801.926	28135
802.068	28158
802.211	28261
802.353	27953
802.496	27876
802.638	27876
802.78	27804
802.923	27797
803.065	27652
803.208	27701
803.35	27831
803.492	28013
803.635	28185
803.777	27949
803.919	28063
804.061	28432
804.204	28166
804.346	27994
804.488	27846
804.63	27994
804.773	28044
804.915	28048
805.057	28188
805.199	28112
805.341	28135
805.483	28135
805.626	28207
805.768	28223
805.91	28185
806.052	28295
806.194	28124
806.336	28554
806.478	28276
806.62	28181
806.762	28424
806.904	28497
807.046	28774
807.188	28493
807.33	28828
807.472	28839
807.614	28698
807.756	28618
807.898	28535
808.04	28538
808.182	28641
808.324	28542
808.465	28634
808.607	28847
808.749	28805
808.891	29033
809.033	29124
809.174	28919
809.316	28930
809.458	28934
809.6	28774
809.741	28980
809.883	29094
810.025	29102
810.166	29140
810.308	29121
810.45	29022
810.591	28946
810.733	28812
810.875	29037
811.016	28801
811.158	28755
811.299	29071
811.441	29079
811.582	29086
811.724	28904
811.865	28824
812.007	28987
812.148	28881
812.29	28942
812.431	29159
812.573	29235
812.714	29208
812.855	29379
812.997	29577
813.138	29684
813.279	29547
813.421	29482
813.562	29387
813.703	29315
813.845	29162
813.986	28927
814.127	28706
814.268	28523
814.41	28790
814.551	28531
814.692	28668
814.833	28557
814.974	28489
815.115	28542
815.256	28447
815.397	28470
815.539	28462
815.68	28451
815.821	28303
815.962	28421
816.103	28470
816.244	28318
816.385	28120
816.526	28226
816.666	27960
816.807	27918
816.948	28029
817.089	27994
817.23	28040
817.371	28036
817.512	27850
817.653	27934
817.793	27987
817.934	27934
818.075	28013
818.216	28013
818.356	28036
818.497	27789
818.638	27709
818.778	27599
818.919	27652
819.06	27648
819.2	27850
819.341	27964
819.481	27949
819.622	28051
819.762	28344
819.903	28257
820.043	28112
820.184	28036
820.324	28025
820.465	28093
820.605	28173
820.746	28097
820.886	27800
821.026	28010
821.167	28021
821.307	27979
821.447	28010
821.588	27903
821.728	27728
821.868	27542
822.008	27477
822.149	27363
822.289	27291
822.429	27199
822.569	27104
822.709	27032
822.849	26842
822.99	26933
823.13	26910
823.27	26823
823.41	26720
823.55	26632
823.69	26811
823.83	26750
823.97	26765
824.11	26636
824.25	26552
824.389	26560
824.529	26739
824.669	26526
824.809	26602
824.949	26632
825.089	26621
825.228	26583
825.368	26434
825.508	26533
825.648	26377
825.787	26613
825.927	26442
826.067	26473
826.206	26571
826.346	26370
826.485	26473
826.625	26571
826.765	26522
826.904	26476
827.044	26142
827.183	26252
827.323	26046
827.462	26180
827.601	26195
827.741	26126
827.88	26138
828.02	26195
828.159	26210
828.298	26054
828.437	26183
828.577	26012
828.716	26195
828.855	26062
828.994	25947
829.134	25826
829.273	25811
829.412	25830
829.551	25826
829.69	25936
829.829	25803
829.968	25830
830.107	26008
830.246	25826
830.385	25742
830.524	25803
830.663	25635
830.802	25613
830.941	25403
831.08	25529
831.219	25453
831.357	25552
831.496	25643
831.635	25533
831.774	25339
831.913	25358
832.051	25297
832.19	25293
832.329	25221
832.467	25099
832.606	25168
832.744	25103
832.883	25057
833.022	25095
833.16	25114
833.299	25225
833.437	25194
833.576	25179
833.714	25282
833.852	25278
833.991	25247
834.129	25297
834.267	25145
834.406	25244
834.544	25179
834.682	25209
834.821	25156
834.959	25434
835.097	25194
835.235	25228
835.373	25156
835.511	25156
835.65	25088
835.788	24996
835.926	24977
836.064	24764
836.202	24913
836.34	24901
836.478	25053
836.615	24981
836.753	24977
836.891	25050
837.029	25088
837.167	24935
837.305	24935
837.443	24852
837.58	24863
837.718	24882
837.856	24776
837.993	24741
838.131	24829
838.269	24825
838.406	24544
838.544	24604
838.681	24525
838.819	24464
838.956	24296
839.094	24311
839.231	24399
839.369	24452
839.506	24688
839.643	24467
839.781	24327
839.918	24300
840.055	24361
840.193	24365
840.33	24205
840.467	24186
840.604	24273
840.742	24395
840.879	24041
841.016	24136
841.153	24064
841.29	24266
841.427	24098
841.564	24266
841.701	24045
841.838	24053
841.975	24152
842.112	24110
842.249	23927
842.385	23996
842.522	24144
842.659	24114
842.796	23946
842.933	23988
843.069	23855
843.206	23946
843.343	24026
843.479	24053
843.616	23973
843.752	23733
843.889	23767
844.025	23821
844.162	23691
844.298	23714
844.435	23718
844.571	23756
844.708	23783
844.844	23927
844.98	23954
845.117	23786
845.253	23726
845.389	23596
845.525	23600
845.661	23589
845.798	23436
845.934	23383
846.07	23398
846.206	23486
846.342	23448
846.478	23452
846.614	23254
846.75	23181
846.886	23174
847.022	23296
847.158	23261
847.294	23231
847.429	23246
847.565	23231
847.701	23398
847.837	22854
847.972	22828
848.108	22942
848.244	22999
848.379	22771
848.515	22767
848.65	22790
848.786	22664
848.921	22824
849.057	22850
849.192	22862
849.328	22664
849.463	22675
849.598	22763
849.734	22706
849.869	22599
850.004	22577
850.14	22470
850.275	22615
850.41	22409
850.545	22481
850.68	22455
850.815	22516
850.95	22584
851.085	22759
851.22	22668
851.355	22649
851.49	22615
851.625	22561
851.76	22451
851.895	22462
852.03	22542
852.165	22550
852.299	22569
852.434	22649
852.569	22519
852.703	22557
852.838	22557
852.973	22702
853.107	22672
853.242	22405
853.376	22356
853.511	22211
853.645	22360
853.78	22470
853.914	22516
854.048	22272
854.183	22284
854.317	22424
854.451	22523
854.585	22257
854.72	22333
854.854	22440
854.988	22124
855.122	22337
855.256	22200
855.39	22356
855.524	22322
855.658	22386
855.792	22352
855.926	22291
856.06	22402
856.194	22421
856.327	22421
856.461	22268
856.595	22398
856.729	22306
856.862	22478
856.996	22306
857.13	22333
857.263	22390
857.397	22512
857.53	22459
857.664	22344
857.797	22367
857.931	22432
858.064	22443
858.197	22421
858.331	22268
858.464	22485
858.597	22219
858.731	22219
858.864	22249
858.997	22303
859.13	22185
859.263	22371
859.396	22432
859.529	22306
859.662	22166
859.795	22272
859.928	22367
860.061	22500
860.194	22542
860.327	22459
860.46	22360
860.592	22485
860.725	22424
860.858	22580
860.99	22337
861.123	22185
861.256	22268
861.388	22375
861.521	23083
861.653	22223
861.786	21975
861.918	22200
862.05	22181
862.183	22417
862.315	22284
862.447	22306
862.58	22257
862.712	22051
862.844	22032
862.976	22177
863.108	22032
863.24	22497
863.372	22063
863.504	22109
863.636	22192
863.768	22090
863.9	22143
864.032	22120
864.164	21949
864.296	22036
864.428	22246
864.559	22173
864.691	22166
864.823	22029
864.954	22013
865.086	22162
865.217	21926
865.349	21899
865.48	21979
865.612	22029
865.743	22021
865.875	21888
866.006	21827
866.137	21956
866.269	21842
866.4	21857
866.531	21899
866.662	21762
866.793	21884
866.924	21873
867.055	21884
867.186	21869
867.317	21838
867.448	21720
867.579	21732
867.71	21766
867.841	21694
867.972	21930
868.103	21956
868.233	21937
868.364	21827
868.495	21857
868.625	22143
868.756	22131
868.886	22105
869.017	22116
869.147	22173
869.278	22249
869.408	22131
869.539	22147
869.669	22158
869.799	22135
869.929	22276
870.06	22192
870.19	22466
870.32	22360
870.45	22352
870.58	22459
870.71	22607
870.84	22660
870.97	22474
871.1	22554
871.23	22641
871.36	22729
871.489	22538
871.619	22683
871.749	22611
871.879	22694
872.008	22767
872.138	22698
872.267	22645
872.397	22512
872.526	22436
872.656	22512
872.785	22538
872.915	22637
873.044	22858
873.173	22752
873.303	22675
873.432	22683
873.561	22824
873.69	22668
873.819	22698
873.948	22850
874.077	22660
874.206	22660
874.335	22782
874.464	22847
874.593	22896
874.722	22885
874.851	22961
874.979	22968
875.108	23010
875.237	22957
875.365	22976
875.494	22862
875.623	23037
875.751	23006
875.88	22999
876.008	23037
876.136	22972
876.265	23151
876.393	23444
876.521	23246
876.65	23376
876.778	23326
876.906	23395
877.034	23330
877.162	23227
877.29	23337
877.418	23216
877.546	23178
877.674	23193
877.802	23288
877.93	23261
878.058	23360
878.185	23086
878.313	23265
878.441	23303
878.568	23124
878.696	23246
878.824	23334
878.951	23452
879.079	23505
879.206	23596
879.333	23436
879.461	23250
879.588	23486
879.715	23455
879.842	23459
879.97	23444
880.097	23037
880.224	23113
880.351	23113
880.478	23067
880.605	22938
880.732	23071
880.859	23368
880.986	23117
881.112	23117
881.239	22953
881.366	22881
881.493	22687
881.619	22679
881.746	22596
881.872	22569
881.999	22626
882.125	22497
882.252	22816
882.378	22565
882.505	22637
882.631	22542
882.757	22360
882.883	22618
883.01	22318
883.136	22280
883.262	22211
883.388	22265
883.514	22371
883.64	22276
883.766	22249
883.892	22131
884.018	22074
884.143	22234
884.269	22371
884.395	22082
884.52	21865
884.646	21930
884.772	21823
884.897	21911
885.023	21983
885.148	22036
885.274	22044
885.399	21945
885.524	21869
885.65	21983
885.775	21960
885.9	22070
886.025	22124
886.15	21964
886.275	21915
886.4	21956
886.525	21838
886.65	21937
886.775	21915
886.9	22128
887.025	22181
887.149	21838
887.274	21808
887.399	21739
887.523	21717
887.648	21698
887.773	21682
887.897	21895
888.021	21785
888.146	21625
888.27	21827
888.395	21865
888.519	21728
888.643	21660
888.767	21770
888.891	21564
889.015	21507
889.139	21644
889.263	21587
889.387	21591
889.511	21675
889.635	21652
889.759	21553
889.883	21462
890.006	21519
890.13	21709
890.254	21412
890.377	21420
890.501	21336
890.624	21272
890.748	21169
890.871	21146
890.995	21020
891.118	21028
891.241	21089
891.364	21055
891.488	21279
891.611	21146
891.734	21028
891.857	21222
891.98	21036
892.103	21104
892.226	21112
892.349	20937
892.471	20963
892.594	20929
892.717	21043
892.839	20807
892.962	21157
893.085	20986
893.207	20979
893.33	20807
893.452	20796
893.575	20933
893.697	21036
893.819	21036
893.941	21165
894.064	21009
894.186	20975
894.308	20868
894.43	21028
894.552	21104
894.674	21096
894.796	20883
894.918	20819
895.04	20868
895.161	20994
895.283	21100
895.405	20910
895.526	20952
895.648	20990
895.769	20944
895.891	21051
896.012	21062
896.134	21013
896.255	20933
896.376	20864
896.498	20845
896.619	21009
896.74	21017
896.861	21195
896.982	21260
897.103	21420
897.224	21188
897.345	21039
897.466	21055
897.587	21017
897.708	21363
897.828	21157
897.949	21165
898.07	20994
898.19	21066
898.311	21226
898.431	21146
898.552	21131
898.672	21291
898.792	21192
898.913	21252
899.033	21020
899.153	20963
899.273	20781
899.393	20861
899.513	20914
899.633	20845
899.753	20861
899.873	20834
899.993	20956
900.113	20830
900.232	20834
900.352	20815
900.472	20765
900.591	20621
900.711	20670
900.83	20606
900.95	20750
901.069	20636
901.189	20507
901.308	20377
901.427	20176
901.546	20130
901.665	20233
901.784	20240
901.904	20145
902.023	19955
902.141	19841
902.26	19791
902.379	19814
902.498	19719
902.617	19712
902.735	19731
902.854	19738
902.973	19601
903.091	19369
903.21	19354
903.328	19415
903.446	19198
903.565	19327
903.683	19148
903.801	19133
903.919	19141
904.038	19110
904.156	18920
904.274	18989
904.392	18966
904.51	18897
904.627	18882
904.745	18962
904.863	18935
904.981	18722
905.098	18730
905.216	18646
905.334	18608
905.451	18650
905.569	18555
905.686	18639
905.803	18673
905.921	18414
906.038	18433
906.155	18384
906.272	18243
906.389	18350
906.506	18194
906.623	18102
906.74	18064
906.857	18133
906.974	18045
907.091	18186
907.208	18304
907.324	18186
907.441	17996
907.557	17920
907.674	17843
907.79	17718
907.907	17882
908.023	17817
908.139	17832
908.256	17786
908.372	17729
908.488	17668
908.604	17573
908.72	17478
908.836	17627
908.952	17463
909.068	17547
909.184	17577
909.3	17604
909.415	17551
909.531	17440
909.647	17349
909.762	17341
909.878	17197
909.993	17292
910.108	17299
910.224	17155
910.339	17250
910.454	17094
910.57	17064
910.685	16892
910.8	17227
910.915	17204
911.03	17124
911.145	16877
911.259	16774
911.374	16831
911.489	16820
911.604	16649
911.718	16630
911.833	16519
911.947	16527
912.062	16462
912.176	16565
912.291	16535
912.405	16649
912.519	16744
912.633	16790
912.748	16717
912.862	16527
912.976	16443
913.09	16367
913.204	16303
913.318	16371
913.431	16504
913.545	16413
913.659	16398
913.772	16299
913.886	16329
914	16128
914.113	16257
914.226	16272
914.34	16223
914.453	16101
914.566	16207
914.68	16185
914.793	16082
914.906	15804
915.019	15770
915.132	15717
915.245	15743
915.358	15778
915.47	15808
915.583	15812
915.696	15800
915.809	15816
915.921	15884
916.034	15694
916.146	15614
916.259	15557
916.371	15679
916.483	15637
916.595	15603
916.708	15561
916.82	15564
916.932	15599
917.044	15530
917.156	15507
917.268	15405
917.38	15431
917.491	15348
917.603	15397
917.715	15511
917.826	15523
917.938	15321
918.049	15291
918.161	15355
918.272	15389
918.384	15424
918.495	15291
918.606	15112
918.717	15009
918.828	15176
918.939	15097
919.05	14963
919.161	15127
919.272	14853
919.383	14880
919.494	15256
919.604	15389
919.715	15089
919.826	14906
919.936	15039
920.047	15058
920.157	15085
920.267	15348
920.378	15188
920.488	15058
920.598	15306
920.708	15405
920.818	15249
920.928	15199
921.038	15386
921.148	15226
921.258	14956
921.368	14910
921.477	14864
921.587	14800
921.697	14644
921.806	14845
921.916	14659
922.025	14514
922.134	14454
922.244	14400
922.353	14450
922.462	14275
922.571	14237
922.68	14259
922.789	14084
922.898	14092
923.007	14062
923.116	14123
923.224	14103
923.333	14073
923.442	13944
923.55	13871
923.659	13928
923.767	13955
923.876	13788
923.984	13830
924.092	13780
924.201	13795
924.309	13856
924.417	13833
924.525	13746
924.633	13696
924.741	14594
924.849	13594
924.956	13674
925.064	13495
925.172	13449
925.279	13377
925.387	13556
925.494	13453
925.602	13552
925.709	13480
925.816	13362
925.924	13430
926.031	13472
926.138	13324
926.245	13472
926.352	13259
926.459	13400
926.566	13388
926.673	13339
926.779	13156
926.886	13164
926.993	13137
927.099	13088
927.206	12909
927.312	13004
927.419	13050
927.525	13057
927.631	13072
927.737	12905
927.843	12913
927.95	12768
928.056	12856
928.162	12833
928.267	12817
928.373	13411
928.479	12939
928.585	12654
928.69	12764
928.796	12844
928.901	12791
929.007	12517
929.112	12612
929.218	12711
929.323	12490
929.428	12639
929.533	12684
929.638	12513
929.743	12422
929.848	12475
929.953	12479
930.058	12369
930.163	12182
930.267	12251
930.372	12327
930.477	12190
930.581	12414
930.685	12251
930.79	12091
930.894	12133
930.998	12064
931.103	12171
931.207	11874
931.311	11794
931.415	11718
931.519	11459
931.623	11463
