Data from test_V78500241_1055.txt Node
Date: Fri Mar 25 15:49:06 CST 2022
User: usil
Spectrometer: V785-0024
Trigger mode: 0
Integration Time (sec): 4.000000E-1
Scans to average: 1
Nonlinearity correction enabled: false
Boxcar width: 0
Storing dark spectrum: false
XAxis mode: Wavelengths
Number of Pixels in Spectrum: 1024
>>>>>Begin Spectral Data<<<<<
801.071	28440
801.214	28508
801.356	28272
801.499	28162
801.641	28147
801.783	28158
801.926	28112
802.068	28192
802.211	27994
802.353	27838
802.496	27850
802.638	27789
802.78	27766
802.923	27762
803.065	27686
803.208	27709
803.35	27736
803.492	27861
803.635	28017
803.777	27903
803.919	28158
804.061	28329
804.204	28105
804.346	27998
804.488	27903
804.63	28074
804.773	27945
804.915	28017
805.057	28017
805.199	28147
805.341	28166
805.483	28177
805.626	28215
805.768	27979
805.91	28154
806.052	28234
806.194	28082
806.336	28390
806.478	28219
806.62	28158
806.762	28363
806.904	28523
807.046	28683
807.188	28580
807.33	28668
807.472	28748
807.614	28637
807.756	28630
807.898	28546
808.04	28519
808.182	28455
808.324	28432
808.465	28478
808.607	28683
808.749	28908
808.891	28923
809.033	28942
809.174	28850
809.316	28908
809.458	28896
809.6	28786
809.741	29048
809.883	29060
810.025	29162
810.166	29216
810.308	29307
810.45	29075
810.591	29102
810.733	29041
810.875	28934
811.016	28812
811.158	28831
811.299	28965
811.441	29181
811.582	29117
811.724	29048
811.865	28938
812.007	28919
812.148	28930
812.29	28866
812.431	29136
812.573	29212
812.714	29417
812.855	29448
812.997	29414
813.138	29577
813.279	29589
813.421	29497
813.562	29356
813.703	29223
813.845	29181
813.986	28858
814.127	28805
814.268	28653
814.41	28592
814.551	28367
814.692	28675
814.833	28481
814.974	28660
815.115	28584
815.256	28546
815.397	28508
815.539	28531
815.68	28565
815.821	28341
815.962	28379
816.103	28401
816.244	28341
816.385	28284
816.526	28223
816.666	28128
816.807	28010
816.948	27983
817.089	28150
817.23	28078
817.371	27998
817.512	27854
817.653	27994
817.793	27823
817.934	27937
818.075	27953
818.216	27854
818.356	27892
818.497	27873
818.638	27717
818.778	27728
818.919	27580
819.06	27618
819.2	27846
819.341	27854
819.481	27869
819.622	28124
819.762	28314
819.903	28169
820.043	28139
820.184	28116
820.324	28010
820.465	28109
820.605	27998
820.746	28090
820.886	27857
821.026	28090
821.167	28055
821.307	28211
821.447	28002
821.588	27892
821.728	27713
821.868	27641
822.008	27374
822.149	27450
822.289	27302
822.429	27195
822.569	27138
822.709	27085
822.849	26868
822.99	26918
823.13	26902
823.27	26910
823.41	26708
823.55	26564
823.69	26636
823.83	26830
823.97	26796
824.11	26625
824.25	26526
824.389	26606
824.529	26674
824.669	26537
824.809	26815
824.949	26697
825.089	26621
825.228	26682
825.368	26537
825.508	26408
825.648	26355
825.787	26332
825.927	26632
826.067	26370
826.206	26568
826.346	26495
826.485	26473
826.625	26492
826.765	26568
826.904	26473
827.044	26366
827.183	26172
827.323	26115
827.462	26081
827.601	26195
827.741	26153
827.88	26122
828.02	26069
828.159	26176
828.298	26191
828.437	26282
828.577	26191
828.716	26343
828.855	26199
828.994	25757
829.134	25685
829.273	25944
829.412	25780
829.551	25963
829.69	25803
829.829	25909
829.968	25860
830.107	25974
830.246	25860
830.385	25845
830.524	25738
830.663	25761
830.802	25575
830.941	25556
831.08	25430
831.219	25396
831.357	25597
831.496	25662
831.635	25430
831.774	25384
831.913	25350
832.051	25346
832.19	25183
832.329	25228
832.467	25034
832.606	25126
832.744	25145
832.883	25103
833.022	25042
833.16	25145
833.299	25240
833.437	25019
833.576	25327
833.714	25327
833.852	25327
833.991	25293
834.129	25445
834.267	25339
834.406	25126
834.544	25293
834.682	25228
834.821	25038
834.959	25304
835.097	25217
835.235	25316
835.373	25175
835.511	25240
835.65	25080
835.788	24958
835.926	24894
836.064	24840
836.202	24783
836.34	25065
836.478	25072
836.615	24973
836.753	24943
836.891	25160
837.029	25019
837.167	25034
837.305	24852
837.443	24852
837.58	24973
837.718	24810
837.856	24795
837.993	24840
838.131	24856
838.269	24700
838.406	24757
838.544	24650
838.681	24578
838.819	24441
838.956	24315
839.094	24281
839.231	24353
839.369	24407
839.506	24719
839.643	24559
839.781	24327
839.918	24121
840.055	24243
840.193	24346
840.33	24292
840.467	24258
840.604	24235
840.742	24490
840.879	24110
841.016	24201
841.153	24045
841.29	24323
841.427	24319
841.564	24232
841.701	24102
841.838	24247
841.975	24155
842.112	24102
842.249	24102
842.385	23950
842.522	24186
842.659	24136
842.796	23889
842.933	24045
843.069	23980
843.206	23874
843.343	23939
843.479	24011
843.616	23996
843.752	23779
843.889	23752
844.025	23786
844.162	23630
844.298	23885
844.435	23737
844.571	23680
844.708	23863
844.844	23866
844.98	23836
845.117	23817
845.253	23855
845.389	23581
845.525	23638
845.661	23554
845.798	23436
845.934	23444
846.07	23406
846.206	23444
846.342	23596
846.478	23554
846.614	23334
846.75	23079
846.886	23136
847.022	23353
847.158	23178
847.294	23239
847.429	23288
847.565	23181
847.701	23402
847.837	23044
847.972	23094
848.108	22927
848.244	23056
848.379	22790
848.515	22748
848.65	22816
848.786	22797
848.921	22778
849.057	23022
849.192	22946
849.328	22812
849.463	22797
849.598	22752
849.734	22672
849.869	22672
850.004	22580
850.14	22527
850.275	22478
850.41	22485
850.545	22550
850.68	22405
850.815	22546
850.95	22489
851.085	22763
851.22	22653
851.355	22653
851.49	22512
851.625	22497
851.76	22447
851.895	22451
852.03	22466
852.165	22603
852.299	22557
852.434	22691
852.569	22485
852.703	22466
852.838	22645
852.973	22588
853.107	22698
853.242	22436
853.376	22303
853.511	22177
853.645	22253
853.78	22523
853.914	22489
854.048	22337
854.183	22470
854.317	22280
854.451	22554
854.585	22287
854.72	22352
854.854	22497
854.988	22291
855.122	22299
855.256	22143
855.39	22363
855.524	22519
855.658	22367
855.792	22333
855.926	22344
856.06	22432
856.194	22398
856.327	22436
856.461	22329
856.595	22249
856.729	22310
856.862	22596
856.996	22268
857.13	22462
857.263	22428
857.397	22436
857.53	22306
857.664	22405
857.797	22417
857.931	22538
858.064	22375
858.197	22402
858.331	22352
858.464	22303
858.597	22280
858.731	22310
858.864	22310
858.997	22306
859.13	22367
859.263	22402
859.396	22443
859.529	22382
859.662	22284
859.795	22360
859.928	22314
860.061	22428
860.194	22504
860.327	22360
860.46	22333
860.592	22390
860.725	22489
860.858	22493
860.99	22462
861.123	22246
861.256	22310
861.388	22276
861.521	22991
861.653	22158
861.786	22219
861.918	22215
862.05	22246
862.183	22261
862.315	22295
862.447	22246
862.58	22249
862.712	22097
862.844	22112
862.976	22211
863.108	22147
863.24	22523
863.372	21937
863.504	21975
863.636	21983
863.768	22112
863.9	22010
864.032	21941
864.164	22029
864.296	22025
864.428	22124
864.559	22177
864.691	22154
864.823	22177
864.954	21987
865.086	22185
865.217	22017
865.349	21915
865.48	21964
865.612	22040
865.743	22044
865.875	22002
866.006	21945
866.137	21915
866.269	21994
866.4	22013
866.531	21880
866.662	21880
866.793	21854
866.924	21842
867.055	21953
867.186	21994
867.317	21755
867.448	21660
867.579	21838
867.71	21789
867.841	21854
867.972	21903
868.103	21869
868.233	21934
868.364	21964
868.495	21880
868.625	22188
868.756	22196
868.886	22097
869.017	22112
869.147	22158
869.278	22291
869.408	22101
869.539	22124
869.669	22200
869.799	22306
869.929	22295
870.06	22291
870.19	22382
870.32	22344
870.45	22386
870.58	22424
870.71	22668
870.84	22649
870.97	22421
871.1	22588
871.23	22653
871.36	22622
871.489	22679
871.619	22679
871.749	22691
871.879	22755
872.008	22847
872.138	22710
872.267	22660
872.397	22538
872.526	22611
872.656	22538
872.785	22630
872.915	22691
873.044	22755
873.173	22774
873.303	22839
873.432	22767
873.561	22733
873.69	22759
873.819	22744
873.948	22763
874.077	22778
874.206	22675
874.335	22752
874.464	22782
874.593	23041
874.722	22968
874.851	22961
874.979	22892
875.108	22908
875.237	22847
875.365	22816
875.494	22968
875.623	23083
875.751	22949
875.88	23010
876.008	23094
876.136	23166
876.265	23395
876.393	23402
876.521	23364
876.65	23414
876.778	23353
876.906	23307
877.034	23254
877.162	23181
877.29	23151
877.418	23410
877.546	23181
877.674	23258
877.802	23140
877.93	23269
878.058	23246
878.185	23185
878.313	23162
878.441	23277
878.568	23006
878.696	23189
878.824	23337
878.951	23345
879.079	23364
879.206	23634
879.333	23360
879.461	23239
879.588	23250
879.715	23376
879.842	23596
879.97	23318
880.097	23003
880.224	22915
880.351	23109
880.478	22984
880.605	23098
880.732	22972
880.859	23330
880.986	23117
881.112	22965
881.239	22896
881.366	22923
881.493	22694
881.619	22634
881.746	22759
881.872	22694
881.999	22599
882.125	22611
882.252	22687
882.378	22653
882.505	22767
882.631	22466
882.757	22306
882.883	22322
883.01	22356
883.136	22367
883.262	22310
883.388	22143
883.514	22242
883.64	22299
883.766	22162
883.892	22040
884.018	22086
884.143	22272
884.269	22234
884.395	21941
884.52	21930
884.646	22059
884.772	21994
884.897	21930
885.023	22051
885.148	22017
885.274	22147
885.399	22029
885.524	22017
885.65	22097
885.775	22093
885.9	21911
886.025	22036
886.15	21968
886.275	21888
886.4	21861
886.525	21960
886.65	21888
886.775	21781
886.9	22067
887.025	22147
887.149	21895
887.274	21686
887.399	21793
887.523	21728
887.648	21705
887.773	21652
887.897	21686
888.021	21644
888.146	21762
888.27	21660
888.395	21785
888.519	21751
888.643	21717
888.767	21759
888.891	21629
889.015	21606
889.139	21511
889.263	21485
889.387	21724
889.511	21698
889.635	21587
889.759	21466
889.883	21542
890.006	21538
890.13	21652
890.254	21420
890.377	21473
890.501	21233
890.624	21195
890.748	21332
890.871	21180
890.995	21074
891.118	20990
891.241	21036
891.364	20994
891.488	21283
891.611	20948
891.734	21005
891.857	21161
891.98	21131
892.103	21184
892.226	21020
892.349	20876
892.471	20956
892.594	20933
892.717	21119
892.839	20849
892.962	21017
893.085	21009
893.207	20910
893.33	20811
893.452	20937
893.575	21001
893.697	20937
893.819	21066
893.941	21180
894.064	21028
894.186	20861
894.308	20971
894.43	21005
894.552	21100
894.674	21070
894.796	20823
894.918	20944
895.04	20895
895.161	20918
895.283	20849
895.405	20899
895.526	20853
895.648	20963
895.769	20944
895.891	20914
896.012	21028
896.134	20883
896.255	20906
896.376	20838
896.498	20872
896.619	20956
896.74	20963
896.861	21020
896.982	21279
897.103	21393
897.224	21131
897.345	21081
897.466	21081
897.587	21074
897.708	21302
897.828	21214
897.949	21062
898.07	21043
898.19	21085
898.311	21214
898.431	21047
898.552	21157
898.672	21245
898.792	21108
898.913	21131
899.033	21055
899.153	21047
899.273	20800
899.393	20963
899.513	20937
899.633	20994
899.753	20834
899.873	20773
899.993	20800
900.113	20750
900.232	20868
900.352	20682
900.472	20735
900.591	20598
900.711	20632
900.83	20663
900.95	20830
901.069	20693
901.189	20590
901.308	20328
901.427	20339
901.546	20256
901.665	20210
901.784	20271
901.904	20142
902.023	19955
902.141	19784
902.26	19776
902.379	19864
902.498	19765
902.617	19647
902.735	19818
902.854	19727
902.973	19651
903.091	19358
903.21	19346
903.328	19430
903.446	19308
903.565	19274
903.683	19141
903.801	18954
903.919	19194
904.038	19103
904.156	18958
904.274	19019
904.392	18977
904.51	18871
904.627	18920
904.745	18905
904.863	18909
904.981	18753
905.098	18570
905.216	18703
905.334	18547
905.451	18597
905.569	18623
905.686	18681
905.803	18707
905.921	18338
906.038	18483
906.155	18464
906.272	18308
906.389	18235
906.506	18121
906.623	18224
906.74	18186
906.857	18057
906.974	17980
907.091	18190
907.208	18171
907.324	18270
907.441	18038
907.557	17950
907.674	17859
907.79	17836
907.907	17783
908.023	17893
908.139	17771
908.256	17855
908.372	17756
908.488	17653
908.604	17611
908.72	17551
908.836	17539
908.952	17478
909.068	17638
909.184	17657
909.3	17516
909.415	17608
909.531	17505
909.647	17360
909.762	17208
909.878	17246
909.993	17261
910.108	17181
910.224	17178
910.339	17280
910.454	17067
910.57	16980
910.685	16938
910.8	17102
910.915	17136
911.03	17003
911.145	16885
911.259	16790
911.374	16927
911.489	16824
911.604	16691
911.718	16599
911.833	16615
911.947	16489
912.062	16470
912.176	16538
912.291	16580
912.405	16618
912.519	16710
912.633	16839
912.748	16535
912.862	16626
912.976	16440
913.09	16360
913.204	16382
913.318	16344
913.431	16512
913.545	16413
913.659	16417
913.772	16348
913.886	16219
914	16093
914.113	16211
914.226	16265
914.34	16253
914.453	16002
914.566	16295
914.68	16029
914.793	16048
914.906	15808
915.019	15743
915.132	15793
915.245	15736
915.358	15717
915.47	15759
915.583	15861
915.696	15755
915.809	15907
915.921	15915
916.034	15717
916.146	15679
916.259	15614
916.371	15701
916.483	15732
916.595	15618
916.708	15557
916.82	15519
916.932	15576
917.044	15526
917.156	15488
917.268	15435
917.38	15370
917.491	15306
917.603	15450
917.715	15473
917.826	15389
917.938	15241
918.049	15241
918.161	15275
918.272	15447
918.384	15428
918.495	15279
918.606	15119
918.717	15135
918.828	15150
918.939	15123
919.05	15104
919.161	15142
919.272	14849
919.383	14971
919.494	15093
919.604	15340
919.715	15077
919.826	15043
919.936	15055
920.047	15085
920.157	15043
920.267	15355
920.378	15142
920.488	15070
920.598	15268
920.708	15386
920.818	15199
920.928	15195
921.038	15283
921.148	15241
921.258	15013
921.368	14781
921.477	14876
921.587	14670
921.697	14655
921.806	14830
921.916	14705
922.025	14530
922.134	14503
922.244	14324
922.353	14488
922.462	14259
922.571	14240
922.68	14069
922.789	14103
922.898	14126
923.007	14123
923.116	14096
923.224	14050
923.333	14065
923.442	13837
923.55	13974
923.659	13902
923.767	14020
923.876	13830
923.984	13944
924.092	13734
924.201	13845
924.309	13849
924.417	13841
924.525	13681
924.633	13685
924.741	14480
924.849	13597
924.956	13719
925.064	13487
925.172	13411
925.279	13468
925.387	13381
925.494	13457
925.602	13632
925.709	13396
925.816	13297
925.924	13449
926.031	13559
926.138	13369
926.245	13426
926.352	13346
926.459	13468
926.566	13548
926.673	13339
926.779	13228
926.886	13141
926.993	12981
927.099	13069
927.206	12947
927.312	13000
927.419	12981
927.525	12951
927.631	13091
927.737	12875
927.843	12867
927.95	12772
928.056	12802
928.162	12871
928.267	12814
928.373	13407
928.479	12890
928.585	12642
928.69	12772
928.796	12825
928.901	12768
929.007	12547
929.112	12749
929.218	12593
929.323	12589
929.428	12658
929.533	12646
929.638	12479
929.743	12429
929.848	12502
929.953	12467
930.058	12475
930.163	12117
930.267	12178
930.372	12258
930.477	12216
930.581	12418
930.685	12247
930.79	12091
930.894	12129
930.998	12140
931.103	12144
931.207	11889
931.311	11726
931.415	11676
931.519	11433
931.623	11425
