Data from test_V78500241_1743.txt Node
Date: Fri Mar 25 15:53:52 CST 2022
User: usil
Spectrometer: V785-0024
Trigger mode: 0
Integration Time (sec): 4.000000E-1
Scans to average: 1
Nonlinearity correction enabled: false
Boxcar width: 0
Storing dark spectrum: false
XAxis mode: Wavelengths
Number of Pixels in Spectrum: 1024
>>>>>Begin Spectral Data<<<<<
801.071	28599
801.214	28672
801.356	28421
801.499	28409
801.641	28265
801.783	28382
801.926	28291
802.068	28272
802.211	28154
802.353	28150
802.496	27899
802.638	27983
802.78	27968
802.923	27743
803.065	27880
803.208	27846
803.35	27911
803.492	27994
803.635	28276
803.777	28051
803.919	28090
804.061	28508
804.204	28196
804.346	28032
804.488	28109
804.63	28097
804.773	27945
804.915	28246
805.057	28295
805.199	28059
805.341	28306
805.483	28394
805.626	28421
805.768	28234
805.91	28421
806.052	28398
806.194	28329
806.336	28527
806.478	28413
806.62	28348
806.762	28527
806.904	28497
807.046	28702
807.188	28816
807.33	28774
807.472	28828
807.614	28759
807.756	28790
807.898	28580
808.04	28668
808.182	28596
808.324	28687
808.465	28641
808.607	28942
808.749	29067
808.891	29025
809.033	29239
809.174	29052
809.316	29075
809.458	29048
809.6	28885
809.741	29010
809.883	29193
810.025	29277
810.166	29159
810.308	29375
810.45	29037
810.591	29102
810.733	29056
810.875	29151
811.016	28987
811.158	28965
811.299	29105
811.441	29337
811.582	29261
811.724	29166
811.865	29079
812.007	29044
812.148	29037
812.29	29277
812.431	29277
812.573	29326
812.714	29493
812.855	29665
812.997	29661
813.138	29840
813.279	29695
813.421	29516
813.562	29531
813.703	29452
813.845	29250
813.986	29136
814.127	28866
814.268	28713
814.41	28828
814.551	28767
814.692	28778
814.833	28687
814.974	28744
815.115	28702
815.256	28710
815.397	28622
815.539	28577
815.68	28634
815.821	28573
815.962	28546
816.103	28451
816.244	28436
816.385	28246
816.526	28253
816.666	28192
816.807	27968
816.948	28128
817.089	28154
817.23	28029
817.371	28131
817.512	28021
817.653	28055
817.793	27972
817.934	28139
818.075	28021
818.216	28032
818.356	27926
818.497	27747
818.638	27644
818.778	27876
818.919	27892
819.06	27873
819.2	27895
819.341	28025
819.481	28006
819.622	28128
819.762	28489
819.903	28162
820.043	28169
820.184	28230
820.324	28272
820.465	28253
820.605	28272
820.746	28097
820.886	28067
821.026	28154
821.167	28204
821.307	28257
821.447	28173
821.588	27949
821.728	27869
821.868	27622
822.008	27595
822.149	27469
822.289	27618
822.429	27252
822.569	27142
822.709	27203
822.849	27028
822.99	27127
823.13	26979
823.27	26967
823.41	26724
823.55	26674
823.69	26880
823.83	26792
823.97	26625
824.11	26731
824.25	26629
824.389	26773
824.529	26746
824.669	26651
824.809	26853
824.949	26724
825.089	26781
825.228	26758
825.368	26552
825.508	26530
825.648	26640
825.787	26663
825.927	26564
826.067	26499
826.206	26564
826.346	26613
826.485	26724
826.625	26598
826.765	26705
826.904	26590
827.044	26332
827.183	26339
827.323	26225
827.462	26396
827.601	26275
827.741	26286
827.88	26259
828.02	26221
828.159	26259
828.298	26317
828.437	26358
828.577	26202
828.716	26419
828.855	26062
828.994	25982
829.134	25913
829.273	26119
829.412	26020
829.551	25887
829.69	25913
829.829	26012
829.968	26084
830.107	26027
830.246	25879
830.385	25955
830.524	25807
830.663	25708
830.802	25784
830.941	25658
831.08	25586
831.219	25662
831.357	25544
831.496	25860
831.635	25632
831.774	25483
831.913	25388
832.051	25419
832.19	25320
832.329	25225
832.467	25236
832.606	25266
832.744	25038
832.883	25183
833.022	25217
833.16	25240
833.299	25301
833.437	25297
833.576	25312
833.714	25407
833.852	25297
833.991	25285
834.129	25441
834.267	25400
834.406	25213
834.544	25236
834.682	25301
834.821	25255
834.959	25483
835.097	25164
835.235	25297
835.373	25358
835.511	25362
835.65	25217
835.788	25168
835.926	25129
836.064	24897
836.202	24905
836.34	25164
836.478	25194
836.615	25137
836.753	25004
836.891	25225
837.029	25152
837.167	25072
837.305	25080
837.443	24970
837.58	24939
837.718	25076
837.856	24905
837.993	24935
838.131	24901
838.269	24878
838.406	24848
838.544	24764
838.681	24654
838.819	24627
838.956	24403
839.094	24486
839.231	24517
839.369	24483
839.506	24825
839.643	24665
839.781	24441
839.918	24391
840.055	24369
840.193	24502
840.33	24311
840.467	24258
840.604	24361
840.742	24715
840.879	24304
841.016	24243
841.153	24308
841.29	24376
841.427	24205
841.564	24258
841.701	24410
841.838	24114
841.975	24273
842.112	24350
842.249	24102
842.385	24102
842.522	24216
842.659	24197
842.796	24148
842.933	24068
843.069	24076
843.206	24030
843.343	24110
843.479	24079
843.616	23999
843.752	23870
843.889	23786
844.025	24091
844.162	23836
844.298	24003
844.435	23874
844.571	23851
844.708	23958
844.844	23889
844.98	24011
845.117	23897
845.253	23767
845.389	23779
845.525	23745
845.661	23680
845.798	23512
845.934	23615
846.07	23554
846.206	23505
846.342	23726
846.478	23562
846.614	23334
846.75	23159
846.886	23299
847.022	23334
847.158	23315
847.294	23395
847.429	23391
847.565	23364
847.701	23501
847.837	23044
847.972	23044
848.108	22984
848.244	23162
848.379	22854
848.515	22866
848.65	22778
848.786	22904
848.921	22816
849.057	23029
849.192	22930
849.328	22881
849.463	22839
849.598	22672
849.734	22763
849.869	22748
850.004	22759
850.14	22683
850.275	22634
850.41	22455
850.545	22622
850.68	22519
850.815	22596
850.95	22660
851.085	22801
851.22	22733
851.355	22675
851.49	22649
851.625	22592
851.76	22596
851.895	22421
852.03	22702
852.165	22641
852.299	22622
852.434	22691
852.569	22713
852.703	22687
852.838	22744
852.973	22691
853.107	22771
853.242	22607
853.376	22455
853.511	22405
853.645	22542
853.78	22516
853.914	22447
854.048	22367
854.183	22409
854.317	22443
854.451	22626
854.585	22573
854.72	22390
854.854	22557
854.988	22474
855.122	22531
855.256	22398
855.39	22493
855.524	22577
855.658	22474
855.792	22611
855.926	22481
856.06	22653
856.194	22504
856.327	22443
856.461	22409
856.595	22341
856.729	22470
856.862	22584
856.996	22561
857.13	22398
857.263	22569
857.397	22679
857.53	22489
857.664	22443
857.797	22596
857.931	22508
858.064	22459
858.197	22687
858.331	22519
858.464	22284
858.597	22348
858.731	22466
858.864	22474
858.997	22382
859.13	22432
859.263	22527
859.396	22557
859.529	22523
859.662	22436
859.795	22493
859.928	22367
860.061	22516
860.194	22679
860.327	22424
860.46	22459
860.592	22573
860.725	22607
860.858	22531
860.99	22470
861.123	22375
861.256	22371
861.388	22455
861.521	23223
861.653	22265
861.786	22261
861.918	22306
862.05	22333
862.183	22504
862.315	22375
862.447	22443
862.58	22390
862.712	22109
862.844	22112
862.976	22204
863.108	22344
863.24	22592
863.372	22082
863.504	22188
863.636	22177
863.768	22143
863.9	22143
864.032	22067
864.164	22185
864.296	22128
864.428	22295
864.559	22234
864.691	22150
864.823	22185
864.954	22211
865.086	22200
865.217	22078
865.349	21941
865.48	22074
865.612	22040
865.743	22169
865.875	22059
866.006	21983
866.137	22070
866.269	22101
866.4	22002
866.531	22010
866.662	21831
866.793	21937
866.924	22013
867.055	21983
867.186	21907
867.317	21983
867.448	21960
867.579	21911
867.71	21907
867.841	21892
867.972	21956
868.103	21945
868.233	22048
868.364	21953
868.495	22082
868.625	22291
868.756	22166
868.886	22150
869.017	22200
869.147	22246
869.278	22314
869.408	22158
869.539	22249
869.669	22371
869.799	22173
869.929	22344
870.06	22341
870.19	22428
870.32	22557
870.45	22577
870.58	22470
870.71	22622
870.84	22694
870.97	22596
871.1	22584
871.23	22668
871.36	22850
871.489	22603
871.619	22710
871.749	22812
871.879	22873
872.008	22987
872.138	22805
872.267	22900
872.397	22599
872.526	22607
872.656	22596
872.785	22637
872.915	22892
873.044	22854
873.173	22816
873.303	22866
873.432	22896
873.561	22949
873.69	22767
873.819	22767
873.948	22854
874.077	22904
874.206	22790
874.335	22782
874.464	22991
874.593	22976
874.722	23006
874.851	23060
874.979	23025
875.108	22999
875.237	23022
875.365	22911
875.494	23064
875.623	23197
875.751	23079
875.88	22892
876.008	23159
876.136	23212
876.265	23444
876.393	23779
876.521	23520
876.65	23577
876.778	23414
876.906	23501
877.034	23356
877.162	23474
877.29	23452
877.418	23391
877.546	23425
877.674	23395
877.802	23429
877.93	23406
878.058	23368
878.185	23231
878.313	23330
878.441	23398
878.568	23280
878.696	23315
878.824	23379
878.951	23482
879.079	23596
879.206	23638
879.333	23653
879.461	23463
879.588	23615
879.715	23615
879.842	23581
879.97	23482
880.097	23121
880.224	23136
880.351	23223
880.478	23296
880.605	23265
880.732	23231
880.859	23296
880.986	23265
881.112	23060
881.239	23128
881.366	22930
881.493	22816
881.619	22790
881.746	22717
881.872	22713
881.999	22687
882.125	22656
882.252	22733
882.378	22767
882.505	22869
882.631	22641
882.757	22386
882.883	22527
883.01	22424
883.136	22451
883.262	22329
883.388	22242
883.514	22382
883.64	22443
883.766	22398
883.892	22131
884.018	22246
884.143	22375
884.269	22337
884.395	22272
884.52	22093
884.646	22090
884.772	22048
884.897	21987
885.023	22135
885.148	22196
885.274	22234
885.399	22154
885.524	21964
885.65	22112
885.775	22166
885.9	21998
886.025	22082
886.15	22204
886.275	21994
886.4	21907
886.525	22070
886.65	21968
886.775	22010
886.9	22116
887.025	22246
887.149	21968
887.274	21915
887.399	21892
887.523	21804
887.648	21842
887.773	21720
887.897	21941
888.021	21983
888.146	21717
888.27	21941
888.395	21960
888.519	21930
888.643	21717
888.767	21831
888.891	21709
889.015	21728
889.139	21652
889.263	21614
889.387	21663
889.511	21800
889.635	21751
889.759	21549
889.883	21538
890.006	21618
890.13	21591
890.254	21633
890.377	21549
890.501	21397
890.624	21226
890.748	21428
890.871	21302
890.995	21188
891.118	21165
891.241	21123
891.364	21169
891.488	21306
891.611	21249
891.734	21161
891.857	21245
891.98	21165
892.103	21272
892.226	21173
892.349	21081
892.471	20956
892.594	21150
892.717	20986
892.839	21089
892.962	20994
893.085	21154
893.207	21043
893.33	20925
893.452	20975
893.575	21104
893.697	20941
893.819	21279
893.941	21123
894.064	21116
894.186	20918
894.308	20914
894.43	21138
894.552	21131
894.674	21157
894.796	20880
894.918	21017
895.04	20956
895.161	21005
895.283	20982
895.405	20956
895.526	20975
895.648	21017
895.769	21062
895.891	21017
896.012	21203
896.134	21112
896.255	21036
896.376	20895
896.498	20979
896.619	20887
896.74	21070
896.861	21020
896.982	21443
897.103	21424
897.224	21275
897.345	21302
897.466	21127
897.587	21233
897.708	21458
897.828	21188
897.949	21192
898.07	21066
898.19	21157
898.311	21374
898.431	21142
898.552	21302
898.672	21298
898.792	21283
898.913	21218
899.033	21169
899.153	21039
899.273	20861
899.393	20933
899.513	20971
899.633	21081
899.753	20967
899.873	20967
899.993	21036
900.113	20910
900.232	20982
900.352	20781
900.472	20689
900.591	20720
900.711	20788
900.83	20800
900.95	20853
901.069	20834
901.189	20602
901.308	20355
901.427	20343
901.546	20385
901.665	20248
901.784	20358
901.904	20176
902.023	20031
902.141	19887
902.26	19902
902.379	19875
902.498	19947
902.617	19734
902.735	19890
902.854	19670
902.973	19795
903.091	19422
903.21	19460
903.328	19407
903.446	19445
903.565	19270
903.683	19293
903.801	19122
903.919	19164
904.038	19266
904.156	19038
904.274	19008
904.392	19031
904.51	18882
904.627	19042
904.745	19004
904.863	19004
904.981	18901
905.098	18570
905.216	18608
905.334	18734
905.451	18673
905.569	18696
905.686	18608
905.803	18749
905.921	18323
906.038	18593
906.155	18311
906.272	18308
906.389	18334
906.506	18258
906.623	18281
906.74	18163
906.857	18110
906.974	18114
907.091	18254
907.208	18213
907.324	18254
907.441	18095
907.557	17946
907.674	17897
907.79	17969
907.907	17878
908.023	17828
908.139	17889
908.256	17855
908.372	17908
908.488	17722
908.604	17680
908.72	17695
908.836	17665
908.952	17524
909.068	17642
909.184	17802
909.3	17596
909.415	17657
909.531	17581
909.647	17410
909.762	17322
909.878	17284
909.993	17242
910.108	17322
910.224	17250
910.339	17280
910.454	17197
910.57	17086
910.685	17033
910.8	17349
910.915	17303
911.03	17170
911.145	16968
911.259	16896
911.374	16873
911.489	16782
911.604	16729
911.718	16607
911.833	16668
911.947	16615
912.062	16428
912.176	16599
912.291	16706
912.405	16634
912.519	16748
912.633	16850
912.748	16660
912.862	16649
912.976	16500
913.09	16398
913.204	16386
913.318	16523
913.431	16451
913.545	16558
913.659	16455
913.772	16451
913.886	16402
914	16306
914.113	16371
914.226	16344
914.34	16306
914.453	16078
914.566	16261
914.68	16124
914.793	16131
914.906	15998
915.019	15937
915.132	15850
915.245	15831
915.358	15812
915.47	15804
915.583	15937
915.696	15895
915.809	15987
915.921	16048
916.034	15755
916.146	15785
916.259	15747
916.371	15854
916.483	15861
916.595	15637
916.708	15732
916.82	15679
916.932	15667
917.044	15473
917.156	15568
917.268	15485
917.38	15576
917.491	15439
917.603	15572
917.715	15542
917.826	15534
917.938	15481
918.049	15355
918.161	15450
918.272	15641
918.384	15572
918.495	15348
918.606	15306
918.717	15199
918.828	15252
918.939	15317
919.05	15081
919.161	15135
919.272	14918
919.383	15093
919.494	15310
919.604	15340
919.715	15116
919.826	15104
919.936	15226
920.047	15306
920.157	15203
920.267	15355
920.378	15230
920.488	15230
920.598	15367
920.708	15572
920.818	15306
920.928	15313
921.038	15450
921.148	15264
921.258	15097
921.368	15005
921.477	14902
921.587	14842
921.697	14819
921.806	14826
921.916	14807
922.025	14617
922.134	14579
922.244	14457
922.353	14560
922.462	14537
922.571	14309
922.68	14259
922.789	14298
922.898	14157
923.007	14142
923.116	14191
923.224	14153
923.333	14202
923.442	14073
923.55	13982
923.659	13986
923.767	14020
923.876	13978
923.984	14043
924.092	13860
924.201	13879
924.309	13974
924.417	13852
924.525	13791
924.633	13799
924.741	14465
924.849	13636
924.956	13765
925.064	13651
925.172	13552
925.279	13514
925.387	13594
925.494	13514
925.602	13727
925.709	13559
925.816	13415
925.924	13369
926.031	13548
926.138	13495
926.245	13369
926.352	13422
926.459	13502
926.566	13594
926.673	13384
926.779	13263
926.886	13308
926.993	13187
927.099	13065
927.206	13042
927.312	13053
927.419	13206
927.525	13080
927.631	13156
927.737	12981
927.843	12951
927.95	12844
928.056	12848
928.162	12935
928.267	12977
928.373	13529
928.479	12913
928.585	12730
928.69	12878
928.796	12840
928.901	12722
929.007	12582
929.112	12730
929.218	12673
929.323	12703
929.428	12616
929.533	12795
929.638	12574
929.743	12665
929.848	12578
929.953	12528
930.058	12410
930.163	12247
930.267	12338
930.372	12395
930.477	12239
930.581	12525
930.685	12353
930.79	12125
930.894	12194
930.998	12117
931.103	12334
931.207	11920
931.311	11893
931.415	11783
931.519	11619
931.623	11528
