Data from test_V78500241_251.txt Node
Date: Fri Mar 25 15:43:32 CST 2022
User: usil
Spectrometer: V785-0024
Trigger mode: 0
Integration Time (sec): 4.000000E-1
Scans to average: 1
Nonlinearity correction enabled: false
Boxcar width: 0
Storing dark spectrum: false
XAxis mode: Wavelengths
Number of Pixels in Spectrum: 1024
>>>>>Begin Spectral Data<<<<<
801.071	29710
801.214	29505
801.356	29273
801.499	29322
801.641	29227
801.783	29246
801.926	29349
802.068	29265
802.211	29109
802.353	29003
802.496	28972
802.638	28911
802.78	28904
802.923	28866
803.065	28748
803.208	28831
803.35	29006
803.492	29003
803.635	29064
803.777	28965
803.919	29128
804.061	29528
804.204	29147
804.346	28957
804.488	29022
804.63	28968
804.773	28850
804.915	29025
805.057	29204
805.199	29022
805.341	29071
805.483	29185
805.626	29174
805.768	29048
805.91	29109
806.052	29155
806.194	29124
806.336	29353
806.478	29337
806.62	29212
806.762	29132
806.904	29368
807.046	29687
807.188	29600
807.33	29646
807.472	29531
807.614	29493
807.756	29535
807.898	29482
808.04	29402
808.182	29360
808.324	29250
808.465	29345
808.607	29436
808.749	29634
808.891	29878
809.033	30003
809.174	29790
809.316	29638
809.458	29885
809.6	29809
809.741	29840
809.883	30049
810.025	30057
810.166	30045
810.308	30091
810.45	30007
810.591	29866
810.733	29756
810.875	29802
811.016	29623
811.158	29562
811.299	29912
811.441	29920
811.582	29954
811.724	29824
811.865	29623
812.007	29695
812.148	29764
812.29	29923
812.431	29878
812.573	30034
812.714	30182
812.855	30232
812.997	30391
813.138	30665
813.279	30323
813.421	30152
813.562	30281
813.703	30057
813.845	29927
813.986	29596
814.127	29490
814.268	29311
814.41	29467
814.551	29398
814.692	29387
814.833	29280
814.974	29303
815.115	29387
815.256	29307
815.397	29258
815.539	29254
815.68	29242
815.821	28976
815.962	29292
816.103	29105
816.244	29064
816.385	28858
816.526	28862
816.666	28767
816.807	28538
816.948	28717
817.089	28660
817.23	28603
817.371	28710
817.512	28656
817.653	28436
817.793	28554
817.934	28664
818.075	28656
818.216	28489
818.356	28592
818.497	28428
818.638	28154
818.778	28261
818.919	28417
819.06	28375
819.2	28485
819.341	28493
819.481	28447
819.622	28801
819.762	28892
819.903	28774
820.043	28618
820.184	28637
820.324	28706
820.465	28725
820.605	28653
820.746	28535
820.886	28485
821.026	28645
821.167	28630
821.307	28702
821.447	28607
821.588	28478
821.728	28200
821.868	28158
822.008	27983
822.149	28044
822.289	27964
822.429	27838
822.569	27656
822.709	27755
822.849	27386
822.99	27469
823.13	27458
823.27	27424
823.41	27355
823.55	27146
823.69	27272
823.83	27306
823.97	27203
824.11	27036
824.25	27062
824.389	27017
824.529	27123
824.669	26986
824.809	27180
824.949	27138
825.089	27081
825.228	27188
825.368	26872
825.508	26785
825.648	26944
825.787	26914
825.927	27009
826.067	26940
826.206	26857
826.346	27001
826.485	26998
826.625	26883
826.765	27024
826.904	26952
827.044	26629
827.183	26693
827.323	26705
827.462	26590
827.601	26606
827.741	26450
827.88	26689
828.02	26434
828.159	26583
828.298	26583
828.437	26503
828.577	26480
828.716	26621
828.855	26552
828.994	26210
829.134	26309
829.273	26278
829.412	26191
829.551	26195
829.69	26339
829.829	26317
829.968	26278
830.107	26237
830.246	26183
830.385	26058
830.524	26096
830.663	25860
830.802	25887
830.941	25814
831.08	25860
831.219	25932
831.357	25928
831.496	26001
831.635	25757
831.774	25674
831.913	25708
832.051	25540
832.19	25632
832.329	25571
832.467	25479
832.606	25495
832.744	25464
832.883	25400
833.022	25457
833.16	25411
833.299	25487
833.437	25441
833.576	25495
833.714	25502
833.852	25453
833.991	25666
834.129	25529
834.267	25533
834.406	25556
834.544	25514
834.682	25483
834.821	25419
834.959	25643
835.097	25365
835.235	25529
835.373	25362
835.511	25388
835.65	25327
835.788	25365
835.926	25091
836.064	24970
836.202	25148
836.34	25476
836.478	25354
836.615	25304
836.753	25259
836.891	25350
837.029	25327
837.167	25183
837.305	25091
837.443	25152
837.58	25240
837.718	25190
837.856	25103
837.993	25095
838.131	25107
838.269	24973
838.406	24996
838.544	24916
838.681	24852
838.819	24631
838.956	24547
839.094	24582
839.231	24521
839.369	24719
839.506	24966
839.643	24757
839.781	24536
839.918	24483
840.055	24540
840.193	24483
840.33	24433
840.467	24422
840.604	24555
840.742	24589
840.879	24342
841.016	24422
841.153	24251
841.29	24410
841.427	24388
841.564	24437
841.701	24342
841.838	24330
841.975	24388
842.112	24148
842.249	24243
842.385	23977
842.522	24410
842.659	24129
842.796	24194
842.933	24182
843.069	23931
843.206	23999
843.343	23988
843.479	24018
843.616	24110
843.752	23805
843.889	23874
844.025	23999
844.162	23851
844.298	24015
844.435	23809
844.571	23771
844.708	23790
844.844	23977
844.98	24030
845.117	23912
845.253	23840
845.389	23752
845.525	23726
845.661	23592
845.798	23638
845.934	23611
846.07	23596
846.206	23547
846.342	23695
846.478	23558
846.614	23353
846.75	23258
846.886	23231
847.022	23410
847.158	23174
847.294	23269
847.429	23360
847.565	23178
847.701	23482
847.837	23003
847.972	23018
848.108	22953
848.244	23060
848.379	22976
848.515	22850
848.65	22816
848.786	22858
848.921	22755
849.057	23029
849.192	22908
849.328	22930
849.463	22809
849.598	22759
849.734	22721
849.869	22733
850.004	22493
850.14	22580
850.275	22519
850.41	22508
850.545	22519
850.68	22550
850.815	22523
850.95	22470
851.085	22664
851.22	22691
851.355	22531
851.49	22618
851.625	22535
851.76	22462
851.895	22508
852.03	22462
852.165	22592
852.299	22607
852.434	22523
852.569	22516
852.703	22519
852.838	22672
852.973	22691
853.107	22687
853.242	22299
853.376	22421
853.511	22135
853.645	22379
853.78	22516
853.914	22451
854.048	22402
854.183	22348
854.317	22360
854.451	22645
854.585	22421
854.72	22390
854.854	22455
854.988	22314
855.122	22341
855.256	22070
855.39	22417
855.524	22405
855.658	22455
855.792	22310
855.926	22379
856.06	22371
856.194	22516
856.327	22394
856.461	22356
856.595	22424
856.729	22417
856.862	22348
856.996	22318
857.13	22459
857.263	22531
857.397	22379
857.53	22284
857.664	22409
857.797	22310
857.931	22455
858.064	22306
858.197	22295
858.331	22379
858.464	22375
858.597	22253
858.731	22219
858.864	22284
858.997	22276
859.13	22200
859.263	22287
859.396	22474
859.529	22356
859.662	22242
859.795	22299
859.928	22402
860.061	22421
860.194	22462
860.327	22322
860.46	22360
860.592	22455
860.725	22386
860.858	22432
860.99	22299
861.123	22109
861.256	22272
861.388	22230
861.521	22999
861.653	22276
861.786	22169
861.918	22147
862.05	22268
862.183	22257
862.315	22341
862.447	22348
862.58	22306
862.712	22055
862.844	21915
862.976	22097
863.108	22105
863.24	22459
863.372	21888
863.504	22006
863.636	22036
863.768	22013
863.9	22048
864.032	21770
864.164	21838
864.296	21949
864.428	22074
864.559	22032
864.691	22006
864.823	22070
864.954	21953
865.086	21903
865.217	21842
865.349	21698
865.48	21903
865.612	21854
865.743	21968
865.875	21781
866.006	21888
866.137	21854
866.269	21895
866.4	21755
866.531	21850
866.662	21743
866.793	21865
866.924	21720
867.055	21774
867.186	21804
867.317	21614
867.448	21656
867.579	21709
867.71	21663
867.841	21637
867.972	21846
868.103	21724
868.233	21922
868.364	21827
868.495	21895
868.625	22002
868.756	22116
868.886	22013
869.017	21922
869.147	22090
869.278	22082
869.408	22112
869.539	22006
869.669	22063
869.799	22036
869.929	22044
870.06	22135
870.19	22276
870.32	22318
870.45	22386
870.58	22455
870.71	22535
870.84	22508
870.97	22504
871.1	22394
871.23	22596
871.36	22554
871.489	22565
871.619	22538
871.749	22557
871.879	22649
872.008	22752
872.138	22603
872.267	22660
872.397	22485
872.526	22455
872.656	22409
872.785	22405
872.915	22580
873.044	22729
873.173	22725
873.303	22736
873.432	22637
873.561	22713
873.69	22599
873.819	22691
873.948	22687
874.077	22687
874.206	22691
874.335	22717
874.464	22767
874.593	22782
874.722	22694
874.851	22892
874.979	22843
875.108	22968
875.237	22763
875.365	22831
875.494	22752
875.623	22892
875.751	22930
875.88	22953
876.008	22889
876.136	22949
876.265	23200
876.393	23383
876.521	23284
876.65	23391
876.778	23368
876.906	23121
877.034	23223
877.162	23041
877.29	23181
877.418	23204
877.546	23185
877.674	23223
877.802	23140
877.93	23155
878.058	23136
878.185	22995
878.313	23117
878.441	23178
878.568	22965
878.696	23067
878.824	23220
878.951	23360
879.079	23372
879.206	23512
879.333	23391
879.461	23170
879.588	23277
879.715	23368
879.842	23376
879.97	23208
880.097	23071
880.224	23094
880.351	23041
880.478	23052
880.605	23083
880.732	23003
880.859	23216
880.986	23044
881.112	22942
881.239	22949
881.366	22782
881.493	22618
881.619	22630
881.746	22683
881.872	22641
881.999	22565
882.125	22584
882.252	22611
882.378	22535
882.505	22615
882.631	22398
882.757	22303
882.883	22417
883.01	22299
883.136	22234
883.262	22249
883.388	22120
883.514	22234
883.64	22382
883.766	22116
883.892	22109
884.018	22185
884.143	22219
884.269	22242
884.395	21983
884.52	21968
884.646	21918
884.772	21915
884.897	21800
885.023	21953
885.148	21941
885.274	21994
885.399	21987
885.524	22021
885.65	21949
885.775	21930
885.9	21812
886.025	21991
886.15	21941
886.275	21949
886.4	21831
886.525	21915
886.65	21953
886.775	21789
886.9	21975
887.025	22131
887.149	21850
887.274	21629
887.399	21690
887.523	21675
887.648	21759
887.773	21545
887.897	21743
888.021	21648
888.146	21610
888.27	21686
888.395	21850
888.519	21762
888.643	21656
888.767	21644
888.891	21644
889.015	21523
889.139	21599
889.263	21389
889.387	21458
889.511	21743
889.635	21606
889.759	21408
889.883	21542
890.006	21431
890.13	21591
890.254	21321
890.377	21389
890.501	21214
890.624	21081
890.748	21100
890.871	21062
890.995	20975
891.118	20941
891.241	20963
891.364	21013
891.488	21074
891.611	20967
891.734	20982
891.857	21093
891.98	20918
892.103	21043
892.226	20998
892.349	20971
892.471	20682
892.594	20807
892.717	20864
892.839	20925
892.962	20948
893.085	20982
893.207	20941
893.33	20724
893.452	20750
893.575	20887
893.697	20842
893.819	21032
893.941	20979
894.064	21001
894.186	20899
894.308	20819
894.43	20880
894.552	21062
894.674	21043
894.796	20823
894.918	20845
895.04	20826
895.161	20979
895.283	20857
895.405	20648
895.526	20857
895.648	20823
895.769	20849
895.891	20948
896.012	20834
896.134	20979
896.255	20758
896.376	20864
896.498	20826
896.619	20902
896.74	20902
896.861	20864
896.982	21306
897.103	21237
897.224	21230
897.345	21017
897.466	21062
897.587	21104
897.708	21184
897.828	21203
897.949	21062
898.07	20826
898.19	20998
898.311	21089
898.431	21017
898.552	21077
898.672	21154
898.792	21108
898.913	21047
899.033	20944
899.153	20861
899.273	20762
899.393	20640
899.513	20716
899.633	20861
899.753	20902
899.873	20629
899.993	20830
900.113	20590
900.232	20727
900.352	20701
900.472	20590
900.591	20564
900.711	20499
900.83	20625
900.95	20636
901.069	20632
901.189	20442
901.308	20122
901.427	20142
901.546	20005
901.665	20043
901.784	20180
901.904	19974
902.023	20012
902.141	19609
902.26	19537
902.379	19738
902.498	19506
902.617	19635
902.735	19670
902.854	19518
902.973	19521
903.091	19255
903.21	19282
903.328	19198
903.446	19221
903.565	19019
903.683	19072
903.801	19088
903.919	18920
904.038	18989
904.156	18897
904.274	18970
904.392	18707
904.51	18810
904.627	18779
904.745	18848
904.863	18779
904.981	18547
905.098	18467
905.216	18486
905.334	18528
905.451	18479
905.569	18479
905.686	18540
905.803	18384
905.921	18292
906.038	18342
906.155	18266
906.272	18178
906.389	18232
906.506	17965
906.623	18030
906.74	18022
906.857	17870
906.974	17836
907.091	18041
907.208	18171
907.324	18007
907.441	17893
907.557	17760
907.674	17611
907.79	17695
907.907	17623
908.023	17661
908.139	17703
908.256	17615
908.372	17497
908.488	17520
908.604	17429
908.72	17303
908.836	17337
908.952	17467
909.068	17455
909.184	17634
909.3	17383
909.415	17459
909.531	17292
909.647	17113
909.762	17124
909.878	16957
909.993	17067
910.108	17109
910.224	16942
910.339	17086
910.454	16949
910.57	16854
910.685	16854
910.8	17086
910.915	16938
911.03	16873
911.145	16717
911.259	16694
911.374	16573
911.489	16675
911.604	16512
911.718	16481
911.833	16440
911.947	16329
912.062	16223
912.176	16497
912.291	16489
912.405	16428
912.519	16538
912.633	16580
912.748	16409
912.862	16295
912.976	16223
913.09	16071
913.204	16154
913.318	16242
913.431	16363
913.545	16325
913.659	16390
913.772	16063
913.886	16078
914	15930
914.113	16086
914.226	16082
914.34	15998
914.453	15949
914.566	15983
914.68	15949
914.793	15827
914.906	15762
915.019	15542
915.132	15610
915.245	15580
915.358	15663
915.47	15538
915.583	15637
915.696	15671
915.809	15770
915.921	15656
916.034	15580
916.146	15511
916.259	15561
916.371	15599
916.483	15496
916.595	15447
916.708	15507
916.82	15443
916.932	15450
917.044	15370
917.156	15260
917.268	15192
917.38	15211
917.491	15211
917.603	15199
917.715	15336
917.826	15272
917.938	15169
918.049	14956
918.161	15142
918.272	15336
918.384	15237
918.495	15165
918.606	15055
918.717	14956
918.828	14887
918.939	15089
919.05	14845
919.161	15005
919.272	14758
919.383	14773
919.494	14963
919.604	15184
919.715	14967
919.826	14880
919.936	14883
920.047	14971
920.157	14861
920.267	15081
920.378	14902
920.488	14842
920.598	15074
920.708	15180
920.818	15036
920.928	14982
921.038	15089
921.148	15009
921.258	14811
921.368	14788
921.477	14739
921.587	14640
921.697	14476
921.806	14613
921.916	14408
922.025	14309
922.134	14229
922.244	14161
922.353	14195
922.462	14199
922.571	14027
922.68	13928
922.789	13830
922.898	13909
923.007	13849
923.116	13970
923.224	13849
923.333	13788
923.442	13765
923.55	13738
923.659	13757
923.767	13826
923.876	13708
923.984	13723
924.092	13628
924.201	13628
924.309	13609
924.417	13609
924.525	13544
924.633	13529
924.741	14233
924.849	13301
924.956	13426
925.064	13285
925.172	13209
925.279	13217
925.387	13335
925.494	13236
925.602	13422
925.709	13346
925.816	13183
925.924	13247
926.031	13289
926.138	13164
926.245	13209
926.352	13118
926.459	13259
926.566	13289
926.673	13187
926.779	13065
926.886	12977
926.993	12939
927.099	12844
927.206	12719
927.312	12776
927.419	12791
927.525	12817
927.631	12867
927.737	12722
927.843	12608
927.95	12601
928.056	12574
928.162	12677
928.267	12631
928.373	13301
928.479	12779
928.585	12475
928.69	12532
928.796	12681
928.901	12464
929.007	12300
929.112	12509
929.218	12452
929.323	12418
929.428	12330
929.533	12479
929.638	12182
929.743	12281
929.848	12338
929.953	12251
930.058	12213
930.163	11992
930.267	12117
930.372	12220
930.477	12007
930.581	12098
930.685	12003
930.79	11935
930.894	11897
930.998	11840
931.103	11980
931.207	11672
931.311	11505
931.415	11520
931.519	11220
931.623	11307
