Data from test_V78500241_3468.txt Node
Date: Fri Mar 25 16:05:49 CST 2022
User: usil
Spectrometer: V785-0024
Trigger mode: 0
Integration Time (sec): 4.000000E-1
Scans to average: 1
Nonlinearity correction enabled: false
Boxcar width: 0
Storing dark spectrum: false
XAxis mode: Wavelengths
Number of Pixels in Spectrum: 1024
>>>>>Begin Spectral Data<<<<<
801.071	28995
801.214	29117
801.356	28843
801.499	28854
801.641	28615
801.783	28645
801.926	28683
802.068	28660
802.211	28618
802.353	28493
802.496	28535
802.638	28382
802.78	28246
802.923	28280
803.065	28207
803.208	28249
803.35	28459
803.492	28565
803.635	28455
803.777	28390
803.919	28584
804.061	28850
804.204	28546
804.346	28538
804.488	28447
804.63	28603
804.773	28577
804.915	28839
805.057	28774
805.199	28531
805.341	28698
805.483	28767
805.626	28649
805.768	28672
805.91	28793
806.052	28774
806.194	28694
806.336	28885
806.478	28919
806.62	28866
806.762	28877
806.904	28980
807.046	29334
807.188	29170
807.33	29208
807.472	29421
807.614	29181
807.756	29216
807.898	29094
808.04	29075
808.182	29029
808.324	29109
808.465	29197
808.607	29375
808.749	29455
808.891	29630
809.033	29558
809.174	29493
809.316	29459
809.458	29368
809.6	29425
809.741	29539
809.883	29539
810.025	29874
810.166	29710
810.308	29901
810.45	29634
810.591	29589
810.733	29600
810.875	29497
811.016	29497
811.158	29387
811.299	29581
811.441	29703
811.582	29680
811.724	29463
811.865	29471
812.007	29417
812.148	29459
812.29	29638
812.431	29684
812.573	29878
812.714	29961
812.855	30053
812.997	30049
813.138	30330
813.279	30136
813.421	30079
813.562	29961
813.703	29859
813.845	29699
813.986	29417
814.127	29330
814.268	29220
814.41	29200
814.551	29147
814.692	29197
814.833	29174
814.974	29086
815.115	29349
815.256	28995
815.397	28984
815.539	29025
815.68	28877
815.821	28927
815.962	29090
816.103	29044
816.244	28774
816.385	28729
816.526	28729
816.666	28599
816.807	28557
816.948	28660
817.089	28618
817.23	28554
817.371	28504
817.512	28337
817.653	28508
817.793	28538
817.934	28398
818.075	28596
818.216	28409
818.356	28527
818.497	28413
818.638	28265
818.778	28348
818.919	28360
819.06	28375
819.2	28421
819.341	28512
819.481	28523
819.622	28763
819.762	28820
819.903	28809
820.043	28649
820.184	28622
820.324	28759
820.465	28736
820.605	28653
820.746	28561
820.886	28599
821.026	28637
821.167	28664
821.307	28729
821.447	28535
821.588	28401
821.728	28375
821.868	28150
822.008	28131
822.149	28158
822.289	28059
822.429	27743
822.569	27667
822.709	27686
822.849	27595
822.99	27587
823.13	27561
823.27	27458
823.41	27401
823.55	27245
823.69	27405
823.83	27321
823.97	27416
824.11	27275
824.25	27127
824.389	27207
824.529	27211
824.669	27203
824.809	27329
824.949	27233
825.089	27450
825.228	27302
825.368	27112
825.508	27112
825.648	27047
825.787	27165
825.927	27127
826.067	27169
826.206	27070
826.346	27237
826.485	27119
826.625	27058
826.765	27199
826.904	27062
827.044	26925
827.183	26838
827.323	26724
827.462	26925
827.601	26773
827.741	26853
827.88	26826
828.02	26777
828.159	26743
828.298	26769
828.437	26838
828.577	26724
828.716	26883
828.855	26796
828.994	26530
829.134	26396
829.273	26545
829.412	26393
829.551	26450
829.69	26427
829.829	26537
829.968	26503
830.107	26511
830.246	26564
830.385	26400
830.524	26358
830.663	26252
830.802	26199
830.941	26267
831.08	26145
831.219	26187
831.357	26024
831.496	26412
831.635	26081
831.774	26050
831.913	26088
832.051	25944
832.19	25986
832.329	25883
832.467	25784
832.606	25841
832.744	25753
832.883	25575
833.022	25704
833.16	25742
833.299	25811
833.437	25784
833.576	25784
833.714	25898
833.852	25997
833.991	25845
834.129	25978
834.267	26058
834.406	25799
834.544	25890
834.682	25894
834.821	25788
834.959	25993
835.097	25753
835.235	25826
835.373	25655
835.511	25685
835.65	25784
835.788	25605
835.926	25655
836.064	25453
836.202	25476
836.34	25586
836.478	25643
836.615	25620
836.753	25723
836.891	25719
837.029	25772
837.167	25597
837.305	25624
837.443	25506
837.58	25613
837.718	25552
837.856	25533
837.993	25339
838.131	25514
838.269	25324
838.406	25362
838.544	25187
838.681	25171
838.819	25031
838.956	24909
839.094	24951
839.231	24981
839.369	25076
839.506	25411
839.643	25171
839.781	24985
839.918	24916
840.055	24867
840.193	24897
840.33	24905
840.467	24848
840.604	24928
840.742	25084
840.879	24730
841.016	24772
841.153	24627
841.29	24947
841.427	24745
841.564	24935
841.701	24730
841.838	24776
841.975	24692
842.112	24684
842.249	24509
842.385	24692
842.522	24730
842.659	24612
842.796	24525
842.933	24509
843.069	24639
843.206	24433
843.343	24661
843.479	24681
843.616	24585
843.752	24384
843.889	24418
844.025	24376
844.162	24315
844.298	24361
844.435	24357
844.571	24235
844.708	24441
844.844	24471
844.98	24547
845.117	24437
845.253	24342
845.389	24258
845.525	24357
845.661	24213
845.798	24045
845.934	24205
846.07	24224
846.206	24235
846.342	24178
846.478	24194
846.614	23802
846.75	23760
846.886	23657
847.022	23790
847.158	23824
847.294	23786
847.429	23767
847.565	23657
847.701	24064
847.837	23589
847.972	23528
848.108	23573
848.244	23703
848.379	23482
848.515	23353
848.65	23463
848.786	23455
848.921	23414
849.057	23501
849.192	23512
849.328	23383
849.463	23486
849.598	23265
849.734	23284
849.869	23242
850.004	23124
850.14	23155
850.275	23064
850.41	23113
850.545	23193
850.68	23208
850.815	23208
850.95	23193
851.085	23322
851.22	23296
851.355	23220
851.49	23200
851.625	23124
851.76	23124
851.895	23014
852.03	23060
852.165	23200
852.299	23223
852.434	23235
852.569	23140
852.703	23159
852.838	23147
852.973	23311
853.107	23277
853.242	23132
853.376	23052
853.511	22946
853.645	22953
853.78	23048
853.914	22953
854.048	22987
854.183	22919
854.317	22987
854.451	23185
854.585	23037
854.72	22938
854.854	23223
854.988	22957
855.122	22873
855.256	22820
855.39	23018
855.524	23075
855.658	23083
855.792	23102
855.926	22942
856.06	23044
856.194	23132
856.327	22839
856.461	22854
856.595	22892
856.729	22968
856.862	23079
856.996	23006
857.13	23090
857.263	23018
857.397	23132
857.53	23044
857.664	23041
857.797	23136
857.931	23041
858.064	23094
858.197	23029
858.331	22934
858.464	22885
858.597	22843
858.731	22889
858.864	22987
858.997	22965
859.13	22873
859.263	23048
859.396	23105
859.529	22900
859.662	22980
859.795	22927
859.928	23025
860.061	23166
860.194	23159
860.327	23060
860.46	22999
860.592	23067
860.725	23140
860.858	23071
860.99	22991
861.123	22850
861.256	22961
861.388	22972
861.521	23554
861.653	22881
861.786	22862
861.918	22683
862.05	22877
862.183	22885
862.315	22995
862.447	23010
862.58	22793
862.712	22641
862.844	22664
862.976	22858
863.108	22668
863.24	23174
863.372	22694
863.504	22721
863.636	22668
863.768	22687
863.9	22744
864.032	22634
864.164	22542
864.296	22786
864.428	22843
864.559	22729
864.691	22752
864.823	22713
864.954	22713
865.086	22588
865.217	22588
865.349	22474
865.48	22508
865.612	22592
865.743	22634
865.875	22561
866.006	22577
866.137	22603
866.269	22531
866.4	22656
866.531	22455
866.662	22516
866.793	22440
866.924	22466
867.055	22634
867.186	22542
867.317	22421
867.448	22394
867.579	22504
867.71	22341
867.841	22413
867.972	22466
868.103	22485
868.233	22542
868.364	22531
868.495	22599
868.625	22626
868.756	22733
868.886	22546
869.017	22710
869.147	22805
869.278	22854
869.408	22778
869.539	22691
869.669	22877
869.799	22706
869.929	22919
870.06	22702
870.19	23029
870.32	22946
870.45	22999
870.58	23124
870.71	23083
870.84	23094
870.97	23075
871.1	23052
871.23	23269
871.36	23318
871.489	23246
871.619	23273
871.749	23189
871.879	23326
872.008	23471
872.138	23250
872.267	23337
872.397	23250
872.526	23132
872.656	23193
872.785	23200
872.915	23250
873.044	23277
873.173	23471
873.303	23414
873.432	23395
873.561	23383
873.69	23429
873.819	23425
873.948	23463
874.077	23318
874.206	23330
874.335	23273
874.464	23448
874.593	23448
874.722	23520
874.851	23391
874.979	23539
875.108	23474
875.237	23509
875.365	23444
875.494	23463
875.623	23478
875.751	23554
875.88	23512
876.008	23661
876.136	23771
876.265	24049
876.393	24095
876.521	24083
876.65	24034
876.778	24072
876.906	23863
877.034	23904
877.162	23836
877.29	23897
877.418	23870
877.546	23889
877.674	23946
877.802	23912
877.93	23904
878.058	23927
878.185	23821
878.313	23832
878.441	23748
878.568	23695
878.696	23798
878.824	23657
878.951	23916
879.079	24060
879.206	24289
879.333	23980
879.461	24045
879.588	23977
879.715	24003
879.842	24083
879.97	23958
880.097	23623
880.224	23668
880.351	23695
880.478	23619
880.605	23676
880.732	23634
880.859	23859
880.986	23798
881.112	23611
881.239	23551
881.366	23417
881.493	23368
881.619	23151
881.746	23197
881.872	23227
881.999	23170
882.125	23147
882.252	23197
882.378	23140
882.505	23292
882.631	23075
882.757	22911
882.883	23075
883.01	23006
883.136	22892
883.262	22771
883.388	22801
883.514	22923
883.64	22866
883.766	22763
883.892	22603
884.018	22656
884.143	22797
884.269	22911
884.395	22630
884.52	22500
884.646	22493
884.772	22459
884.897	22565
885.023	22577
885.148	22660
885.274	22683
885.399	22573
885.524	22580
885.65	22721
885.775	22596
885.9	22565
886.025	22641
886.15	22626
886.275	22485
886.4	22485
886.525	22504
886.65	22531
886.775	22424
886.9	22546
887.025	22767
887.149	22592
887.274	22257
887.399	22337
887.523	22284
887.648	22238
887.773	22131
887.897	22363
888.021	22280
888.146	22295
888.27	22440
888.395	22424
888.519	22291
888.643	22405
888.767	22204
888.891	22211
889.015	22051
889.139	22105
889.263	22105
889.387	22211
889.511	22272
889.635	22219
889.759	22090
889.883	22101
890.006	22166
890.13	22101
890.254	22013
890.377	22040
890.501	21698
890.624	21770
890.748	21846
890.871	21713
890.995	21705
891.118	21648
891.241	21724
891.364	21622
891.488	21739
891.611	21542
891.734	21614
891.857	21766
891.98	21656
892.103	21644
892.226	21538
892.349	21519
892.471	21412
892.594	21519
892.717	21576
892.839	21576
892.962	21580
893.085	21496
893.207	21405
893.33	21389
893.452	21450
893.575	21595
893.697	21473
893.819	21736
893.941	21728
894.064	21564
894.186	21431
894.308	21473
894.43	21595
894.552	21728
894.674	21431
894.796	21382
894.918	21469
895.04	21393
895.161	21530
895.283	21511
895.405	21374
895.526	21576
895.648	21454
895.769	21523
895.891	21504
896.012	21610
896.134	21435
896.255	21420
896.376	21325
896.498	21519
896.619	21625
896.74	21523
896.861	21553
896.982	21755
897.103	21930
897.224	21667
897.345	21751
897.466	21625
897.587	21705
897.708	21709
897.828	21766
897.949	21690
898.07	21534
898.19	21599
898.311	21770
898.431	21785
898.552	21595
898.672	21778
898.792	21717
898.913	21610
899.033	21564
899.153	21477
899.273	21306
899.393	21473
899.513	21454
899.633	21355
899.753	21325
899.873	21275
899.993	21389
900.113	21420
900.232	21351
900.352	21252
900.472	21260
900.591	21279
900.711	21218
900.83	21173
900.95	21203
901.069	21203
901.189	21028
901.308	20838
901.427	20762
901.546	20762
901.665	20701
901.784	20659
901.904	20514
902.023	20499
902.141	20347
902.26	20313
902.379	20339
902.498	20305
902.617	20282
902.735	20233
902.854	20161
902.973	20039
903.091	19913
903.21	19822
903.328	19887
903.446	19799
903.565	19776
903.683	19651
903.801	19567
903.919	19693
904.038	19605
904.156	19396
904.274	19453
904.392	19487
904.51	19308
904.627	19350
904.745	19438
904.863	19403
904.981	19114
905.098	19015
905.216	19065
905.334	19137
905.451	19069
905.569	19076
905.686	19095
905.803	19103
905.921	18848
906.038	18981
906.155	18749
906.272	18795
906.389	18814
906.506	18760
906.623	18551
906.74	18639
906.857	18612
906.974	18475
907.091	18677
907.208	18616
907.324	18547
907.441	18582
907.557	18361
907.674	18296
907.79	18232
907.907	18254
908.023	18399
908.139	18323
908.256	18262
908.372	18209
908.488	18148
908.604	18121
908.72	17984
908.836	18068
908.952	17969
909.068	18117
909.184	18125
909.3	18057
909.415	17988
909.531	18019
909.647	17775
909.762	17627
909.878	17767
909.993	17733
910.108	17786
910.224	17649
910.339	17718
910.454	17596
910.57	17486
910.685	17535
910.8	17722
910.915	17577
911.03	17368
911.145	17242
911.259	17322
911.374	17231
911.489	17147
911.604	17105
911.718	17006
911.833	17029
911.947	16923
912.062	16915
912.176	16927
912.291	17166
912.405	16968
912.519	17193
912.633	17181
912.748	17102
912.862	17018
912.976	16793
913.09	16755
913.204	16847
913.318	16797
913.431	16915
913.545	16923
913.659	16980
913.772	16687
913.886	16653
914	16603
914.113	16687
914.226	16748
914.34	16615
914.453	16478
914.566	16675
914.68	16500
914.793	16421
914.906	16215
915.019	16207
915.132	16017
915.245	16200
915.358	16177
915.47	16204
915.583	16173
915.696	16219
915.809	16223
915.921	16310
916.034	16048
916.146	16040
916.259	16074
916.371	16143
916.483	16154
916.595	16040
916.708	15922
916.82	16017
916.932	15915
917.044	16002
917.156	15960
917.268	15823
917.38	15793
917.491	15804
917.603	15911
917.715	15865
917.826	15793
917.938	15709
918.049	15606
918.161	15732
918.272	15857
918.384	15823
918.495	15694
918.606	15584
918.717	15534
918.828	15622
918.939	15526
919.05	15511
919.161	15477
919.272	15344
919.383	15287
919.494	15526
919.604	15660
919.715	15435
919.826	15340
919.936	15450
920.047	15545
920.157	15523
920.267	15694
920.378	15481
920.488	15412
920.598	15652
920.708	15675
920.818	15587
920.928	15648
921.038	15793
921.148	15705
921.258	15462
921.368	15310
921.477	15211
921.587	15123
921.697	14975
921.806	15150
921.916	15066
922.025	14929
922.134	14872
922.244	14727
922.353	14876
922.462	14735
922.571	14621
922.68	14511
922.789	14442
922.898	14530
923.007	14377
923.116	14427
923.224	14393
923.333	14385
923.442	14317
923.55	14313
923.659	14328
923.767	14374
923.876	14229
923.984	14328
924.092	14180
924.201	14214
924.309	14107
924.417	14123
924.525	14103
924.633	14100
924.741	14857
924.849	13769
924.956	13989
925.064	13811
925.172	13811
925.279	13784
925.387	13826
925.494	13811
925.602	13902
925.709	13814
925.816	13685
925.924	13830
926.031	13925
926.138	13734
926.245	13765
926.352	13658
926.459	13833
926.566	13856
926.673	13616
926.779	13567
926.886	13502
926.993	13392
927.099	13430
927.206	13327
927.312	13358
927.419	13343
927.525	13392
927.631	13403
927.737	13236
927.843	13187
927.95	13129
928.056	13179
928.162	13152
928.267	13240
928.373	13795
928.479	13263
928.585	12962
928.69	13023
928.796	13107
928.901	12977
929.007	12795
929.112	12970
929.218	13065
929.323	12928
929.428	12909
929.533	12924
929.638	12772
929.743	12749
929.848	12878
929.953	12791
930.058	12738
930.163	12585
930.267	12582
930.372	12593
930.477	12464
930.581	12719
930.685	12673
930.79	12369
930.894	12502
930.998	12346
931.103	12490
931.207	12167
931.311	12076
931.415	11988
931.519	11843
931.623	11611
