Data from test_V78500241_2078.txt Node
Date: Fri Mar 25 15:56:11 CST 2022
User: usil
Spectrometer: V785-0024
Trigger mode: 0
Integration Time (sec): 4.000000E-1
Scans to average: 1
Nonlinearity correction enabled: false
Boxcar width: 0
Storing dark spectrum: false
XAxis mode: Wavelengths
Number of Pixels in Spectrum: 1024
>>>>>Begin Spectral Data<<<<<
801.071	29155
801.214	29189
801.356	28980
801.499	28904
801.641	28755
801.783	28767
801.926	28618
802.068	28721
802.211	28687
802.353	28687
802.496	28451
802.638	28413
802.78	28390
802.923	28363
803.065	28382
803.208	28424
803.35	28462
803.492	28519
803.635	28782
803.777	28508
803.919	28694
804.061	28957
804.204	28828
804.346	28550
804.488	28569
804.63	28683
804.773	28721
804.915	28744
805.057	28828
805.199	28896
805.341	28786
805.483	28812
805.626	28915
805.768	28820
805.91	28915
806.052	28885
806.194	28721
806.336	29136
806.478	28869
806.62	28965
806.762	29090
806.904	29200
807.046	29490
807.188	29318
807.33	29315
807.472	29204
807.614	29387
807.756	29448
807.898	29356
808.04	29159
808.182	29128
808.324	29242
808.465	29254
808.607	29433
808.749	29558
808.891	29722
809.033	29691
809.174	29726
809.316	29467
809.458	29520
809.6	29604
809.741	29630
809.883	29623
810.025	29794
810.166	29969
810.308	29878
810.45	29828
810.591	29653
810.733	29661
810.875	29562
811.016	29509
811.158	29474
811.299	29722
811.441	29824
811.582	29771
811.724	29630
811.865	29596
812.007	29585
812.148	29577
812.29	29676
812.431	29866
812.573	29889
812.714	29999
812.855	30030
812.997	30167
813.138	30372
813.279	30304
813.421	30254
813.562	30076
813.703	30011
813.845	29866
813.986	29497
814.127	29395
814.268	29410
814.41	29356
814.551	29235
814.692	29345
814.833	29414
814.974	29375
815.115	29337
815.256	29208
815.397	29208
815.539	29250
815.68	29121
815.821	29083
815.962	29159
816.103	29029
816.244	29029
816.385	29060
816.526	28930
816.666	28801
816.807	28687
816.948	28713
817.089	28965
817.23	28668
817.371	28668
817.512	28607
817.653	28554
817.793	28542
817.934	28611
818.075	28683
818.216	28584
818.356	28774
818.497	28561
818.638	28386
818.778	28424
818.919	28386
819.06	28512
819.2	28675
819.341	28630
819.481	28577
819.622	28607
819.762	28904
819.903	28911
820.043	28919
820.184	28900
820.324	28858
820.465	28862
820.605	28824
820.746	28862
820.886	28596
821.026	28755
821.167	28653
821.307	28725
821.447	28755
821.588	28618
821.728	28489
821.868	28265
822.008	28059
822.149	28173
822.289	28006
822.429	27994
822.569	27998
822.709	27789
822.849	27652
822.99	27587
823.13	27610
823.27	27648
823.41	27401
823.55	27450
823.69	27466
823.83	27492
823.97	27386
824.11	27226
824.25	27291
824.389	27370
824.529	27439
824.669	27283
824.809	27477
824.949	27382
825.089	27310
825.228	27256
825.368	27085
825.508	27233
825.648	27176
825.787	27188
825.927	27325
826.067	27127
826.206	27195
826.346	27325
826.485	27310
826.625	27119
826.765	27298
826.904	27184
827.044	27005
827.183	27074
827.323	26948
827.462	27013
827.601	26838
827.741	26788
827.88	26979
828.02	26754
828.159	26929
828.298	26880
828.437	26880
828.577	26944
828.716	26944
828.855	26705
828.994	26602
829.134	26606
829.273	26773
829.412	26640
829.551	26431
829.69	26552
829.829	26602
829.968	26575
830.107	26735
830.246	26644
830.385	26560
830.524	26438
830.663	26343
830.802	26278
830.941	26275
831.08	26065
831.219	26301
831.357	26278
831.496	26545
831.635	26229
831.774	26168
831.913	26134
832.051	26046
832.19	25944
832.329	25955
832.467	25947
832.606	25807
832.744	25841
832.883	25845
833.022	25894
833.16	25803
833.299	25868
833.437	25826
833.576	25993
833.714	25894
833.852	25799
833.991	25921
834.129	26088
834.267	26024
834.406	25799
834.544	25951
834.682	25890
834.821	25955
834.959	26168
835.097	25807
835.235	26005
835.373	25818
835.511	25841
835.65	25906
835.788	25723
835.926	25616
836.064	25544
836.202	25674
836.34	25635
836.478	25727
836.615	25616
836.753	25651
836.891	25852
837.029	25826
837.167	25651
837.305	25700
837.443	25586
837.58	25578
837.718	25647
837.856	25460
837.993	25510
838.131	25556
838.269	25350
838.406	25525
838.544	25335
838.681	25384
838.819	25164
838.956	25088
839.094	25137
839.231	25034
839.369	25084
839.506	25499
839.643	25114
839.781	25023
839.918	24932
840.055	25000
840.193	24947
840.33	25031
840.467	25038
840.604	24985
840.742	25148
840.879	24783
841.016	24821
841.153	24829
841.29	25050
841.427	24745
841.564	25000
841.701	24920
841.838	24958
841.975	24817
842.112	24882
842.249	24821
842.385	24719
842.522	24856
842.659	24753
842.796	24715
842.933	24635
843.069	24677
843.206	24703
843.343	24661
843.479	24555
843.616	24810
843.752	24479
843.889	24372
844.025	24589
844.162	24350
844.298	24547
844.435	24483
844.571	24460
844.708	24433
844.844	24627
844.98	24608
845.117	24620
845.253	24342
845.389	24235
845.525	24391
845.661	24311
845.798	24304
845.934	24140
846.07	24129
846.206	24247
846.342	24315
846.478	24136
846.614	23863
846.75	23817
846.886	23786
847.022	23977
847.158	24064
847.294	23855
847.429	23942
847.565	23817
847.701	24022
847.837	23573
847.972	23581
848.108	23687
848.244	23703
848.379	23592
848.515	23406
848.65	23585
848.786	23509
848.921	23558
849.057	23638
849.192	23566
849.328	23520
849.463	23520
849.598	23455
849.734	23261
849.869	23337
850.004	23242
850.14	23398
850.275	23212
850.41	23174
850.545	23189
850.68	23258
850.815	23292
850.95	23288
851.085	23433
851.22	23311
851.355	23216
851.49	23315
851.625	23155
851.76	23181
851.895	23044
852.03	23299
852.165	23124
852.299	23326
852.434	23315
852.569	23200
852.703	23189
852.838	23227
852.973	23425
853.107	23315
853.242	23132
853.376	23044
853.511	22850
853.645	23044
853.78	23140
853.914	23052
854.048	22946
854.183	22999
854.317	23044
854.451	23242
854.585	22949
854.72	22934
854.854	23250
854.988	22968
855.122	22976
855.256	22968
855.39	23003
855.524	23003
855.658	23083
855.792	23143
855.926	23090
856.06	23010
856.194	23147
856.327	22911
856.461	22984
856.595	23029
856.729	22885
856.862	23121
856.996	23189
857.13	23117
857.263	23223
857.397	23105
857.53	23075
857.664	23041
857.797	23056
857.931	23193
858.064	23140
858.197	23124
858.331	23124
858.464	22999
858.597	22961
858.731	23003
858.864	23037
858.997	22904
859.13	23098
859.263	22968
859.396	23071
859.529	22972
859.662	23079
859.795	23014
859.928	23041
860.061	23280
860.194	23277
860.327	23060
860.46	23090
860.592	23162
860.725	23212
860.858	23258
860.99	23083
861.123	22968
861.256	22965
861.388	23105
861.521	23699
861.653	22904
861.786	22919
861.918	22995
862.05	22949
862.183	22976
862.315	23056
862.447	23109
862.58	22965
862.712	22820
862.844	22706
862.976	22805
863.108	22801
863.24	23353
863.372	22752
863.504	22637
863.636	22744
863.768	22706
863.9	22797
864.032	22675
864.164	22790
864.296	22778
864.428	22805
864.559	22896
864.691	22801
864.823	22793
864.954	22767
865.086	22820
865.217	22668
865.349	22603
865.48	22443
865.612	22599
865.743	22812
865.875	22683
866.006	22611
866.137	22668
866.269	22664
866.4	22672
866.531	22557
866.662	22538
866.793	22550
866.924	22443
867.055	22519
867.186	22466
867.317	22493
867.448	22398
867.579	22550
867.71	22398
867.841	22466
867.972	22497
868.103	22557
868.233	22485
868.364	22436
868.495	22687
868.625	22771
868.756	22873
868.886	22710
869.017	22793
869.147	22911
869.278	22900
869.408	22809
869.539	22748
869.669	22892
869.799	22790
869.929	22942
870.06	22900
870.19	22995
870.32	23022
870.45	23117
870.58	23299
870.71	23235
870.84	23239
870.97	23162
871.1	23140
871.23	23372
871.36	23368
871.489	23242
871.619	23353
871.749	23421
871.879	23402
872.008	23474
872.138	23311
872.267	23474
872.397	23250
872.526	23155
872.656	23200
872.785	23189
872.915	23387
873.044	23436
873.173	23493
873.303	23444
873.432	23516
873.561	23440
873.69	23368
873.819	23448
873.948	23509
874.077	23398
874.206	23356
874.335	23421
874.464	23440
874.593	23520
874.722	23520
874.851	23627
874.979	23608
875.108	23676
875.237	23566
875.365	23417
875.494	23627
875.623	23600
875.751	23600
875.88	23642
876.008	23710
876.136	23722
876.265	24030
876.393	24030
876.521	24041
876.65	24148
876.778	23897
876.906	23889
877.034	23779
877.162	23946
877.29	23813
877.418	23908
877.546	23969
877.674	23939
877.802	23942
877.93	23935
878.058	23824
878.185	23794
878.313	23882
878.441	24003
878.568	23619
878.696	23965
878.824	23885
878.951	24045
879.079	24076
879.206	24220
879.333	24053
879.461	23851
879.588	24076
879.715	24186
879.842	24163
879.97	24072
880.097	23775
880.224	23726
880.351	23748
880.478	23847
880.605	23722
880.732	23783
880.859	23958
880.986	23802
881.112	23779
881.239	23611
881.366	23429
881.493	23482
881.619	23303
881.746	23246
881.872	23284
881.999	23216
882.125	23254
882.252	23383
882.378	23265
882.505	23425
882.631	23117
882.757	22972
882.883	23128
883.01	23052
883.136	22953
883.262	22771
883.388	22767
883.514	22881
883.64	22934
883.766	22790
883.892	22759
884.018	22801
884.143	22824
884.269	22873
884.395	22748
884.52	22550
884.646	22675
884.772	22516
884.897	22554
885.023	22736
885.148	22736
885.274	22740
885.399	22763
885.524	22542
885.65	22660
885.775	22615
885.9	22573
886.025	22702
886.15	22656
886.275	22542
886.4	22493
886.525	22611
886.65	22634
886.775	22569
886.9	22809
887.025	22691
887.149	22577
887.274	22394
887.399	22352
887.523	22303
887.648	22405
887.773	22234
887.897	22303
888.021	22382
888.146	22299
888.27	22413
888.395	22284
888.519	22367
888.643	22306
888.767	22440
888.891	22246
889.015	22211
889.139	22284
889.263	22101
889.387	22166
889.511	22268
889.635	22211
889.759	22120
889.883	22131
890.006	22158
890.13	22215
890.254	22082
890.377	22044
890.501	21857
890.624	21808
890.748	21876
890.871	21873
890.995	21724
891.118	21728
891.241	21770
891.364	21660
891.488	21861
891.611	21667
891.734	21720
891.857	21743
891.98	21679
892.103	21861
892.226	21682
892.349	21698
892.471	21412
892.594	21633
892.717	21618
892.839	21564
892.962	21641
893.085	21618
893.207	21485
893.33	21492
893.452	21595
893.575	21591
893.697	21519
893.819	21580
893.941	21766
894.064	21671
894.186	21538
894.308	21469
894.43	21507
894.552	21652
894.674	21717
894.796	21431
894.918	21542
895.04	21492
895.161	21618
895.283	21523
895.405	21485
895.526	21523
895.648	21450
895.769	21492
895.891	21538
896.012	21682
896.134	21538
896.255	21500
896.376	21428
896.498	21393
896.619	21568
896.74	21542
896.861	21557
896.982	21895
897.103	22048
897.224	21781
897.345	21644
897.466	21591
897.587	21774
897.708	21838
897.828	21728
897.949	21698
898.07	21572
898.19	21698
898.311	21736
898.431	21709
898.552	21648
898.672	21717
898.792	21880
898.913	21743
899.033	21610
899.153	21469
899.273	21382
899.393	21431
899.513	21462
899.633	21340
899.753	21428
899.873	21450
899.993	21523
900.113	21393
900.232	21363
900.352	21412
900.472	21283
900.591	21142
900.711	21252
900.83	21127
900.95	21408
901.069	21237
901.189	21192
901.308	20754
901.427	20800
901.546	20739
901.665	20788
901.784	20724
901.904	20670
902.023	20617
902.141	20298
902.26	20343
902.379	20389
902.498	20320
902.617	20168
902.735	20214
902.854	20218
902.973	20214
903.091	19936
903.21	20050
903.328	19898
903.446	19731
903.565	19704
903.683	19723
903.801	19628
903.919	19674
904.038	19544
904.156	19502
904.274	19537
904.392	19544
904.51	19460
904.627	19388
904.745	19438
904.863	19480
904.981	19190
905.098	19133
905.216	19164
905.334	19190
905.451	19148
905.569	19057
905.686	19225
905.803	19141
905.921	18837
906.038	19042
906.155	18913
906.272	18764
906.389	18821
906.506	18673
906.623	18726
906.74	18658
906.857	18544
906.974	18494
907.091	18711
907.208	18753
907.324	18779
907.441	18585
907.557	18380
907.674	18315
907.79	18289
907.907	18330
908.023	18414
908.139	18300
908.256	18342
908.372	18273
908.488	18262
908.604	18045
908.72	18041
908.836	18083
908.952	17931
909.068	18098
909.184	18163
909.3	18019
909.415	18041
909.531	18045
909.647	17771
909.762	17703
909.878	17718
909.993	17752
910.108	17813
910.224	17741
910.339	17733
910.454	17665
910.57	17573
910.685	17452
910.8	17760
910.915	17649
911.03	17524
911.145	17467
911.259	17425
911.374	17231
911.489	17181
911.604	17174
911.718	17045
911.833	17033
911.947	16949
912.062	16801
912.176	17105
912.291	17090
912.405	17060
912.519	17284
912.633	17311
912.748	17121
912.862	17071
912.976	16858
913.09	16675
913.204	16869
913.318	16873
913.431	16999
913.545	16949
913.659	17003
913.772	16778
913.886	16672
914	16634
914.113	16733
914.226	16744
914.34	16778
914.453	16558
914.566	16679
914.68	16550
914.793	16527
914.906	16185
915.019	16276
915.132	16192
915.245	16215
915.358	16299
915.47	16242
915.583	16249
915.696	16207
915.809	16390
915.921	16333
916.034	16166
916.146	16238
916.259	16109
916.371	16105
916.483	16192
916.595	16139
916.708	16006
916.82	16025
916.932	16013
917.044	15941
917.156	16025
917.268	15899
917.38	15907
917.491	15827
917.603	15876
917.715	15915
917.826	15949
917.938	15778
918.049	15660
918.161	15846
918.272	15979
918.384	15922
918.495	15827
918.606	15686
918.717	15595
918.828	15686
918.939	15591
919.05	15606
919.161	15572
919.272	15447
919.383	15397
919.494	15652
919.604	15850
919.715	15545
919.826	15519
919.936	15564
920.047	15568
920.157	15561
920.267	15739
920.378	15553
920.488	15568
920.598	15736
920.708	15827
920.818	15675
920.928	15679
921.038	15865
921.148	15720
921.258	15443
921.368	15435
921.477	15283
921.587	15241
921.697	15116
921.806	15306
921.916	15005
922.025	14937
922.134	14933
922.244	14910
922.353	14910
922.462	14739
922.571	14678
922.68	14587
922.789	14480
922.898	14552
923.007	14446
923.116	14507
923.224	14461
923.333	14499
923.442	14320
923.55	14381
923.659	14400
923.767	14389
923.876	14290
923.984	14320
924.092	14225
924.201	14267
924.309	14278
924.417	14313
924.525	14111
924.633	14138
924.741	15077
924.849	13921
924.956	14142
925.064	13986
925.172	13913
925.279	13868
925.387	13890
925.494	13864
925.602	13955
925.709	13955
925.816	13830
925.924	13795
926.031	13830
926.138	13780
926.245	13890
926.352	13856
926.459	13791
926.566	13959
926.673	13769
926.779	13731
926.886	13636
926.993	13453
927.099	13453
927.206	13304
927.312	13384
927.419	13441
927.525	13483
927.631	13403
927.737	13274
927.843	13278
927.95	13057
928.056	13278
928.162	13145
928.267	13247
928.373	13841
928.479	13244
928.585	13072
928.69	13133
928.796	13198
928.901	13012
929.007	13000
929.112	12935
929.218	13031
929.323	13091
929.428	12897
929.533	13061
929.638	12817
929.743	12863
929.848	12894
929.953	12905
930.058	12768
930.163	12460
930.267	12681
930.372	12703
930.477	12566
930.581	12768
930.685	12646
930.79	12502
930.894	12475
930.998	12418
931.103	12544
931.207	12159
931.311	12110
931.415	12045
931.519	11927
931.623	11767
