Data from test_V78500241_278.txt Node
Date: Fri Mar 25 15:43:43 CST 2022
User: usil
Spectrometer: V785-0024
Trigger mode: 0
Integration Time (sec): 4.000000E-1
Scans to average: 1
Nonlinearity correction enabled: false
Boxcar width: 0
Storing dark spectrum: false
XAxis mode: Wavelengths
Number of Pixels in Spectrum: 1024
>>>>>Begin Spectral Data<<<<<
801.071	29897
801.214	29821
801.356	29653
801.499	29649
801.641	29554
801.783	29307
801.926	29493
802.068	29391
802.211	29273
802.353	29349
802.496	29174
802.638	29003
802.78	29151
802.923	29178
803.065	28965
803.208	28987
803.35	29044
803.492	29094
803.635	29231
803.777	29151
803.919	29341
804.061	29627
804.204	29337
804.346	29239
804.488	29094
804.63	29341
804.773	29132
804.915	29261
805.057	29387
805.199	29223
805.341	29345
805.483	29334
805.626	29364
805.768	29220
805.91	29375
806.052	29512
806.194	29455
806.336	29490
806.478	29417
806.62	29410
806.762	29459
806.904	29767
807.046	30041
807.188	29775
807.33	29672
807.472	29969
807.614	29668
807.756	29718
807.898	29562
808.04	29398
808.182	29573
808.324	29608
808.465	29665
808.607	29547
808.749	29923
808.891	29901
809.033	30186
809.174	30087
809.316	30022
809.458	30034
809.6	29969
809.741	30030
809.883	30213
810.025	30327
810.166	30262
810.308	30315
810.45	30243
810.591	30152
810.733	29954
810.875	30091
811.016	29904
811.158	29874
811.299	30110
811.441	30068
811.582	30045
811.724	29862
811.865	29726
812.007	29912
812.148	29946
812.29	29965
812.431	30152
812.573	30426
812.714	30289
812.855	30395
812.997	30639
813.138	30760
813.279	30582
813.421	30452
813.562	30525
813.703	30342
813.845	30247
813.986	29809
814.127	29764
814.268	29570
814.41	29642
814.551	29600
814.692	29726
814.833	29653
814.974	29558
815.115	29695
815.256	29467
815.397	29459
815.539	29604
815.68	29410
815.821	29387
815.962	29429
816.103	29273
816.244	29254
816.385	29239
816.526	29079
816.666	29140
816.807	28911
816.948	28942
817.089	29064
817.23	29022
817.371	28805
817.512	28911
817.653	28938
817.793	28824
817.934	28839
818.075	28858
818.216	28839
818.356	28900
818.497	28763
818.638	28561
818.778	28580
818.919	28504
819.06	28660
819.2	28752
819.341	28755
819.481	28679
819.622	28843
819.762	29143
819.903	28995
820.043	28972
820.184	28904
820.324	28835
820.465	29067
820.605	28923
820.746	28835
820.886	28702
821.026	28831
821.167	28801
821.307	28949
821.447	28805
821.588	28672
821.728	28428
821.868	28447
822.008	28421
822.149	28287
822.289	28192
822.429	27945
822.569	27979
822.709	27911
822.849	27637
822.99	27698
823.13	27622
823.27	27762
823.41	27481
823.55	27492
823.69	27511
823.83	27705
823.97	27481
824.11	27359
824.25	27447
824.389	27310
824.529	27458
824.669	27336
824.809	27408
824.949	27504
825.089	27431
825.228	27302
825.368	27135
825.508	27138
825.648	27359
825.787	27241
825.927	27142
826.067	27222
826.206	27249
826.346	27203
826.485	27256
826.625	27157
826.765	27180
826.904	27127
827.044	26986
827.183	26986
827.323	26861
827.462	27009
827.601	26910
827.741	26891
827.88	26925
828.02	26708
828.159	26876
828.298	26853
828.437	26975
828.577	26777
828.716	26952
828.855	26800
828.994	26556
829.134	26636
829.273	26587
829.412	26503
829.551	26332
829.69	26590
829.829	26526
829.968	26602
830.107	26560
830.246	26526
830.385	26366
830.524	26370
830.663	26301
830.802	26294
830.941	26172
831.08	26115
831.219	26084
831.357	26092
831.496	26320
831.635	26050
831.774	25898
831.913	25936
832.051	25978
832.19	25833
832.329	25826
832.467	25841
832.606	25674
832.744	25715
832.883	25864
833.022	25700
833.16	25799
833.299	25830
833.437	25841
833.576	25795
833.714	25803
833.852	25784
833.991	25906
834.129	25955
834.267	25826
834.406	25651
834.544	25738
834.682	25795
834.821	25871
834.959	25925
835.097	25693
835.235	25750
835.373	25879
835.511	25719
835.65	25552
835.788	25537
835.926	25586
836.064	25339
836.202	25327
836.34	25632
836.478	25723
836.615	25544
836.753	25647
836.891	25803
837.029	25628
837.167	25476
837.305	25415
837.443	25396
837.58	25346
837.718	25419
837.856	25415
837.993	25362
838.131	25407
838.269	25202
838.406	25289
838.544	25236
838.681	25053
838.819	25000
838.956	24844
839.094	24734
839.231	24821
839.369	24958
839.506	25247
839.643	25031
839.781	24722
839.918	24658
840.055	24673
840.193	24741
840.33	24673
840.467	24814
840.604	24779
840.742	24852
840.879	24570
841.016	24669
841.153	24642
841.29	24745
841.427	24639
841.564	24642
841.701	24654
841.838	24642
841.975	24422
842.112	24593
842.249	24536
842.385	24452
842.522	24536
842.659	24388
842.796	24254
842.933	24342
843.069	24300
843.206	24182
843.343	24505
843.479	24357
843.616	24338
843.752	24163
843.889	24190
844.025	24136
844.162	24148
844.298	24228
844.435	24079
844.571	24095
844.708	24140
844.844	24315
844.98	24247
845.117	24152
845.253	24155
845.389	23897
845.525	24087
845.661	23893
845.798	23794
845.934	23866
846.07	23821
846.206	23832
846.342	23897
846.478	23783
846.614	23642
846.75	23444
846.886	23486
847.022	23707
847.158	23452
847.294	23528
847.429	23505
847.565	23387
847.701	23695
847.837	23288
847.972	23246
848.108	23356
848.244	23273
848.379	23105
848.515	23136
848.65	22987
848.786	23071
848.921	23170
849.057	23322
849.192	23105
849.328	23109
849.463	23025
849.598	22934
849.734	22862
849.869	22934
850.004	22847
850.14	22839
850.275	22828
850.41	22786
850.545	22858
850.68	22854
850.815	22938
850.95	22843
851.085	23037
851.22	22831
851.355	22793
851.49	22877
851.625	22759
851.76	22881
851.895	22755
852.03	22858
852.165	22786
852.299	22782
852.434	22873
852.569	22847
852.703	22812
852.838	22923
852.973	22934
853.107	23041
853.242	22736
853.376	22577
853.511	22538
853.645	22527
853.78	22675
853.914	22588
854.048	22569
854.183	22580
854.317	22550
854.451	22869
854.585	22596
854.72	22691
854.854	22668
854.988	22497
855.122	22573
855.256	22390
855.39	22535
855.524	22573
855.658	22557
855.792	22615
855.926	22668
856.06	22710
856.194	22611
856.327	22649
856.461	22706
856.595	22489
856.729	22645
856.862	22752
856.996	22535
857.13	22649
857.263	22839
857.397	22736
857.53	22535
857.664	22557
857.797	22698
857.931	22736
858.064	22611
858.197	22816
858.331	22569
858.464	22557
858.597	22577
858.731	22618
858.864	22512
858.997	22588
859.13	22516
859.263	22615
859.396	22561
859.529	22538
859.662	22516
859.795	22474
859.928	22584
860.061	22733
860.194	22538
860.327	22653
860.46	22607
860.592	22717
860.725	22706
860.858	22637
860.99	22645
861.123	22489
861.256	22504
861.388	22527
861.521	23284
861.653	22356
861.786	22348
861.918	22382
862.05	22360
862.183	22596
862.315	22592
862.447	22687
862.58	22565
862.712	22329
862.844	22139
862.976	22310
863.108	22356
863.24	22694
863.372	22082
863.504	22230
863.636	22341
863.768	22333
863.9	22234
864.032	22181
864.164	22204
864.296	22276
864.428	22322
864.559	22268
864.691	22291
864.823	22143
864.954	22196
865.086	22242
865.217	22200
865.349	21994
865.48	22109
865.612	22090
865.743	22169
865.875	22040
866.006	22097
866.137	22150
866.269	22166
866.4	22048
866.531	22040
866.662	22013
866.793	22044
866.924	22082
867.055	22116
867.186	22116
867.317	22067
867.448	21869
867.579	22025
867.71	21975
867.841	21831
867.972	21918
868.103	22029
868.233	21937
868.364	21987
868.495	22192
868.625	22124
868.756	22352
868.886	22253
869.017	22238
869.147	22390
869.278	22421
869.408	22272
869.539	22166
869.669	22246
869.799	22405
869.929	22344
870.06	22379
870.19	22538
870.32	22546
870.45	22577
870.58	22656
870.71	22649
870.84	22672
870.97	22649
871.1	22786
871.23	22839
871.36	22866
871.489	22820
871.619	22774
871.749	22847
871.879	22968
872.008	23056
872.138	22725
872.267	22847
872.397	22763
872.526	22645
872.656	22733
872.785	22763
872.915	22839
873.044	22927
873.173	22809
873.303	22953
873.432	22953
873.561	23022
873.69	22953
873.819	23006
873.948	22904
874.077	22949
874.206	22896
874.335	22858
874.464	23018
874.593	23109
874.722	23056
874.851	23121
874.979	23083
875.108	23193
875.237	23147
875.365	22790
875.494	23109
875.623	23273
875.751	22972
875.88	23113
876.008	23265
876.136	23311
876.265	23497
876.393	23627
876.521	23581
876.65	23619
876.778	23493
876.906	23353
877.034	23490
877.162	23570
877.29	23421
877.418	23414
877.546	23657
877.674	23425
877.802	23448
877.93	23417
878.058	23379
878.185	23246
878.313	23395
878.441	23471
878.568	23223
878.696	23311
878.824	23440
878.951	23543
879.079	23707
879.206	23630
879.333	23604
879.461	23531
879.588	23482
879.715	23547
879.842	23737
879.97	23406
880.097	23181
880.224	23197
880.351	23341
880.478	23334
880.605	23204
880.732	23239
880.859	23455
880.986	23212
881.112	23178
881.239	23094
881.366	23018
881.493	22923
881.619	22805
881.746	22854
881.872	22858
881.999	22801
882.125	22767
882.252	22801
882.378	22759
882.505	22946
882.631	22767
882.757	22466
882.883	22618
883.01	22596
883.136	22459
883.262	22497
883.388	22261
883.514	22516
883.64	22546
883.766	22371
883.892	22314
884.018	22234
884.143	22451
884.269	22599
884.395	22253
884.52	22181
884.646	22169
884.772	22078
884.897	22017
885.023	22166
885.148	22207
885.274	22348
885.399	22265
885.524	22078
885.65	22090
885.775	22181
885.9	22188
886.025	22207
886.15	22188
886.275	22051
886.4	22074
886.525	22051
886.65	22078
886.775	22006
886.9	22295
887.025	22318
887.149	22055
887.274	21945
887.399	21937
887.523	21953
887.648	21918
887.773	21861
887.897	21998
888.021	21915
888.146	21835
888.27	21998
888.395	21960
888.519	21953
888.643	21915
888.767	21861
888.891	21785
889.015	21610
889.139	21732
889.263	21530
889.387	21804
889.511	21823
889.635	21789
889.759	21690
889.883	21580
890.006	21686
890.13	21755
890.254	21557
890.377	21606
890.501	21504
890.624	21435
890.748	21454
890.871	21306
890.995	21207
891.118	21218
891.241	21325
891.364	21161
891.488	21340
891.611	21195
891.734	21138
891.857	21268
891.98	21176
892.103	21317
892.226	21150
892.349	21100
892.471	20979
892.594	21150
892.717	21135
892.839	21036
892.962	21146
893.085	21237
893.207	21051
893.33	20990
893.452	20960
893.575	21001
893.697	21051
893.819	21237
893.941	21359
894.064	21237
894.186	21001
894.308	20952
894.43	21112
894.552	21184
894.674	21180
894.796	21020
894.918	21039
895.04	21119
895.161	21116
895.283	21096
895.405	21157
895.526	21039
895.648	20944
895.769	21157
895.891	21135
896.012	21100
896.134	21199
896.255	21043
896.376	21157
896.498	21138
896.619	21165
896.74	21165
896.861	21127
896.982	21351
897.103	21583
897.224	21469
897.345	21355
897.466	21302
897.587	21401
897.708	21496
897.828	21332
897.949	21260
898.07	21077
898.19	21218
898.311	21412
898.431	21188
898.552	21260
898.672	21283
898.792	21332
898.913	21287
899.033	21188
899.153	20933
899.273	20902
899.393	20914
899.513	20933
899.633	20914
899.753	20952
899.873	20861
899.993	20986
900.113	20937
900.232	20921
900.352	20773
900.472	20872
900.591	20792
900.711	20826
900.83	20720
900.95	20838
901.069	20754
901.189	20655
901.308	20446
901.427	20301
901.546	20256
901.665	20237
901.784	20298
901.904	20161
902.023	20073
902.141	19925
902.26	19940
902.379	19921
902.498	19742
902.617	19849
902.735	19795
902.854	19795
902.973	19852
903.091	19563
903.21	19403
903.328	19373
903.446	19304
903.565	19312
903.683	19244
903.801	19126
903.919	19187
904.038	19156
904.156	19099
904.274	19133
904.392	19057
904.51	18962
904.627	19107
904.745	19042
904.863	18973
904.981	18821
905.098	18707
905.216	18688
905.334	18673
905.451	18665
905.569	18612
905.686	18753
905.803	18715
905.921	18475
906.038	18464
906.155	18456
906.272	18486
906.389	18418
906.506	18216
906.623	18258
906.74	18148
906.857	18136
906.974	18144
907.091	18254
907.208	18395
907.324	18232
907.441	18057
907.557	17980
907.674	17847
907.79	17920
907.907	17927
908.023	17984
908.139	17843
908.256	17760
908.372	17802
908.488	17748
908.604	17752
908.72	17486
908.836	17554
908.952	17551
909.068	17764
909.184	17649
909.3	17570
909.415	17543
909.531	17596
909.647	17387
909.762	17284
909.878	17246
909.993	17239
910.108	17299
910.224	17284
910.339	17235
910.454	17189
910.57	17136
910.685	17003
910.8	17140
910.915	17181
911.03	17086
911.145	16911
911.259	16854
911.374	16866
911.489	16805
911.604	16790
911.718	16679
911.833	16588
911.947	16615
912.062	16558
912.176	16565
912.291	16607
912.405	16649
912.519	16797
912.633	16744
912.748	16599
912.862	16558
912.976	16432
913.09	16207
913.204	16371
913.318	16333
913.431	16428
913.545	16348
913.659	16402
913.772	16280
913.886	16185
914	16204
914.113	16200
914.226	16322
914.34	16284
914.453	16090
914.566	16166
914.68	16025
914.793	15983
914.906	15873
915.019	15804
915.132	15686
915.245	15785
915.358	15816
915.47	15743
915.583	15724
915.696	15823
915.809	15865
915.921	15819
916.034	15774
916.146	15606
916.259	15580
916.371	15766
916.483	15595
916.595	15542
916.708	15553
916.82	15591
916.932	15496
917.044	15492
917.156	15340
917.268	15378
917.38	15405
917.491	15306
917.603	15378
917.715	15545
917.826	15462
917.938	15370
918.049	15184
918.161	15310
918.272	15469
918.384	15363
918.495	15283
918.606	15093
918.717	15131
918.828	15154
918.939	15218
919.05	15055
919.161	15043
919.272	14895
919.383	14895
919.494	15150
919.604	15275
919.715	15013
919.826	14872
919.936	15024
920.047	15195
920.157	15020
920.267	15188
920.378	15039
920.488	14921
920.598	15180
920.708	15298
920.818	15062
920.928	15138
921.038	15336
921.148	15264
921.258	15009
921.368	14899
921.477	14758
921.587	14754
921.697	14663
921.806	14762
921.916	14594
922.025	14511
922.134	14320
922.244	14305
922.353	14511
922.462	14237
922.571	14191
922.68	14088
922.789	14081
922.898	14130
923.007	13997
923.116	14046
923.224	14012
923.333	14062
923.442	13868
923.55	13822
923.659	13913
923.767	13925
923.876	13769
923.984	13887
924.092	13674
924.201	13693
924.309	13765
924.417	13685
924.525	13609
924.633	13738
924.741	14606
924.849	13411
924.956	13571
925.064	13487
925.172	13365
925.279	13373
925.387	13384
925.494	13411
925.602	13540
925.709	13445
925.816	13293
925.924	13285
926.031	13388
926.138	13289
926.245	13377
926.352	13247
926.459	13392
926.566	13434
926.673	13316
926.779	13164
926.886	13179
926.993	13061
927.099	12939
927.206	12875
927.312	12856
927.419	12970
927.525	12932
927.631	13027
927.737	12772
927.843	12734
927.95	12681
928.056	12817
928.162	12848
928.267	12844
928.373	13403
928.479	12856
928.585	12574
928.69	12669
928.796	12692
928.901	12642
929.007	12506
929.112	12635
929.218	12570
929.323	12547
929.428	12517
929.533	12623
929.638	12391
929.743	12327
929.848	12608
929.953	12429
930.058	12327
930.163	12209
930.267	12091
930.372	12350
930.477	12102
930.581	12300
930.685	12186
930.79	12068
930.894	12053
930.998	11999
931.103	12186
931.207	11821
931.311	11615
931.415	11604
931.519	11417
931.623	11467
