Data from test_V78500241_1314.txt Node
Date: Fri Mar 25 15:50:54 CST 2022
User: usil
Spectrometer: V785-0024
Trigger mode: 0
Integration Time (sec): 4.000000E-1
Scans to average: 1
Nonlinearity correction enabled: false
Boxcar width: 0
Storing dark spectrum: false
XAxis mode: Wavelengths
Number of Pixels in Spectrum: 1024
>>>>>Begin Spectral Data<<<<<
801.071	27351
801.214	27279
801.356	27020
801.499	26971
801.641	26804
801.783	26693
801.926	26781
802.068	26819
802.211	26906
802.353	26727
802.496	26644
802.638	26442
802.78	26522
802.923	26427
803.065	26370
803.208	26480
803.35	26575
803.492	26590
803.635	26552
803.777	26533
803.919	26617
804.061	26887
804.204	26663
804.346	26670
804.488	26533
804.63	26632
804.773	26693
804.915	26568
805.057	26689
805.199	26575
805.341	26750
805.483	26853
805.626	26754
805.768	26746
805.91	26773
806.052	26796
806.194	26857
806.336	26857
806.478	26925
806.62	26727
806.762	26918
806.904	27013
807.046	27317
807.188	27192
807.33	27214
807.472	27279
807.614	27058
807.756	27222
807.898	27009
808.04	27119
808.182	27036
808.324	27093
808.465	27074
808.607	27427
808.749	27408
808.891	27439
809.033	27447
809.174	27393
809.316	27332
809.458	27317
809.6	27450
809.741	27519
809.883	27488
810.025	27789
810.166	27622
810.308	27720
810.45	27576
810.591	27507
810.733	27264
810.875	27389
811.016	27351
811.158	27283
811.299	27462
811.441	27439
811.582	27564
811.724	27344
811.865	27355
812.007	27344
812.148	27348
812.29	27367
812.431	27507
812.573	27838
812.714	27717
812.855	27846
812.997	28002
813.138	28173
813.279	27949
813.421	27953
813.562	27732
813.703	27774
813.845	27606
813.986	27393
814.127	27180
814.268	27188
814.41	27028
814.551	27009
814.692	27123
814.833	27039
814.974	27119
815.115	27085
815.256	27051
815.397	26910
815.539	27001
815.68	26910
815.821	26708
815.962	26823
816.103	26823
816.244	26587
816.385	26522
816.526	26602
816.666	26625
816.807	26446
816.948	26492
817.089	26377
817.23	26233
817.371	26381
817.512	26355
817.653	26244
817.793	26282
817.934	26374
818.075	26351
818.216	26282
818.356	26412
818.497	26172
818.638	26035
818.778	26031
818.919	26206
819.06	26210
819.2	26187
819.341	26419
819.481	26290
819.622	26389
819.762	26781
819.903	26465
820.043	26453
820.184	26495
820.324	26404
820.465	26606
820.605	26347
820.746	26374
820.886	26282
821.026	26396
821.167	26480
821.307	26533
821.447	26286
821.588	26294
821.728	26164
821.868	26008
822.008	25906
822.149	25765
822.289	25898
822.429	25487
822.569	25578
822.709	25632
822.849	25354
822.99	25464
823.13	25225
823.27	25232
823.41	25152
823.55	25027
823.69	25213
823.83	25129
823.97	25148
824.11	24894
824.25	24962
824.389	24977
824.529	25072
824.669	25050
824.809	25088
824.949	25103
825.089	25027
825.228	24897
825.368	24939
825.508	24783
825.648	24715
825.787	24833
825.927	24962
826.067	24840
826.206	24696
826.346	24867
826.485	24791
826.625	24700
826.765	24817
826.904	24814
827.044	24540
827.183	24498
827.323	24433
827.462	24547
827.601	24494
827.741	24467
827.88	24646
828.02	24517
828.159	24403
828.298	24467
828.437	24616
828.577	24460
828.716	24479
828.855	24346
828.994	24266
829.134	24266
829.273	24174
829.412	24262
829.551	24087
829.69	24235
829.829	24338
829.968	24270
830.107	24296
830.246	24117
830.385	24239
830.524	24049
830.663	24030
830.802	23927
830.941	23813
831.08	23756
831.219	23904
831.357	23927
831.496	23958
831.635	23805
831.774	23737
831.913	23665
832.051	23619
832.19	23585
832.329	23771
832.467	23562
832.606	23455
832.744	23482
832.883	23493
833.022	23455
833.16	23425
833.299	23471
833.437	23490
833.576	23642
833.714	23710
833.852	23604
833.991	23649
834.129	23668
834.267	23714
834.406	23444
834.544	23531
834.682	23543
834.821	23501
834.959	23642
835.097	23501
835.235	23630
835.373	23543
835.511	23455
835.65	23497
835.788	23425
835.926	23277
836.064	23105
836.202	23254
836.34	23337
836.478	23577
836.615	23345
836.753	23322
836.891	23410
837.029	23524
837.167	23402
837.305	23193
837.443	23360
837.58	23288
837.718	23166
837.856	23341
837.993	23162
838.131	23288
838.269	23037
838.406	23155
838.544	23113
838.681	22889
838.819	22949
838.956	22801
839.094	22565
839.231	22786
839.369	22946
839.506	23079
839.643	22965
839.781	22748
839.918	22656
840.055	22729
840.193	22702
840.33	22523
840.467	22615
840.604	22755
840.742	22839
840.879	22481
841.016	22607
841.153	22531
841.29	22831
841.427	22599
841.564	22687
841.701	22577
841.838	22474
841.975	22588
842.112	22622
842.249	22333
842.385	22261
842.522	22679
842.659	22538
842.796	22356
842.933	22310
843.069	22253
843.206	22261
843.343	22379
843.479	22478
843.616	22459
843.752	22147
843.889	22139
844.025	22234
844.162	22150
844.298	22276
844.435	22135
844.571	22124
844.708	22185
844.844	22325
844.98	22257
845.117	22272
845.253	22070
845.389	21994
845.525	22093
845.661	22025
845.798	21873
845.934	21991
846.07	21915
846.206	21972
846.342	21979
846.478	21838
846.614	21800
846.75	21599
846.886	21542
847.022	21652
847.158	21682
847.294	21663
847.429	21713
847.565	21599
847.701	21819
847.837	21393
847.972	21401
848.108	21469
848.244	21367
848.379	21214
848.515	21173
848.65	21256
848.786	21302
848.921	21298
849.057	21252
849.192	21332
849.328	21249
849.463	21116
849.598	21302
849.734	21150
849.869	21074
850.004	21009
850.14	20933
850.275	21017
850.41	20811
850.545	20956
850.68	20944
850.815	20925
850.95	20899
851.085	21161
851.22	21123
851.355	21081
851.49	21100
851.625	21001
851.76	21055
851.895	20819
852.03	20910
852.165	20971
852.299	20868
852.434	21036
852.569	21066
852.703	20979
852.838	21077
852.973	21154
853.107	21077
853.242	21020
853.376	20880
853.511	20708
853.645	20826
853.78	20853
853.914	20781
854.048	20743
854.183	20819
854.317	20796
854.451	20971
854.585	20765
854.72	20743
854.854	20853
854.988	20731
855.122	20693
855.256	20769
855.39	20826
855.524	20895
855.658	20826
855.792	20765
855.926	20857
856.06	21036
856.194	20792
856.327	20705
856.461	20769
856.595	20693
856.729	20727
856.862	20880
856.996	20834
857.13	20629
857.263	20963
857.397	20872
857.53	20644
857.664	20788
857.797	20902
857.931	20872
858.064	20971
858.197	20811
858.331	20697
858.464	20697
858.597	20785
858.731	20800
858.864	20750
858.997	20693
859.13	20788
859.263	20864
859.396	20952
859.529	20724
859.662	20758
859.795	20773
859.928	20914
860.061	20960
860.194	21184
860.327	20880
860.46	20857
860.592	20785
860.725	20990
860.858	21058
860.99	20792
861.123	20560
861.256	20796
861.388	20754
861.521	21500
861.653	20819
861.786	20438
861.918	20663
862.05	20823
862.183	20708
862.315	20785
862.447	20819
862.58	20670
862.712	20545
862.844	20503
862.976	20469
863.108	20469
863.24	20910
863.372	20507
863.504	20590
863.636	20514
863.768	20636
863.9	20537
864.032	20507
864.164	20442
864.296	20556
864.428	20617
864.559	20621
864.691	20651
864.823	20507
864.954	20549
865.086	20457
865.217	20503
865.349	20313
865.48	20446
865.612	20514
865.743	20454
865.875	20400
866.006	20434
866.137	20431
866.269	20495
866.4	20450
866.531	20377
866.662	20427
866.793	20393
866.924	20347
867.055	20385
867.186	20343
867.317	20313
867.448	20275
867.579	20347
867.71	20355
867.841	20294
867.972	20511
868.103	20317
868.233	20259
868.364	20415
868.495	20476
868.625	20537
868.756	20708
868.886	20522
869.017	20746
869.147	20720
869.278	20636
869.408	20777
869.539	20640
869.669	20724
869.799	20648
869.929	20773
870.06	20765
870.19	20963
870.32	20952
870.45	20986
870.58	20986
870.71	21093
870.84	21252
870.97	20979
871.1	20979
871.23	21108
871.36	21180
871.489	21157
871.619	21237
871.749	21256
871.879	21195
872.008	21344
872.138	21256
872.267	21169
872.397	21043
872.526	20872
872.656	21024
872.785	21100
872.915	21245
873.044	21332
873.173	21348
873.303	21405
873.432	21298
873.561	21332
873.69	21214
873.819	21211
873.948	21336
874.077	21195
874.206	21218
874.335	21249
874.464	21374
874.593	21454
874.722	21401
874.851	21408
874.979	21572
875.108	21583
875.237	21424
875.365	21447
875.494	21515
875.623	21545
875.751	21389
875.88	21477
876.008	21656
876.136	21663
876.265	21873
876.393	21934
876.521	22010
876.65	21911
876.778	21835
876.906	21812
877.034	21766
877.162	21679
877.29	21800
877.418	21888
877.546	21785
877.674	21979
877.802	21755
877.93	21766
878.058	21819
878.185	21682
878.313	21816
878.441	21747
878.568	21618
878.696	21720
878.824	21888
878.951	21899
879.079	22010
879.206	22097
879.333	21888
879.461	21865
879.588	21907
879.715	22139
879.842	22063
879.97	21865
880.097	21747
880.224	21553
880.351	21591
880.478	21686
880.605	21641
880.732	21648
880.859	21899
880.986	21625
881.112	21633
881.239	21492
881.366	21359
881.493	21378
881.619	21264
881.746	21291
881.872	21291
881.999	21169
882.125	21218
882.252	21268
882.378	21279
882.505	21245
882.631	20948
882.757	20902
882.883	20902
883.01	20937
883.136	20849
883.262	20868
883.388	20902
883.514	20986
883.64	20929
883.766	20876
883.892	20655
884.018	20655
884.143	20861
884.269	21009
884.395	20598
884.52	20640
884.646	20583
884.772	20541
884.897	20290
885.023	20731
885.148	20651
885.274	20826
885.399	20659
885.524	20621
885.65	20541
885.775	20682
885.9	20621
886.025	20644
886.15	20632
886.275	20526
886.4	20434
886.525	20533
886.65	20461
886.775	20465
886.9	20549
887.025	20678
887.149	20640
887.274	20454
887.399	20237
887.523	20309
887.648	20233
887.773	20164
887.897	20393
888.021	20461
888.146	20336
888.27	20454
888.395	20461
888.519	20358
888.643	20362
888.767	20381
888.891	20237
889.015	20206
889.139	20176
889.263	20134
889.387	20229
889.511	20286
889.635	20237
889.759	20103
889.883	20164
890.006	20130
890.13	20214
890.254	20001
890.377	20046
890.501	19913
890.624	19856
890.748	19951
890.871	19936
890.995	19704
891.118	19605
891.241	19784
891.364	19715
891.488	19769
891.611	19750
891.734	19704
891.857	19807
891.98	19712
892.103	19868
892.226	19890
892.349	19723
892.471	19613
892.594	19670
892.717	19647
892.839	19613
892.962	19616
893.085	19791
893.207	19620
893.33	19460
893.452	19613
893.575	19708
893.697	19518
893.819	19727
893.941	19883
894.064	19814
894.186	19632
894.308	19548
894.43	19780
894.552	19814
894.674	19670
894.796	19540
894.918	19700
895.04	19472
895.161	19681
895.283	19639
895.405	19559
895.526	19635
895.648	19658
895.769	19666
895.891	19704
896.012	19750
896.134	19639
896.255	19651
896.376	19502
896.498	19616
896.619	19643
896.74	19715
896.861	19746
896.982	19963
897.103	20062
897.224	19928
897.345	19887
897.466	19795
897.587	19883
897.708	20001
897.828	19951
897.949	19799
898.07	19677
898.19	19890
898.311	19875
898.431	19784
898.552	19860
898.672	19925
898.792	19830
898.913	19959
899.033	19795
899.153	19807
899.273	19518
899.393	19609
899.513	19731
899.633	19723
899.753	19780
899.873	19689
899.993	19628
900.113	19693
900.232	19666
900.352	19632
900.472	19377
900.591	19468
900.711	19468
900.83	19426
900.95	19460
901.069	19620
901.189	19259
901.308	18996
901.427	19107
901.546	19034
901.665	19118
901.784	19065
901.904	18939
902.023	18867
902.141	18703
902.26	18616
902.379	18806
902.498	18646
902.617	18471
902.735	18661
902.854	18513
902.973	18296
903.091	18205
903.21	18277
903.328	18232
903.446	18232
903.565	17988
903.683	18034
903.801	18003
903.919	17912
904.038	18030
904.156	17878
904.274	17878
904.392	17722
904.51	17729
904.627	17824
904.745	17718
904.863	17874
904.981	17585
905.098	17528
905.216	17497
905.334	17505
905.451	17497
905.569	17452
905.686	17516
905.803	17478
905.921	17296
906.038	17235
906.155	17231
906.272	17178
906.389	17185
906.506	17098
906.623	16961
906.74	16999
906.857	16968
906.974	16961
907.091	17056
907.208	16999
907.324	16999
907.441	16968
907.557	16752
907.674	16713
907.79	16717
907.907	16615
908.023	16637
908.139	16672
908.256	16637
908.372	16569
908.488	16546
908.604	16519
908.72	16386
908.836	16573
908.952	16436
909.068	16447
909.184	16531
909.3	16519
909.415	16523
909.531	16519
909.647	16246
909.762	16173
909.878	16162
909.993	16177
910.108	16143
910.224	16040
910.339	16135
910.454	16097
910.57	16002
910.685	15876
910.8	16143
910.915	16055
911.03	15979
911.145	15747
911.259	15766
911.374	15747
911.489	15736
911.604	15641
911.718	15530
911.833	15515
911.947	15348
912.062	15458
912.176	15618
912.291	15622
912.405	15549
912.519	15682
912.633	15663
912.748	15633
912.862	15466
912.976	15268
913.09	15157
913.204	15298
913.318	15275
913.431	15469
913.545	15424
913.659	15469
913.772	15169
913.886	15157
914	15169
914.113	15184
914.226	15264
914.34	15176
914.453	15032
914.566	15089
914.68	15062
914.793	15032
914.906	14815
915.019	14807
915.132	14727
915.245	14712
915.358	14785
915.47	14777
915.583	14842
915.696	14804
915.809	14800
915.921	14857
916.034	14720
916.146	14613
916.259	14610
916.371	14678
916.483	14697
916.595	14613
916.708	14640
916.82	14590
916.932	14545
917.044	14511
917.156	14450
917.268	14484
917.38	14465
917.491	14450
917.603	14393
917.715	14480
917.826	14377
917.938	14374
918.049	14240
918.161	14438
918.272	14533
918.384	14434
918.495	14374
918.606	14142
918.717	14176
918.828	14233
918.939	14210
919.05	14153
919.161	14225
919.272	13925
919.383	13982
919.494	14214
919.604	14339
919.715	14218
919.826	14084
919.936	14168
920.047	14199
920.157	14123
920.267	14240
920.378	14134
920.488	14123
920.598	14278
920.708	14404
920.818	14290
920.928	14221
921.038	14404
921.148	14404
921.258	14062
921.368	13997
921.477	13928
921.587	13852
921.697	13765
921.806	13936
921.916	13750
922.025	13594
922.134	13510
922.244	13537
922.353	13571
922.462	13468
922.571	13426
922.68	13308
922.789	13213
922.898	13259
923.007	13126
923.116	13236
923.224	13175
923.333	13213
923.442	13072
923.55	13019
923.659	13126
923.767	13061
923.876	12973
923.984	13065
924.092	12981
924.201	12977
924.309	12962
924.417	13053
924.525	12886
924.633	12924
924.741	13830
924.849	12642
924.956	12764
925.064	12646
925.172	12662
925.279	12631
925.387	12688
925.494	12604
925.602	12753
925.709	12673
925.816	12612
925.924	12608
926.031	12764
926.138	12559
926.245	12646
926.352	12479
926.459	12646
926.566	12669
926.673	12544
926.779	12456
926.886	12429
926.993	12216
927.099	12220
927.206	12148
927.312	12175
927.419	12167
927.525	12220
927.631	12239
927.737	12087
927.843	12030
927.95	11946
928.056	11996
928.162	12049
928.267	12106
928.373	12703
928.479	12125
928.585	11893
928.69	12030
928.796	11931
928.901	11866
929.007	11767
929.112	11912
929.218	11863
929.323	11756
929.428	11779
929.533	11931
929.638	11649
929.743	11737
929.848	11802
929.953	11729
930.058	11672
930.163	11486
930.267	11478
930.372	11695
930.477	11425
930.581	11703
930.685	11505
930.79	11452
930.894	11471
930.998	11360
931.103	11448
931.207	11128
931.311	11010
931.415	10938
931.519	10797
931.623	10771
