Data from test_V78500241_2517.txt Node
Date: Fri Mar 25 15:59:14 CST 2022
User: usil
Spectrometer: V785-0024
Trigger mode: 0
Integration Time (sec): 4.000000E-1
Scans to average: 1
Nonlinearity correction enabled: false
Boxcar width: 0
Storing dark spectrum: false
XAxis mode: Wavelengths
Number of Pixels in Spectrum: 1024
>>>>>Begin Spectral Data<<<<<
801.071	28850
801.214	28778
801.356	28466
801.499	28523
801.641	28390
801.783	28295
801.926	28546
802.068	28223
802.211	28147
802.353	28371
802.496	28044
802.638	28090
802.78	28040
802.923	27895
803.065	27983
803.208	27956
803.35	28070
803.492	28124
803.635	28409
803.777	28257
803.919	28303
804.061	28702
804.204	28348
804.346	28223
804.488	28242
804.63	28181
804.773	28287
804.915	28188
805.057	28398
805.199	28352
805.341	28341
805.483	28588
805.626	28466
805.768	28424
805.91	28459
806.052	28363
806.194	28344
806.336	28485
806.478	28470
806.62	28459
806.762	28489
806.904	28774
807.046	29056
807.188	28953
807.33	28771
807.472	28961
807.614	28881
807.756	28782
807.898	28847
808.04	28679
808.182	28672
808.324	28824
808.465	28862
808.607	28995
808.749	29128
808.891	29311
809.033	29277
809.174	29242
809.316	29132
809.458	29056
809.6	29071
809.741	29212
809.883	29379
810.025	29482
810.166	29383
810.308	29364
810.45	29311
810.591	29277
810.733	29204
810.875	29147
811.016	29060
811.158	29037
811.299	29337
811.441	29261
811.582	29204
811.724	29159
811.865	28927
812.007	29105
812.148	29109
812.29	29239
812.431	29273
812.573	29531
812.714	29710
812.855	29729
812.997	29665
813.138	29878
813.279	29726
813.421	29459
813.562	29634
813.703	29497
813.845	29387
813.986	29162
814.127	28949
814.268	28900
814.41	28938
814.551	28744
814.692	28919
814.833	28702
814.974	28759
815.115	28809
815.256	28691
815.397	28771
815.539	28656
815.68	28660
815.821	28634
815.962	28721
816.103	28645
816.244	28535
816.385	28462
816.526	28447
816.666	28360
816.807	28158
816.948	28287
817.089	28272
817.23	28192
817.371	28185
817.512	28242
817.653	28131
817.793	28006
817.934	28021
818.075	28200
818.216	28074
818.356	28063
818.497	27979
818.638	27865
818.778	27918
818.919	27949
819.06	28048
819.2	28029
819.341	28120
819.481	28242
819.622	28474
819.762	28481
819.903	28474
820.043	28360
820.184	28348
820.324	28394
820.465	28318
820.605	28344
820.746	28360
820.886	28265
821.026	28287
821.167	28325
821.307	28211
821.447	28177
821.588	28112
821.728	27979
821.868	27911
822.008	27732
822.149	27724
822.289	27720
822.429	27389
822.569	27408
822.709	27386
822.849	27188
822.99	27123
823.13	27100
823.27	27142
823.41	27047
823.55	26998
823.69	27058
823.83	26994
823.97	26872
824.11	26845
824.25	26845
824.389	26754
824.529	26948
824.669	26689
824.809	27017
824.949	26971
825.089	26929
825.228	26845
825.368	26640
825.508	26602
825.648	26670
825.787	26724
825.927	26834
826.067	26705
826.206	26606
826.346	26708
826.485	26895
826.625	26838
826.765	26735
826.904	26731
827.044	26492
827.183	26476
827.323	26427
827.462	26476
827.601	26522
827.741	26434
827.88	26355
828.02	26271
828.159	26408
828.298	26370
828.437	26492
828.577	26533
828.716	26549
828.855	26259
828.994	26233
829.134	26100
829.273	26176
829.412	26065
829.551	26145
829.69	26103
829.829	26073
829.968	26126
830.107	26176
830.246	26138
830.385	26001
830.524	25970
830.663	26016
830.802	25883
830.941	25632
831.08	25731
831.219	25780
831.357	25890
831.496	25826
831.635	25727
831.774	25685
831.913	25529
832.051	25362
832.19	25419
832.329	25594
832.467	25445
832.606	25263
832.744	25381
832.883	25278
833.022	25346
833.16	25373
833.299	25274
833.437	25495
833.576	25384
833.714	25388
833.852	25479
833.991	25453
834.129	25419
834.267	25575
834.406	25327
834.544	25392
834.682	25521
834.821	25411
834.959	25563
835.097	25407
835.235	25430
835.373	25335
835.511	25438
835.65	25358
835.788	25175
835.926	25110
836.064	24970
836.202	25072
836.34	25247
836.478	25331
836.615	25236
836.753	25217
836.891	25392
837.029	25259
837.167	25148
837.305	25209
837.443	25129
837.58	25038
837.718	25213
837.856	25187
837.993	24977
838.131	25012
838.269	24989
838.406	25091
838.544	24871
838.681	24810
838.819	24707
838.956	24593
839.094	24585
839.231	24661
839.369	24654
839.506	24966
839.643	24741
839.781	24528
839.918	24570
840.055	24540
840.193	24471
840.33	24517
840.467	24391
840.604	24502
840.742	24768
840.879	24308
841.016	24490
841.153	24407
841.29	24612
841.427	24422
841.564	24479
841.701	24388
841.838	24357
841.975	24384
842.112	24243
842.249	24418
842.385	24205
842.522	24403
842.659	24205
842.796	24251
842.933	24117
843.069	24148
843.206	24068
843.343	24178
843.479	24350
843.616	24289
843.752	24038
843.889	24076
844.025	24095
844.162	24117
844.298	24114
844.435	23988
844.571	23977
844.708	23935
844.844	24087
844.98	24038
845.117	23977
845.253	23977
845.389	23786
845.525	23939
845.661	23874
845.798	23676
845.934	23855
846.07	23798
846.206	23805
846.342	23885
846.478	23638
846.614	23505
846.75	23265
846.886	23501
847.022	23577
847.158	23459
847.294	23490
847.429	23455
847.565	23395
847.701	23646
847.837	23227
847.972	23113
848.108	23273
848.244	23124
848.379	23098
848.515	22938
848.65	22957
848.786	23022
848.921	23121
849.057	23204
849.192	23178
849.328	23064
849.463	23056
849.598	22972
849.734	22911
849.869	22923
850.004	22858
850.14	22755
850.275	22858
850.41	22603
850.545	22721
850.68	22797
850.815	22866
850.95	22889
851.085	22949
851.22	22873
851.355	22866
851.49	22824
851.625	22812
851.76	22771
851.895	22694
852.03	22702
852.165	22831
852.299	22953
852.434	22858
852.569	22793
852.703	22736
852.838	22850
852.973	22930
853.107	23037
853.242	22683
853.376	22561
853.511	22588
853.645	22554
853.78	22618
853.914	22599
854.048	22679
854.183	22599
854.317	22569
854.451	22824
854.585	22725
854.72	22615
854.854	22649
854.988	22523
855.122	22519
855.256	22508
855.39	22599
855.524	22615
855.658	22675
855.792	22599
855.926	22672
856.06	22500
856.194	22660
856.327	22611
856.461	22489
856.595	22512
856.729	22603
856.862	22736
856.996	22668
857.13	22755
857.263	22611
857.397	22634
857.53	22683
857.664	22740
857.797	22706
857.931	22611
858.064	22596
858.197	22744
858.331	22504
858.464	22538
858.597	22542
858.731	22519
858.864	22542
858.997	22500
859.13	22702
859.263	22656
859.396	22675
859.529	22584
859.662	22512
859.795	22580
859.928	22603
860.061	22733
860.194	22858
860.327	22759
860.46	22607
860.592	22755
860.725	22778
860.858	22725
860.99	22641
861.123	22565
861.256	22436
861.388	22519
861.521	23292
861.653	22611
861.786	22390
861.918	22363
862.05	22470
862.183	22489
862.315	22557
862.447	22440
862.58	22519
862.712	22276
862.844	22219
862.976	22276
863.108	22329
863.24	22713
863.372	22318
863.504	22295
863.636	22295
863.768	22367
863.9	22344
864.032	22295
864.164	22226
864.296	22360
864.428	22379
864.559	22360
864.691	22413
864.823	22352
864.954	22280
865.086	22226
865.217	22230
865.349	22074
865.48	22173
865.612	22101
865.743	22261
865.875	22249
866.006	22219
866.137	22185
866.269	22230
866.4	22078
866.531	22261
866.662	22074
866.793	22177
866.924	21991
867.055	22070
867.186	22101
867.317	22116
867.448	22112
867.579	21941
867.71	22101
867.841	22116
867.972	22074
868.103	22086
868.233	22093
868.364	22150
868.495	22128
868.625	22455
868.756	22466
868.886	22246
869.017	22386
869.147	22470
869.278	22394
869.408	22291
869.539	22360
869.669	22504
869.799	22341
869.929	22516
870.06	22485
870.19	22634
870.32	22535
870.45	22656
870.58	22660
870.71	22984
870.84	22873
870.97	22687
871.1	22873
871.23	23010
871.36	22938
871.489	22816
871.619	22930
871.749	22889
871.879	23025
872.008	23124
872.138	23025
872.267	22938
872.397	22809
872.526	22778
872.656	22706
872.785	22759
872.915	22923
873.044	23056
873.173	22908
873.303	22847
873.432	23006
873.561	23140
873.69	23117
873.819	22946
873.948	22980
874.077	22991
874.206	22889
874.335	23124
874.464	23109
874.593	23242
874.722	23098
874.851	23200
874.979	23212
875.108	23273
875.237	23128
875.365	23010
875.494	23155
875.623	23223
875.751	23086
875.88	23071
876.008	23220
876.136	23444
876.265	23600
876.393	23722
876.521	23790
876.65	23642
876.778	23509
876.906	23520
877.034	23558
877.162	23566
877.29	23391
877.418	23463
877.546	23516
877.674	23410
877.802	23570
877.93	23471
878.058	23436
878.185	23387
878.313	23501
878.441	23554
878.568	23315
878.696	23387
878.824	23459
878.951	23672
879.079	23729
879.206	23672
879.333	23714
879.461	23547
879.588	23661
879.715	23687
879.842	23752
879.97	23566
880.097	23349
880.224	23299
880.351	23311
880.478	23440
880.605	23337
880.732	23406
880.859	23577
880.986	23318
881.112	23277
881.239	23143
881.366	23060
881.493	23037
881.619	22896
881.746	22873
881.872	23025
881.999	22972
882.125	22812
882.252	23029
882.378	23044
882.505	22980
882.631	22698
882.757	22550
882.883	22759
883.01	22516
883.136	22538
883.262	22424
883.388	22489
883.514	22656
883.64	22500
883.766	22409
883.892	22249
884.018	22318
884.143	22371
884.269	22634
884.395	22322
884.52	22120
884.646	22188
884.772	22131
884.897	22177
885.023	22230
885.148	22337
885.274	22424
885.399	22196
885.524	22207
885.65	22249
885.775	22284
885.9	22234
886.025	22314
886.15	22223
886.275	22287
886.4	22173
886.525	22143
886.65	22192
886.775	22036
886.9	22333
887.025	22363
887.149	22253
887.274	21926
887.399	22021
887.523	22048
887.648	21895
887.773	21873
887.897	22063
888.021	21926
888.146	21934
888.27	22048
888.395	22006
888.519	21922
888.643	21968
888.767	21945
888.891	22013
889.015	21823
889.139	21717
889.263	21823
889.387	21861
889.511	21972
889.635	21895
889.759	21766
889.883	21675
890.006	21827
890.13	21816
890.254	21660
890.377	21747
890.501	21526
890.624	21473
890.748	21496
890.871	21359
890.995	21241
891.118	21226
891.241	21291
891.364	21306
891.488	21412
891.611	21268
891.734	21340
891.857	21214
891.98	21294
892.103	21321
892.226	21313
892.349	21272
892.471	21108
892.594	21241
892.717	21195
892.839	21272
892.962	21154
893.085	21294
893.207	21306
893.33	21066
893.452	21032
893.575	21268
893.697	21180
893.819	21405
893.941	21344
894.064	21412
894.186	21112
894.308	21135
894.43	21230
894.552	21241
894.674	21241
894.796	21131
894.918	21150
895.04	21116
895.161	21233
895.283	21123
895.405	21138
895.526	21363
895.648	21154
895.769	21089
895.891	21275
896.012	21291
896.134	21157
896.255	21165
896.376	21093
896.498	21207
896.619	21138
896.74	21085
896.861	21036
896.982	21504
897.103	21622
897.224	21454
897.345	21363
897.466	21306
897.587	21424
897.708	21492
897.828	21317
897.949	21321
898.07	21256
898.19	21260
898.311	21374
898.431	21176
898.552	21359
898.672	21507
898.792	21317
898.913	21310
899.033	21268
899.153	21154
899.273	21077
899.393	21001
899.513	21138
899.633	21108
899.753	21135
899.873	21009
899.993	21055
900.113	21058
900.232	20963
900.352	21043
900.472	20944
900.591	20804
900.711	20952
900.83	20727
900.95	20952
901.069	20967
901.189	20682
901.308	20450
901.427	20332
901.546	20404
901.665	20431
901.784	20393
901.904	20347
902.023	20218
902.141	20001
902.26	19849
902.379	20046
902.498	19932
902.617	20020
902.735	19890
902.854	19818
902.973	19890
903.091	19635
903.21	19563
903.328	19651
903.446	19502
903.565	19430
903.683	19339
903.801	19346
903.919	19400
904.038	19316
904.156	19118
904.274	19247
904.392	19107
904.51	19061
904.627	19042
904.745	19194
904.863	19160
904.981	18981
905.098	18863
905.216	18696
905.334	18817
905.451	18890
905.569	18734
905.686	18901
905.803	18745
905.921	18460
906.038	18722
906.155	18642
906.272	18414
906.389	18445
906.506	18350
906.623	18270
906.74	18232
906.857	18327
906.974	18197
907.091	18304
907.208	18559
907.324	18315
907.441	18319
907.557	18136
907.674	17999
907.79	17969
907.907	18049
908.023	17935
908.139	17980
908.256	17999
908.372	17901
908.488	17882
908.604	17783
908.72	17703
908.836	17764
908.952	17722
909.068	17805
909.184	17847
909.3	17653
909.415	17802
909.531	17817
909.647	17452
909.762	17440
909.878	17383
909.993	17512
910.108	17341
910.224	17356
910.339	17307
910.454	17277
910.57	17303
910.685	17166
910.8	17341
910.915	17379
911.03	17220
911.145	17064
911.259	17064
911.374	17048
911.489	16957
911.604	16953
911.718	16748
911.833	16721
911.947	16649
912.062	16516
912.176	16713
912.291	16782
912.405	16839
912.519	16877
912.633	16965
912.748	16710
912.862	16713
912.976	16592
913.09	16451
913.204	16542
913.318	16519
913.431	16691
913.545	16573
913.659	16752
913.772	16569
913.886	16402
914	16341
914.113	16455
914.226	16436
914.34	16443
914.453	16207
914.566	16363
914.68	16234
914.793	16249
914.906	16051
915.019	15945
915.132	15899
915.245	15930
915.358	15926
915.47	15964
915.583	15934
915.696	15941
915.809	16051
915.921	16048
916.034	15915
916.146	15743
916.259	15819
916.371	15907
916.483	15827
916.595	15717
916.708	15751
916.82	15819
916.932	15709
917.044	15759
917.156	15743
917.268	15526
917.38	15663
917.491	15534
917.603	15549
917.715	15701
917.826	15595
917.938	15549
918.049	15401
918.161	15416
918.272	15584
918.384	15584
918.495	15447
918.606	15370
918.717	15348
918.828	15374
918.939	15336
919.05	15195
919.161	15340
919.272	15112
919.383	15127
919.494	15287
919.604	15485
919.715	15260
919.826	15245
919.936	15203
920.047	15344
920.157	15294
920.267	15447
920.378	15264
920.488	15291
920.598	15439
920.708	15500
920.818	15439
920.928	15367
921.038	15610
921.148	15530
921.258	15230
921.368	15161
921.477	14990
921.587	15001
921.697	14868
921.806	14944
921.916	14804
922.025	14746
922.134	14598
922.244	14651
922.353	14693
922.462	14469
922.571	14419
922.68	14237
922.789	14225
922.898	14267
923.007	14233
923.116	14381
923.224	14263
923.333	14244
923.442	14164
923.55	14161
923.659	14073
923.767	14172
923.876	14115
923.984	14142
924.092	14012
924.201	14008
924.309	14001
924.417	13978
924.525	13845
924.633	13845
924.741	14701
924.849	13715
924.956	13833
925.064	13750
925.172	13586
925.279	13738
925.387	13655
925.494	13639
925.602	13696
925.709	13704
925.816	13525
925.924	13624
926.031	13685
926.138	13567
926.245	13647
926.352	13514
926.459	13700
926.566	13651
926.673	13499
926.779	13346
926.886	13400
926.993	13247
927.099	13266
927.206	13194
927.312	13069
927.419	13240
927.525	13297
927.631	13122
927.737	13126
927.843	13019
927.95	12863
928.056	12981
928.162	13076
928.267	13065
928.373	13616
928.479	13050
928.585	12772
928.69	12966
928.796	12989
928.901	12802
929.007	12745
929.112	12935
929.218	12833
929.323	12772
929.428	12696
929.533	12810
929.638	12582
929.743	12684
929.848	12582
929.953	12707
930.058	12509
930.163	12372
930.267	12410
930.372	12460
930.477	12315
930.581	12563
930.685	12403
930.79	12262
930.894	12334
930.998	12194
931.103	12395
931.207	11980
931.311	11927
931.415	11805
931.519	11737
931.623	11672
