Data from test_V78500241_1336.txt Node
Date: Fri Mar 25 15:51:03 CST 2022
User: usil
Spectrometer: V785-0024
Trigger mode: 0
Integration Time (sec): 4.000000E-1
Scans to average: 1
Nonlinearity correction enabled: false
Boxcar width: 0
Storing dark spectrum: false
XAxis mode: Wavelengths
Number of Pixels in Spectrum: 1024
>>>>>Begin Spectral Data<<<<<
801.071	27884
801.214	27937
801.356	27614
801.499	27599
801.641	27545
801.783	27538
801.926	27431
802.068	27351
802.211	27313
802.353	27252
802.496	27150
802.638	27230
802.78	27135
802.923	27249
803.065	27009
803.208	26918
803.35	27066
803.492	27237
803.635	27214
803.777	27070
803.919	27435
804.061	27549
804.204	27447
804.346	27241
804.488	27218
804.63	27332
804.773	27108
804.915	27192
805.057	27443
805.199	27325
805.341	27389
805.483	27492
805.626	27542
805.768	27226
805.91	27378
806.052	27431
806.194	27367
806.336	27526
806.478	27405
806.62	27367
806.762	27507
806.904	27739
807.046	27873
807.188	27861
807.33	27937
807.472	27987
807.614	27880
807.756	27759
807.898	27717
808.04	27599
808.182	27641
808.324	27755
808.465	27895
808.607	27926
808.749	28086
808.891	28139
809.033	28272
809.174	28124
809.316	28101
809.458	28188
809.6	27918
809.741	28200
809.883	28124
810.025	28371
810.166	28249
810.308	28390
810.45	28299
810.591	28314
810.733	28128
810.875	28185
811.016	27998
811.158	27907
811.299	28070
811.441	28234
811.582	28051
811.724	28131
811.865	28063
812.007	27884
812.148	28067
812.29	28185
812.431	28120
812.573	28382
812.714	28398
812.855	28470
812.997	28588
813.138	28622
813.279	28752
813.421	28596
813.562	28512
813.703	28424
813.845	28135
813.986	28017
814.127	27880
814.268	27747
814.41	27778
814.551	27701
814.692	27778
814.833	27633
814.974	27770
815.115	27892
815.256	27663
815.397	27595
815.539	27698
815.68	27473
815.821	27511
815.962	27557
816.103	27629
816.244	27321
816.385	27321
816.526	27256
816.666	27214
816.807	27047
816.948	27100
817.089	27176
817.23	26975
817.371	27108
817.512	27089
817.653	26876
817.793	27161
817.934	27100
818.075	27066
818.216	27051
818.356	26937
818.497	26979
818.638	26785
818.778	26823
818.919	26986
819.06	26788
819.2	26838
819.341	26914
819.481	27077
819.622	27199
819.762	27431
819.903	27188
820.043	27218
820.184	27256
820.324	27142
820.465	27157
820.605	27268
820.746	27070
820.886	27081
821.026	27119
821.167	26979
821.307	27252
821.447	26902
821.588	26933
821.728	26804
821.868	26659
822.008	26602
822.149	26476
822.289	26499
822.429	26347
822.569	26309
822.709	26115
822.849	26084
822.99	26054
823.13	25974
823.27	26020
823.41	25849
823.55	25704
823.69	25879
823.83	25902
823.97	25852
824.11	25693
824.25	25533
824.389	25537
824.529	25799
824.669	25666
824.809	25723
824.949	25780
825.089	25696
825.228	25685
825.368	25597
825.508	25643
825.648	25586
825.787	25525
825.927	25487
826.067	25537
826.206	25400
826.346	25521
826.485	25525
826.625	25514
826.765	25655
826.904	25556
827.044	25373
827.183	25316
827.323	25324
827.462	25221
827.601	25209
827.741	25095
827.88	25304
828.02	24886
828.159	25236
828.298	25426
828.437	25217
828.577	25152
828.716	25335
828.855	25065
828.994	25023
829.134	24856
829.273	24989
829.412	24875
829.551	24871
829.69	24894
829.829	24992
829.968	25034
830.107	24962
830.246	24966
830.385	24928
830.524	24817
830.663	24745
830.802	24593
830.941	24585
831.08	24483
831.219	24734
831.357	24551
831.496	24696
831.635	24399
831.774	24547
831.913	24467
832.051	24365
832.19	24353
832.329	24319
832.467	24254
832.606	24167
832.744	24209
832.883	24216
833.022	24140
833.16	24155
833.299	24213
833.437	24201
833.576	24243
833.714	24384
833.852	24254
833.991	24353
834.129	24441
834.267	24308
834.406	24266
834.544	24209
834.682	24129
834.821	24235
834.959	24403
835.097	24163
835.235	24254
835.373	24186
835.511	24167
835.65	24072
835.788	24060
835.926	24007
836.064	23950
836.202	23954
836.34	24098
836.478	24148
836.615	24034
836.753	24136
836.891	24239
837.029	24057
837.167	23996
837.305	24007
837.443	24034
837.58	23870
837.718	23961
837.856	23885
837.993	23885
838.131	23927
838.269	23680
838.406	23802
838.544	23779
838.681	23535
838.819	23615
838.956	23444
839.094	23459
839.231	23455
839.369	23695
839.506	23790
839.643	23646
839.781	23322
839.918	23364
840.055	23417
840.193	23421
840.33	23455
840.467	23322
840.604	23353
840.742	23531
840.879	23311
841.016	23204
841.153	23368
841.29	23406
841.427	23200
841.564	23474
841.701	23345
841.838	23250
841.975	23356
842.112	23208
842.249	23147
842.385	23143
842.522	23288
842.659	23147
842.796	23029
842.933	23094
843.069	23216
843.206	22873
843.343	23083
843.479	23067
843.616	23208
843.752	22820
843.889	22900
844.025	22972
844.162	22812
844.298	22915
844.435	22831
844.571	22877
844.708	22816
844.844	23067
844.98	22911
845.117	22965
845.253	22816
845.389	22805
845.525	22687
845.661	22698
845.798	22656
845.934	22637
846.07	22493
846.206	22584
846.342	22729
846.478	22580
846.614	22363
846.75	22207
846.886	22249
847.022	22394
847.158	22341
847.294	22253
847.429	22348
847.565	22333
847.701	22527
847.837	22173
847.972	22070
848.108	22135
848.244	22090
848.379	21956
848.515	21861
848.65	21987
848.786	21884
848.921	21907
849.057	21915
849.192	21953
849.328	21960
849.463	22032
849.598	21911
849.734	21785
849.869	21857
850.004	21709
850.14	21682
850.275	21789
850.41	21648
850.545	21618
850.68	21705
850.815	21694
850.95	21701
851.085	21907
851.22	21865
851.355	21694
851.49	21739
851.625	21660
851.76	21591
851.895	21492
852.03	21580
852.165	21827
852.299	21770
852.434	21778
852.569	21720
852.703	21679
852.838	21812
852.973	21778
853.107	21793
853.242	21648
853.376	21561
853.511	21431
853.645	21545
853.78	21583
853.914	21515
854.048	21408
854.183	21458
854.317	21511
854.451	21732
854.585	21534
854.72	21564
854.854	21633
854.988	21332
855.122	21443
855.256	21428
855.39	21477
855.524	21450
855.658	21405
855.792	21553
855.926	21492
856.06	21564
856.194	21618
856.327	21557
856.461	21481
856.595	21443
856.729	21428
856.862	21553
856.996	21397
857.13	21606
857.263	21648
857.397	21526
857.53	21504
857.664	21622
857.797	21606
857.931	21629
858.064	21561
858.197	21553
858.331	21526
858.464	21466
858.597	21374
858.731	21492
858.864	21431
858.997	21408
859.13	21511
859.263	21367
859.396	21625
859.529	21576
859.662	21454
859.795	21420
859.928	21477
860.061	21671
860.194	21667
860.327	21603
860.46	21515
860.592	21603
860.725	21690
860.858	21587
860.99	21439
861.123	21275
861.256	21363
861.388	21549
861.521	22226
861.653	21294
861.786	21272
861.918	21367
862.05	21351
862.183	21500
862.315	21466
862.447	21469
862.58	21458
862.712	21214
862.844	21146
862.976	21287
863.108	21176
863.24	21641
863.372	21142
863.504	21157
863.636	21214
863.768	21180
863.9	21165
864.032	21081
864.164	21176
864.296	21138
864.428	21317
864.559	21237
864.691	21157
864.823	21256
864.954	21188
865.086	21119
865.217	21127
865.349	21116
865.48	20986
865.612	21104
865.743	21214
865.875	21066
866.006	21104
866.137	21192
866.269	21135
866.4	21085
866.531	21039
866.662	20937
866.793	20956
866.924	20979
867.055	21077
867.186	21169
867.317	21028
867.448	20929
867.579	20956
867.71	20944
867.841	21100
867.972	20998
868.103	21017
868.233	20990
868.364	20918
868.495	21192
868.625	21252
868.756	21405
868.886	21214
869.017	21382
869.147	21393
869.278	21332
869.408	21393
869.539	21245
869.669	21443
869.799	21306
869.929	21363
870.06	21332
870.19	21561
870.32	21637
870.45	21667
870.58	21717
870.71	21759
870.84	21644
870.97	21542
871.1	21587
871.23	22010
871.36	21800
871.489	21800
871.619	21869
871.749	21869
871.879	21895
872.008	21968
872.138	21945
872.267	21781
872.397	21751
872.526	21755
872.656	21644
872.785	21694
872.915	21850
873.044	21892
873.173	21880
873.303	21911
873.432	21975
873.561	21949
873.69	21930
873.819	21789
873.948	22025
874.077	21941
874.206	21778
874.335	21892
874.464	22044
874.593	22181
874.722	22074
874.851	22207
874.979	22150
875.108	22181
875.237	22029
875.365	22010
875.494	22169
875.623	22226
875.751	22120
875.88	22154
876.008	22215
876.136	22344
876.265	22557
876.393	22649
876.521	22550
876.65	22569
876.778	22615
876.906	22569
877.034	22421
877.162	22421
877.29	22493
877.418	22561
877.546	22390
877.674	22466
877.802	22451
877.93	22443
878.058	22512
878.185	22272
878.313	22405
878.441	22421
878.568	22192
878.696	22470
878.824	22428
878.951	22573
879.079	22584
879.206	22755
879.333	22660
879.461	22550
879.588	22634
879.715	22668
879.842	22809
879.97	22603
880.097	22314
880.224	22215
880.351	22337
880.478	22428
880.605	22337
880.732	22360
880.859	22557
880.986	22382
881.112	22246
881.239	22101
881.366	22124
881.493	21823
881.619	21842
881.746	22002
881.872	21884
881.999	21827
882.125	21838
882.252	21857
882.378	21842
882.505	21960
882.631	21728
882.757	21447
882.883	21675
883.01	21580
883.136	21428
883.262	21355
883.388	21412
883.514	21622
883.64	21587
883.766	21561
883.892	21317
884.018	21428
884.143	21466
884.269	21519
884.395	21230
884.52	21146
884.646	21195
884.772	21165
884.897	21119
885.023	21214
885.148	21317
885.274	21298
885.399	21230
885.524	21096
885.65	21093
885.775	21249
885.9	21211
886.025	21241
886.15	21180
886.275	21245
886.4	21085
886.525	21157
886.65	21047
886.775	21211
886.9	21203
887.025	21424
887.149	21138
887.274	21005
887.399	20929
887.523	20899
887.648	20918
887.773	20845
887.897	21036
888.021	21017
888.146	21051
888.27	21001
888.395	21077
888.519	21062
888.643	20914
888.767	21005
888.891	20857
889.015	20811
889.139	20872
889.263	20746
889.387	20914
889.511	20914
889.635	20880
889.759	20758
889.883	20594
890.006	20720
890.13	20712
890.254	20507
890.377	20632
890.501	20632
890.624	20427
890.748	20526
890.871	20438
890.995	20332
891.118	20267
891.241	20381
891.364	20301
891.488	20442
891.611	20355
891.734	20339
891.857	20389
891.98	20362
892.103	20298
892.226	20206
892.349	20252
892.471	20275
892.594	20229
892.717	20294
892.839	20301
892.962	20259
893.085	20332
893.207	20263
893.33	20065
893.452	20195
893.575	20309
893.697	20145
893.819	20374
893.941	20324
894.064	20332
894.186	20195
894.308	20008
894.43	20263
894.552	20457
894.674	20294
894.796	20077
894.918	20172
895.04	20062
895.161	20320
895.283	20351
895.405	20138
895.526	20248
895.648	20195
895.769	20286
895.891	20275
896.012	20366
896.134	20286
896.255	20336
896.376	20130
896.498	20282
896.619	20248
896.74	20191
896.861	20301
896.982	20590
897.103	20716
897.224	20556
897.345	20355
897.466	20427
897.587	20450
897.708	20495
897.828	20526
897.949	20313
898.07	20305
898.19	20324
898.311	20583
898.431	20511
898.552	20499
898.672	20450
898.792	20560
898.913	20454
899.033	20351
899.153	20336
899.273	20225
899.393	20286
899.513	20259
899.633	20275
899.753	20240
899.873	20107
899.993	20240
900.113	20145
900.232	20164
900.352	20122
900.472	20111
900.591	19925
900.711	19967
900.83	19993
900.95	20164
901.069	20031
901.189	19959
901.308	19700
901.427	19563
901.546	19544
901.665	19628
901.784	19643
901.904	19388
902.023	19445
902.141	19183
902.26	19012
902.379	19084
902.498	18962
902.617	19019
902.735	19034
902.854	19027
902.973	18985
903.091	18757
903.21	18692
903.328	18692
903.446	18673
903.565	18642
903.683	18422
903.801	18479
903.919	18540
904.038	18414
904.156	18251
904.274	18346
904.392	18327
904.51	18155
904.627	18300
904.745	18380
904.863	18388
904.981	18098
905.098	17973
905.216	17999
905.334	18041
905.451	17939
905.569	17939
905.686	18038
905.803	17977
905.921	17752
906.038	17939
906.155	17813
906.272	17676
906.389	17710
906.506	17467
906.623	17611
906.74	17512
906.857	17467
906.974	17455
907.091	17486
907.208	17634
907.324	17592
907.441	17398
907.557	17372
907.674	17250
907.79	17292
907.907	17185
908.023	17136
908.139	17170
908.256	17147
908.372	17151
908.488	17151
908.604	17056
908.72	16972
908.836	16927
908.952	16915
909.068	16934
909.184	16965
909.3	16934
909.415	17003
909.531	16892
909.647	16694
909.762	16626
909.878	16634
909.993	16641
910.108	16683
910.224	16599
910.339	16630
910.454	16470
910.57	16546
910.685	16489
910.8	16679
910.915	16569
911.03	16413
911.145	16268
911.259	16135
911.374	16284
911.489	16211
911.604	16143
911.718	15998
911.833	15964
911.947	15922
912.062	15854
912.176	16074
912.291	16055
912.405	15983
912.519	16188
912.633	16173
912.748	16040
912.862	15949
912.976	15785
913.09	15701
913.204	15728
913.318	15838
913.431	15934
913.545	15899
913.659	15953
913.772	15751
913.886	15686
914	15618
914.113	15671
914.226	15732
914.34	15595
914.453	15511
914.566	15644
914.68	15424
914.793	15492
914.906	15306
915.019	15279
915.132	15192
915.245	15157
915.358	15275
915.47	15093
915.583	15154
915.696	15237
915.809	15241
915.921	15294
916.034	15146
916.146	15222
916.259	15203
916.371	15237
916.483	15150
916.595	15013
916.708	15028
916.82	15089
916.932	15028
917.044	14994
917.156	14918
917.268	14807
917.38	14876
917.491	14781
917.603	14796
917.715	14952
917.826	14849
917.938	14739
918.049	14769
918.161	14804
918.272	14982
918.384	14918
918.495	14769
918.606	14705
918.717	14583
918.828	14625
918.939	14667
919.05	14507
919.161	14602
919.272	14343
919.383	14507
919.494	14663
919.604	14830
919.715	14415
919.826	14518
919.936	14522
920.047	14594
920.157	14568
920.267	14735
920.378	14610
920.488	14473
920.598	14765
920.708	14853
920.818	14724
920.928	14727
921.038	14826
921.148	14796
921.258	14526
921.368	14461
921.477	14252
921.587	14286
921.697	14183
921.806	14332
921.916	14183
922.025	13947
922.134	13989
922.244	13871
922.353	14012
922.462	13791
922.571	13757
922.68	13571
922.789	13548
922.898	13670
923.007	13575
923.116	13693
923.224	13525
923.333	13521
923.442	13365
923.55	13358
923.659	13373
923.767	13476
923.876	13316
923.984	13457
924.092	13285
924.201	13346
924.309	13362
924.417	13392
924.525	13289
924.633	13255
924.741	14153
924.849	13019
924.956	13171
925.064	13076
925.172	12939
925.279	13008
925.387	13015
925.494	12985
925.602	13088
925.709	13065
925.816	12985
925.924	12951
926.031	13069
926.138	12970
926.245	12966
926.352	12897
926.459	12966
926.566	13069
926.673	12913
926.779	12798
926.886	12749
926.993	12620
927.099	12601
927.206	12513
927.312	12498
927.419	12623
927.525	12559
927.631	12612
927.737	12566
927.843	12429
927.95	12292
928.056	12308
928.162	12418
928.267	12433
928.373	13084
928.479	12490
928.585	12224
928.69	12410
928.796	12380
928.901	12163
929.007	12129
929.112	12247
929.218	12243
929.323	12133
929.428	12091
929.533	12243
929.638	12087
929.743	12117
929.848	12152
929.953	12022
930.058	11999
930.163	11786
930.267	11802
930.372	11954
930.477	11798
930.581	12030
930.685	11882
930.79	11741
930.894	11748
930.998	11699
931.103	11813
931.207	11463
931.311	11345
931.415	11299
931.519	11033
931.623	10965
