Data from test_V78500241_2421.txt Node
Date: Fri Mar 25 15:58:34 CST 2022
User: usil
Spectrometer: V785-0024
Trigger mode: 0
Integration Time (sec): 4.000000E-1
Scans to average: 1
Nonlinearity correction enabled: false
Boxcar width: 0
Storing dark spectrum: false
XAxis mode: Wavelengths
Number of Pixels in Spectrum: 1024
>>>>>Begin Spectral Data<<<<<
801.071	28999
801.214	28717
801.356	28683
801.499	28569
801.641	28478
801.783	28409
801.926	28512
802.068	28341
802.211	28432
802.353	28322
802.496	28230
802.638	28234
802.78	28147
802.923	28048
803.065	28070
803.208	28139
803.35	28078
803.492	28310
803.635	28329
803.777	28276
803.919	28436
804.061	28698
804.204	28432
804.346	28325
804.488	28284
804.63	28367
804.773	28394
804.915	28497
805.057	28489
805.199	28398
805.341	28588
805.483	28656
805.626	28592
805.768	28379
805.91	28660
806.052	28683
806.194	28462
806.336	28687
806.478	28641
806.62	28542
806.762	28892
806.904	28995
807.046	28984
807.188	28885
807.33	29022
807.472	29132
807.614	28980
807.756	28858
807.898	28908
808.04	28911
808.182	28858
808.324	28862
808.465	28930
808.607	29162
808.749	29273
808.891	29288
809.033	29322
809.174	29181
809.316	29212
809.458	29151
809.6	29220
809.741	29284
809.883	29440
810.025	29524
810.166	29687
810.308	29573
810.45	29490
810.591	29520
810.733	29265
810.875	29360
811.016	29208
811.158	29204
811.299	29341
811.441	29429
811.582	29379
811.724	29292
811.865	29258
812.007	29303
812.148	29398
812.29	29417
812.431	29387
812.573	29668
812.714	29695
812.855	29756
812.997	29874
813.138	29920
813.279	29901
813.421	29859
813.562	29893
813.703	29649
813.845	29452
813.986	29235
814.127	29094
814.268	29064
814.41	28904
814.551	28938
814.692	29083
814.833	28915
814.974	28896
815.115	29098
815.256	28923
815.397	28713
815.539	28881
815.68	28847
815.821	28839
815.962	28949
816.103	28717
816.244	28759
816.385	28588
816.526	28611
816.666	28432
816.807	28207
816.948	28291
817.089	28314
817.23	28470
817.371	28375
817.512	28242
817.653	28185
817.793	28230
817.934	28253
818.075	28230
818.216	28455
818.356	28356
818.497	28143
818.638	28013
818.778	27991
818.919	28059
819.06	28090
819.2	28128
819.341	28363
819.481	28367
819.622	28523
819.762	28474
819.903	28538
820.043	28459
820.184	28527
820.324	28382
820.465	28413
820.605	28386
820.746	28428
820.886	28295
821.026	28455
821.167	28432
821.307	28428
821.447	28348
821.588	28261
821.728	28082
821.868	28021
822.008	27797
822.149	27895
822.289	27888
822.429	27553
822.569	27614
822.709	27481
822.849	27275
822.99	27294
823.13	27340
823.27	27279
823.41	27100
823.55	27058
823.69	27089
823.83	27131
823.97	27142
824.11	26948
824.25	26883
824.389	27028
824.529	27009
824.669	26982
824.809	27157
824.949	27001
825.089	27020
825.228	27062
825.368	26872
825.508	26750
825.648	26880
825.787	26967
825.927	26914
826.067	26804
826.206	26853
826.346	26902
826.485	26937
826.625	26830
826.765	27005
826.904	26887
827.044	26773
827.183	26609
827.323	26549
827.462	26594
827.601	26560
827.741	26697
827.88	26609
828.02	26442
828.159	26522
828.298	26640
828.437	26678
828.577	26495
828.716	26579
828.855	26594
828.994	26244
829.134	26298
829.273	26244
829.412	26157
829.551	26126
829.69	26218
829.829	26259
829.968	26362
830.107	26286
830.246	26244
830.385	26210
830.524	26107
830.663	26001
830.802	26035
830.941	25856
831.08	25753
831.219	25879
831.357	25860
831.496	26111
831.635	25940
831.774	25674
831.913	25685
832.051	25674
832.19	25613
832.329	25734
832.467	25563
832.606	25464
832.744	25502
832.883	25575
833.022	25518
833.16	25483
833.299	25658
833.437	25582
833.576	25563
833.714	25499
833.852	25590
833.991	25616
834.129	25689
834.267	25734
834.406	25525
834.544	25556
834.682	25571
834.821	25635
834.959	25708
835.097	25483
835.235	25594
835.373	25594
835.511	25487
835.65	25373
835.788	25377
835.926	25259
836.064	25129
836.202	25225
836.34	25400
836.478	25499
836.615	25274
836.753	25171
836.891	25396
837.029	25449
837.167	25438
837.305	25331
837.443	25236
837.58	25156
837.718	25194
837.856	25168
837.993	25335
838.131	25099
838.269	24924
838.406	25031
838.544	24985
838.681	24916
838.819	24825
838.956	24677
839.094	24665
839.231	24791
839.369	24738
839.506	25080
839.643	24882
839.781	24700
839.918	24677
840.055	24684
840.193	24540
840.33	24563
840.467	24574
840.604	24551
840.742	24901
840.879	24574
841.016	24403
841.153	24407
841.29	24627
841.427	24540
841.564	24612
841.701	24658
841.838	24483
841.975	24433
842.112	24502
842.249	24460
842.385	24441
842.522	24551
842.659	24391
842.796	24254
842.933	24296
843.069	24327
843.206	24308
843.343	24357
843.479	24289
843.616	24369
843.752	24064
843.889	24216
844.025	24251
844.162	24034
844.298	24209
844.435	24171
844.571	24159
844.708	24068
844.844	24277
844.98	24110
845.117	24220
845.253	24022
845.389	23904
845.525	24038
845.661	23988
845.798	23817
845.934	23942
846.07	23737
846.206	23813
846.342	23984
846.478	23817
846.614	23672
846.75	23596
846.886	23573
847.022	23668
847.158	23577
847.294	23509
847.429	23581
847.565	23425
847.701	23802
847.837	23261
847.972	23197
848.108	23524
848.244	23414
848.379	23200
848.515	23204
848.65	23079
848.786	23155
848.921	23208
849.057	23159
849.192	23155
849.328	23140
849.463	23132
849.598	23083
849.734	23018
849.869	22942
850.004	22991
850.14	22957
850.275	22999
850.41	22900
850.545	22820
850.68	22984
850.815	22984
850.95	22930
851.085	23014
851.22	23044
851.355	22881
851.49	22927
851.625	22812
851.76	22923
851.895	22843
852.03	22805
852.165	22930
852.299	23018
852.434	23048
852.569	22999
852.703	22850
852.838	23014
852.973	23098
853.107	23018
853.242	22801
853.376	22767
853.511	22599
853.645	22702
853.78	22725
853.914	22694
854.048	22645
854.183	22706
854.317	22786
854.451	22972
854.585	22774
854.72	22774
854.854	22809
854.988	22668
855.122	22656
855.256	22580
855.39	22786
855.524	22824
855.658	22946
855.792	22797
855.926	22889
856.06	22824
856.194	22721
856.327	22721
856.461	22512
856.595	22748
856.729	22740
856.862	22828
856.996	22687
857.13	22828
857.263	22793
857.397	22809
857.53	22656
857.664	22778
857.797	22740
857.931	22866
858.064	22736
858.197	22847
858.331	22763
858.464	22786
858.597	22622
858.731	22687
858.864	22778
858.997	22793
859.13	22805
859.263	22725
859.396	22839
859.529	22733
859.662	22763
859.795	22767
859.928	22740
860.061	22812
860.194	22904
860.327	22698
860.46	22778
860.592	22767
860.725	22847
860.858	22824
860.99	22809
861.123	22694
861.256	22748
861.388	22717
861.521	23486
861.653	22599
861.786	22603
861.918	22504
862.05	22596
862.183	22706
862.315	22733
862.447	22561
862.58	22569
862.712	22421
862.844	22417
862.976	22577
863.108	22565
863.24	22873
863.372	22360
863.504	22413
863.636	22337
863.768	22599
863.9	22455
864.032	22424
864.164	22348
864.296	22348
864.428	22645
864.559	22462
864.691	22462
864.823	22474
864.954	22394
865.086	22291
865.217	22337
865.349	22272
865.48	22398
865.612	22344
865.743	22436
865.875	22356
866.006	22295
866.137	22352
866.269	22196
866.4	22360
866.531	22268
866.662	22196
866.793	22268
866.924	22314
867.055	22341
867.186	22185
867.317	22101
867.448	22219
867.579	22280
867.71	22215
867.841	22128
867.972	22223
868.103	22207
868.233	22192
868.364	22261
868.495	22238
868.625	22428
868.756	22527
868.886	22413
869.017	22394
869.147	22561
869.278	22516
869.408	22421
869.539	22440
869.669	22599
869.799	22500
869.929	22637
870.06	22573
870.19	22816
870.32	22797
870.45	22835
870.58	22809
870.71	22862
870.84	22980
870.97	22953
871.1	22782
871.23	22946
871.36	22938
871.489	23006
871.619	23117
871.749	23121
871.879	23041
872.008	23162
872.138	23105
872.267	23014
872.397	22934
872.526	22847
872.656	22889
872.785	22946
872.915	23132
873.044	23159
873.173	23102
873.303	23181
873.432	23044
873.561	23242
873.69	23044
873.819	23109
873.948	23189
874.077	23151
874.206	23113
874.335	23105
874.464	23147
874.593	23349
874.722	23189
874.851	23330
874.979	23254
875.108	23395
875.237	23284
875.365	23254
875.494	23322
875.623	23181
875.751	23280
875.88	23433
876.008	23398
876.136	23410
876.265	23707
876.393	23653
876.521	23722
876.65	23737
876.778	23699
876.906	23668
877.034	23531
877.162	23661
877.29	23611
877.418	23604
877.546	23756
877.674	23619
877.802	23642
877.93	23657
878.058	23551
878.185	23452
878.313	23478
878.441	23604
878.568	23345
878.696	23600
878.824	23668
878.951	23752
879.079	23836
879.206	23790
879.333	23843
879.461	23573
879.588	23722
879.715	23824
879.842	23920
879.97	23764
880.097	23474
880.224	23440
880.351	23608
880.478	23421
880.605	23337
880.732	23478
880.859	23649
880.986	23315
881.112	23452
881.239	23334
881.366	23181
881.493	23109
881.619	22965
881.746	23094
881.872	23022
881.999	22987
882.125	22957
882.252	22942
882.378	23025
882.505	23010
882.631	22828
882.757	22694
882.883	22702
883.01	22637
883.136	22607
883.262	22535
883.388	22519
883.514	22588
883.64	22710
883.766	22550
883.892	22436
884.018	22474
884.143	22512
884.269	22755
884.395	22447
884.52	22337
884.646	22424
884.772	22268
884.897	22131
885.023	22246
885.148	22394
885.274	22443
885.399	22531
885.524	22329
885.65	22382
885.775	22341
885.9	22268
886.025	22405
886.15	22356
886.275	22265
886.4	22284
886.525	22242
886.65	22253
886.775	22154
886.9	22402
887.025	22523
887.149	22322
887.274	22109
887.399	22070
887.523	22021
887.648	22017
887.773	22025
887.897	22090
888.021	21987
888.146	21911
888.27	22166
888.395	22063
888.519	22147
888.643	22112
888.767	22143
888.891	21937
889.015	21953
889.139	21972
889.263	21816
889.387	21842
889.511	21934
889.635	21949
889.759	21869
889.883	21850
890.006	21998
890.13	21899
890.254	21785
890.377	21759
890.501	21568
890.624	21458
890.748	21641
890.871	21523
890.995	21462
891.118	21306
891.241	21397
891.364	21416
891.488	21481
891.611	21408
891.734	21378
891.857	21431
891.98	21382
892.103	21477
892.226	21374
892.349	21363
892.471	21176
892.594	21245
892.717	21226
892.839	21275
892.962	21287
893.085	21397
893.207	21199
893.33	21180
893.452	21176
893.575	21370
893.697	21336
893.819	21397
893.941	21447
894.064	21416
894.186	21157
894.308	21199
894.43	21363
894.552	21443
894.674	21378
894.796	21214
894.918	21317
895.04	21203
895.161	21348
895.283	21344
895.405	21184
895.526	21302
895.648	21275
895.769	21279
895.891	21252
896.012	21386
896.134	21226
896.255	21275
896.376	21336
896.498	21237
896.619	21275
896.74	21218
896.861	21370
896.982	21519
897.103	21610
897.224	21553
897.345	21416
897.466	21481
897.587	21542
897.708	21637
897.828	21534
897.949	21405
898.07	21272
898.19	21245
898.311	21500
898.431	21355
898.552	21431
898.672	21428
898.792	21469
898.913	21408
899.033	21287
899.153	21230
899.273	21039
899.393	21184
899.513	21287
899.633	21180
899.753	21173
899.873	21203
899.993	21195
900.113	21222
900.232	21233
900.352	21154
900.472	20948
900.591	20944
900.711	20979
900.83	20887
900.95	21165
901.069	20998
901.189	20819
901.308	20659
901.427	20446
901.546	20400
901.665	20522
901.784	20526
901.904	20488
902.023	20286
902.141	20138
902.26	20088
902.379	20043
902.498	20001
902.617	19890
902.735	20107
902.854	20031
902.973	19860
903.091	19715
903.21	19662
903.328	19696
903.446	19533
903.565	19533
903.683	19449
903.801	19312
903.919	19430
904.038	19411
904.156	19240
904.274	19327
904.392	19240
904.51	19168
904.627	19228
904.745	19217
904.863	19209
904.981	18939
905.098	19000
905.216	18871
905.334	18920
905.451	18852
905.569	18886
905.686	19008
905.803	18901
905.921	18753
906.038	18772
906.155	18612
906.272	18635
906.389	18479
906.506	18448
906.623	18353
906.74	18456
906.857	18254
906.974	18350
907.091	18376
907.208	18597
907.324	18433
907.441	18300
907.557	18213
907.674	18098
907.79	18091
907.907	18068
908.023	18171
908.139	18163
908.256	18022
908.372	18129
908.488	17988
908.604	17897
908.72	17828
908.836	17878
908.952	17817
909.068	17866
909.184	17889
909.3	17805
909.415	17893
909.531	17874
909.647	17615
909.762	17501
909.878	17455
909.993	17471
910.108	17455
910.224	17486
910.339	17421
910.454	17421
910.57	17250
910.685	17315
910.8	17516
910.915	17501
911.03	17258
911.145	17113
911.259	17189
911.374	17121
911.489	16987
911.604	16881
911.718	16900
911.833	16843
911.947	16706
912.062	16736
912.176	16828
912.291	16755
912.405	16847
912.519	17083
912.633	17037
912.748	16953
912.862	16896
912.976	16668
913.09	16497
913.204	16618
913.318	16660
913.431	16801
913.545	16759
913.659	16736
913.772	16489
913.886	16607
914	16375
914.113	16485
914.226	16584
914.34	16443
914.453	16337
914.566	16561
914.68	16394
914.793	16200
914.906	16139
915.019	15994
915.132	15987
915.245	15972
915.358	15998
915.47	16055
915.583	15930
915.696	16002
915.809	16025
915.921	16044
916.034	15865
916.146	15732
916.259	15892
916.371	15892
916.483	15888
916.595	15816
916.708	15762
916.82	15770
916.932	15804
917.044	15793
917.156	15766
917.268	15568
917.38	15652
917.491	15523
917.603	15614
917.715	15660
917.826	15720
917.938	15629
918.049	15481
918.161	15595
918.272	15671
918.384	15705
918.495	15481
918.606	15420
918.717	15367
918.828	15370
918.939	15382
919.05	15249
919.161	15363
919.272	15188
919.383	15294
919.494	15428
919.604	15530
919.715	15336
919.826	15230
919.936	15245
920.047	15313
920.157	15249
920.267	15466
920.378	15264
920.488	15199
920.598	15416
920.708	15633
920.818	15496
920.928	15481
921.038	15572
921.148	15507
921.258	15222
921.368	15142
921.477	14994
921.587	15081
921.697	14906
921.806	15093
921.916	14963
922.025	14739
922.134	14705
922.244	14667
922.353	14731
922.462	14629
922.571	14564
922.68	14374
922.789	14275
922.898	14431
923.007	14248
923.116	14343
923.224	14286
923.333	14320
923.442	14164
923.55	14138
923.659	14149
923.767	14362
923.876	14084
923.984	14210
924.092	14084
924.201	14119
924.309	13982
924.417	14005
924.525	14024
924.633	14001
924.741	14842
924.849	13727
924.956	13875
925.064	13727
925.172	13670
925.279	13685
925.387	13818
925.494	13655
925.602	13780
925.709	13811
925.816	13601
925.924	13674
926.031	13772
926.138	13712
926.245	13655
926.352	13556
926.459	13719
926.566	13662
926.673	13499
926.779	13499
926.886	13392
926.993	13259
927.099	13312
927.206	13190
927.312	13289
927.419	13293
927.525	13293
927.631	13183
927.737	13183
927.843	13034
927.95	13015
928.056	13084
928.162	13069
928.267	13141
928.373	13738
928.479	13183
928.585	12871
928.69	12943
928.796	13023
928.901	12932
929.007	12829
929.112	12932
929.218	12882
929.323	12901
929.428	12844
929.533	12977
929.638	12673
929.743	12772
929.848	12871
929.953	12734
930.058	12517
930.163	12521
930.267	12475
930.372	12585
930.477	12441
930.581	12551
930.685	12502
930.79	12304
930.894	12422
930.998	12270
931.103	12414
931.207	12079
931.311	12038
931.415	11927
931.519	11634
931.623	11630
