Data from test_V78500241_274.txt Node
Date: Fri Mar 25 15:43:41 CST 2022
User: usil
Spectrometer: V785-0024
Trigger mode: 0
Integration Time (sec): 4.000000E-1
Scans to average: 1
Nonlinearity correction enabled: false
Boxcar width: 0
Storing dark spectrum: false
XAxis mode: Wavelengths
Number of Pixels in Spectrum: 1024
>>>>>Begin Spectral Data<<<<<
801.071	29786
801.214	29733
801.356	29649
801.499	29452
801.641	29482
801.783	29493
801.926	29448
802.068	29478
802.211	29246
802.353	29227
802.496	29060
802.638	29197
802.78	29025
802.923	28908
803.065	28881
803.208	29071
803.35	29140
803.492	29170
803.635	29193
803.777	29231
803.919	29315
804.061	29577
804.204	29372
804.346	29193
804.488	29075
804.63	29086
804.773	28995
804.915	29113
805.057	29303
805.199	29121
805.341	29349
805.483	29349
805.626	29318
805.768	29239
805.91	29349
806.052	29368
806.194	29353
806.336	29581
806.478	29410
806.62	29296
806.762	29433
806.904	29653
807.046	29745
807.188	29726
807.33	29745
807.472	29691
807.614	29615
807.756	29657
807.898	29501
808.04	29608
808.182	29455
808.324	29592
808.465	29600
808.607	29653
808.749	29733
808.891	30026
809.033	30129
809.174	30041
809.316	29931
809.458	30087
809.6	29847
809.741	29908
809.883	29950
810.025	30178
810.166	30155
810.308	30243
810.45	30235
810.591	30220
810.733	29988
810.875	29870
811.016	29916
811.158	29828
811.299	30098
811.441	30076
811.582	30155
811.724	29889
811.865	29923
812.007	29920
812.148	29954
812.29	30007
812.431	30213
812.573	30159
812.714	30388
812.855	30407
812.997	30403
813.138	30711
813.279	30601
813.421	30517
813.562	30467
813.703	30155
813.845	30163
813.986	29870
814.127	29710
814.268	29722
814.41	29558
814.551	29653
814.692	29539
814.833	29691
814.974	29554
815.115	29490
815.256	29353
815.397	29444
815.539	29646
815.68	29349
815.821	29334
815.962	29341
816.103	29322
816.244	29136
816.385	29075
816.526	29075
816.666	28927
816.807	28888
816.948	28812
817.089	28976
817.23	28824
817.371	28858
817.512	28877
817.653	28710
817.793	28835
817.934	28942
818.075	28805
818.216	28831
818.356	28573
818.497	28557
818.638	28440
818.778	28527
818.919	28508
819.06	28596
819.2	28569
819.341	28752
819.481	28778
819.622	28843
819.762	29056
819.903	29166
820.043	29098
820.184	29025
820.324	28801
820.465	28774
820.605	28824
820.746	28759
820.886	28683
821.026	28809
821.167	28862
821.307	28854
821.447	28809
821.588	28691
821.728	28493
821.868	28246
822.008	28276
822.149	28196
822.289	28154
822.429	27949
822.569	27816
822.709	27789
822.849	27709
822.99	27728
823.13	27660
823.27	27515
823.41	27469
823.55	27538
823.69	27511
823.83	27408
823.97	27382
824.11	27218
824.25	27169
824.389	27298
824.529	27359
824.669	27214
824.809	27408
824.949	27435
825.089	27370
825.228	27443
825.368	27165
825.508	27203
825.648	27096
825.787	27252
825.927	27127
826.067	26975
826.206	26994
826.346	27032
826.485	27161
826.625	27131
826.765	27214
826.904	27146
827.044	26804
827.183	26750
827.323	26636
827.462	26864
827.601	26674
827.741	26857
827.88	26769
828.02	26739
828.159	26705
828.298	26758
828.437	26853
828.577	26773
828.716	26883
828.855	26796
828.994	26492
829.134	26511
829.273	26621
829.412	26404
829.551	26347
829.69	26438
829.829	26465
829.968	26560
830.107	26522
830.246	26450
830.385	26400
830.524	26366
830.663	26199
830.802	26050
830.941	26024
831.08	25966
831.219	26119
831.357	26122
831.496	26195
831.635	25989
831.774	25982
831.913	25818
832.051	25841
832.19	25723
832.329	25849
832.467	25685
832.606	25708
832.744	25670
832.883	25685
833.022	25628
833.16	25769
833.299	25616
833.437	25791
833.576	25670
833.714	25708
833.852	25883
833.991	25727
834.129	25666
834.267	25693
834.406	25769
834.544	25635
834.682	25674
834.821	25715
834.959	25772
835.097	25594
835.235	25712
835.373	25723
835.511	25590
835.65	25647
835.788	25457
835.926	25422
836.064	25308
836.202	25232
836.34	25491
836.478	25479
836.615	25426
836.753	25563
836.891	25643
837.029	25438
837.167	25529
837.305	25502
837.443	25441
837.58	25251
837.718	25411
837.856	25365
837.993	25145
838.131	25362
838.269	25259
838.406	25183
838.544	25034
838.681	24947
838.819	24894
838.956	24833
839.094	24593
839.231	24779
839.369	24829
839.506	25069
839.643	25061
839.781	24757
839.918	24578
840.055	24635
840.193	24521
840.33	24623
840.467	24677
840.604	24688
840.742	24897
840.879	24521
841.016	24479
841.153	24490
841.29	24525
841.427	24604
841.564	24597
841.701	24604
841.838	24639
841.975	24350
842.112	24536
842.249	24429
842.385	24426
842.522	24597
842.659	24437
842.796	24270
842.933	24308
843.069	24216
843.206	24285
843.343	24471
843.479	24270
843.616	24224
843.752	24079
843.889	24171
844.025	24273
844.162	24060
844.298	24117
844.435	24045
844.571	23996
844.708	24098
844.844	24330
844.98	24205
845.117	24083
845.253	24003
845.389	23882
845.525	23939
845.661	23977
845.798	23790
845.934	23748
846.07	23840
846.206	23680
846.342	23904
846.478	23745
846.614	23433
846.75	23463
846.886	23414
847.022	23505
847.158	23440
847.294	23608
847.429	23387
847.565	23448
847.701	23699
847.837	23170
847.972	23220
848.108	23341
848.244	23318
848.379	23151
848.515	23121
848.65	23033
848.786	23143
848.921	23064
849.057	23223
849.192	23174
849.328	23128
849.463	23094
849.598	23102
849.734	22946
849.869	22786
850.004	22850
850.14	22820
850.275	22816
850.41	22740
850.545	22615
850.68	22759
850.815	22805
850.95	22767
851.085	22869
851.22	22782
851.355	22626
851.49	22790
851.625	22786
851.76	22675
851.895	22672
852.03	22626
852.165	22763
852.299	22759
852.434	22793
852.569	22774
852.703	22759
852.838	22710
852.973	22873
853.107	22869
853.242	22622
853.376	22554
853.511	22382
853.645	22588
853.78	22656
853.914	22611
854.048	22546
854.183	22523
854.317	22599
854.451	22778
854.585	22626
854.72	22508
854.854	22637
854.988	22402
855.122	22588
855.256	22367
855.39	22538
855.524	22569
855.658	22554
855.792	22656
855.926	22607
856.06	22443
856.194	22653
856.327	22584
856.461	22459
856.595	22451
856.729	22550
856.862	22535
856.996	22542
857.13	22691
857.263	22538
857.397	22660
857.53	22474
857.664	22740
857.797	22622
857.931	22672
858.064	22493
858.197	22729
858.331	22413
858.464	22500
858.597	22367
858.731	22500
858.864	22440
858.997	22596
859.13	22428
859.263	22451
859.396	22531
859.529	22455
859.662	22569
859.795	22516
859.928	22432
860.061	22603
860.194	22611
860.327	22493
860.46	22379
860.592	22565
860.725	22626
860.858	22535
860.99	22550
861.123	22390
861.256	22325
861.388	22478
861.521	23220
861.653	22436
861.786	22306
861.918	22409
862.05	22409
862.183	22367
862.315	22542
862.447	22679
862.58	22447
862.712	22394
862.844	22177
862.976	22265
863.108	22192
863.24	22622
863.372	22200
863.504	22143
863.636	22211
863.768	22143
863.9	22287
864.032	22036
864.164	22093
864.296	22249
864.428	22207
864.559	22048
864.691	22230
864.823	22162
864.954	22162
865.086	22036
865.217	22078
865.349	21960
865.48	22070
865.612	22082
865.743	22158
865.875	22082
866.006	21945
866.137	22010
866.269	21968
866.4	21987
866.531	22074
866.662	21945
866.793	21842
866.924	21873
867.055	22040
867.186	22048
867.317	21937
867.448	21835
867.579	22010
867.71	21876
867.841	21835
867.972	21964
868.103	21835
868.233	21808
868.364	22055
868.495	22013
868.625	22211
868.756	22226
868.886	22139
869.017	22211
869.147	22409
869.278	22139
869.408	22181
869.539	22196
869.669	22211
869.799	22344
869.929	22226
870.06	22249
870.19	22253
870.32	22500
870.45	22622
870.58	22622
870.71	22744
870.84	22656
870.97	22542
871.1	22626
871.23	22858
871.36	22850
871.489	22725
871.619	22706
871.749	22835
871.879	22862
872.008	22892
872.138	22828
872.267	22733
872.397	22694
872.526	22580
872.656	22679
872.785	22733
872.915	22771
873.044	22934
873.173	22881
873.303	22847
873.432	22900
873.561	22991
873.69	22885
873.819	22717
873.948	22835
874.077	22911
874.206	22752
874.335	22744
874.464	22957
874.593	22999
874.722	23041
874.851	23189
874.979	23003
875.108	23048
875.237	23014
875.365	22949
875.494	23056
875.623	23033
875.751	23014
875.88	23102
876.008	23143
876.136	23227
876.265	23414
876.393	23558
876.521	23505
876.65	23436
876.778	23455
876.906	23360
877.034	23326
877.162	23273
877.29	23368
877.418	23318
877.546	23421
877.674	23250
877.802	23288
877.93	23387
878.058	23326
878.185	23303
878.313	23326
878.441	23299
878.568	23060
878.696	23417
878.824	23395
878.951	23486
879.079	23509
879.206	23665
879.333	23581
879.461	23372
879.588	23551
879.715	23471
879.842	23562
879.97	23410
880.097	23254
880.224	23216
880.351	23231
880.478	23132
880.605	23166
880.732	23220
880.859	23448
880.986	23269
881.112	23166
881.239	22999
881.366	22957
881.493	22790
881.619	22805
881.746	22881
881.872	22683
881.999	22805
882.125	22500
882.252	22744
882.378	22835
882.505	22797
882.631	22565
882.757	22531
882.883	22596
883.01	22550
883.136	22557
883.262	22390
883.388	22306
883.514	22455
883.64	22405
883.766	22337
883.892	22257
884.018	22276
884.143	22485
884.269	22489
884.395	22185
884.52	22013
884.646	22173
884.772	22021
884.897	21899
885.023	22185
885.148	22303
885.274	22310
885.399	22105
885.524	22051
885.65	22139
885.775	22177
885.9	22090
886.025	22215
886.15	22101
886.275	22013
886.4	21945
886.525	22139
886.65	22002
886.775	21960
886.9	22086
887.025	22173
887.149	22109
887.274	21835
887.399	21732
887.523	21812
887.648	21629
887.773	21755
887.897	21831
888.021	21850
888.146	21656
888.27	21907
888.395	21888
888.519	21838
888.643	21846
888.767	21827
888.891	21724
889.015	21720
889.139	21622
889.263	21553
889.387	21720
889.511	21816
889.635	21728
889.759	21629
889.883	21545
890.006	21523
890.13	21694
890.254	21450
890.377	21504
890.501	21340
890.624	21420
890.748	21321
890.871	21348
890.995	20956
891.118	21150
891.241	21116
891.364	21119
891.488	21188
891.611	21192
891.734	21074
891.857	21222
891.98	21241
892.103	21146
892.226	21127
892.349	21070
892.471	20956
892.594	21013
892.717	21051
892.839	21058
892.962	21020
893.085	21116
893.207	21176
893.33	20937
893.452	20979
893.575	21093
893.697	21043
893.819	21096
893.941	21176
894.064	21207
894.186	20963
894.308	20906
894.43	21039
894.552	21100
894.674	21184
894.796	20960
894.918	21020
895.04	20929
895.161	21138
895.283	20887
895.405	21051
895.526	21051
895.648	20826
895.769	21020
895.891	21024
896.012	21047
896.134	20998
896.255	21077
896.376	20952
896.498	21062
896.619	21142
896.74	20952
896.861	21150
896.982	21382
897.103	21519
897.224	21317
897.345	21116
897.466	21310
897.587	21272
897.708	21180
897.828	21230
897.949	21112
898.07	21096
898.19	21142
898.311	21256
898.431	21028
898.552	21104
898.672	21291
898.792	21264
898.913	21100
899.033	20971
899.153	20975
899.273	20864
899.393	20918
899.513	20982
899.633	20990
899.753	20952
899.873	20834
899.993	20960
900.113	20773
900.232	20868
900.352	20891
900.472	20773
900.591	20594
900.711	20693
900.83	20625
900.95	20887
901.069	20845
901.189	20541
901.308	20298
901.427	20256
901.546	20256
901.665	20286
901.784	20286
901.904	20122
902.023	20031
902.141	19818
902.26	19742
902.379	19811
902.498	19788
902.617	19685
902.735	19750
902.854	19738
902.973	19632
903.091	19426
903.21	19419
903.328	19384
903.446	19301
903.565	19206
903.683	19122
903.801	19053
903.919	19274
904.038	19122
904.156	18977
904.274	18916
904.392	18871
904.51	18886
904.627	18954
904.745	19031
904.863	19053
904.981	18639
905.098	18688
905.216	18574
905.334	18661
905.451	18513
905.569	18612
905.686	18658
905.803	18547
905.921	18350
906.038	18429
906.155	18418
906.272	18266
906.389	18353
906.506	17961
906.623	18167
906.74	18209
906.857	18003
906.974	18019
907.091	18152
907.208	18235
907.324	18266
907.441	17931
907.557	17847
907.674	17843
907.79	17653
907.907	17904
908.023	17885
908.139	17752
908.256	17828
908.372	17661
908.488	17630
908.604	17573
908.72	17501
908.836	17528
908.952	17497
909.068	17520
909.184	17634
909.3	17535
909.415	17452
909.531	17501
909.647	17250
909.762	17166
909.878	17193
909.993	17299
910.108	17216
910.224	17174
910.339	17208
910.454	17048
910.57	16938
910.685	17018
910.8	17128
910.915	17204
911.03	16972
911.145	16866
911.259	16725
911.374	16805
911.489	16637
911.604	16584
911.718	16550
911.833	16447
911.947	16402
912.062	16466
912.176	16497
912.291	16607
912.405	16451
912.519	16653
912.633	16687
912.748	16599
912.862	16421
912.976	16360
913.09	16219
913.204	16341
913.318	16261
913.431	16325
913.545	16424
913.659	16508
913.772	16169
913.886	16101
914	16036
914.113	16219
914.226	16219
914.34	16158
914.453	15911
914.566	16158
914.68	15960
914.793	15895
914.906	15766
915.019	15732
915.132	15682
915.245	15652
915.358	15709
915.47	15709
915.583	15686
915.696	15614
915.809	15690
915.921	15903
916.034	15682
916.146	15549
916.259	15473
916.371	15690
916.483	15507
916.595	15553
916.708	15530
916.82	15564
916.932	15355
917.044	15519
917.156	15469
917.268	15249
917.38	15310
917.491	15268
917.603	15306
917.715	15428
917.826	15378
917.938	15184
918.049	15062
918.161	15218
918.272	15374
918.384	15359
918.495	15275
918.606	15176
918.717	15005
918.828	15058
918.939	15043
919.05	14960
919.161	14956
919.272	14887
919.383	14823
919.494	14956
919.604	15230
919.715	14971
919.826	14853
919.936	14937
920.047	14994
920.157	14952
920.267	15188
920.378	15055
920.488	14994
920.598	15127
920.708	15222
920.818	15039
920.928	15066
921.038	15256
921.148	15241
921.258	14910
921.368	14834
921.477	14659
921.587	14655
921.697	14488
921.806	14712
921.916	14587
922.025	14305
922.134	14393
922.244	14389
922.353	14377
922.462	14195
922.571	14183
922.68	14001
922.789	13967
922.898	13944
923.007	14008
923.116	13932
923.224	13928
923.333	13849
923.442	13784
923.55	13788
923.659	13822
923.767	13769
923.876	13632
923.984	13769
924.092	13628
924.201	13719
924.309	13639
924.417	13578
924.525	13571
924.633	13605
924.741	14461
924.849	13434
924.956	13495
925.064	13422
925.172	13316
925.279	13388
925.387	13400
925.494	13449
925.602	13453
925.709	13415
925.816	13263
925.924	13316
926.031	13365
926.138	13316
926.245	13339
926.352	13209
926.459	13240
926.566	13422
926.673	13164
926.779	13061
926.886	13122
926.993	12920
927.099	12859
927.206	12772
927.312	12757
927.419	13023
927.525	12882
927.631	12886
927.737	12749
927.843	12700
927.95	12627
928.056	12673
928.162	12779
928.267	12722
928.373	13419
928.479	12684
928.585	12551
928.69	12650
928.796	12715
928.901	12521
929.007	12475
929.112	12490
929.218	12452
929.323	12395
929.428	12429
929.533	12585
929.638	12251
929.743	12342
929.848	12357
929.953	12376
930.058	12266
930.163	12072
930.267	12019
930.372	12235
930.477	12015
930.581	12213
930.685	12053
930.79	11942
930.894	11992
930.998	11931
931.103	12095
931.207	11771
931.311	11661
931.415	11501
931.519	11315
931.623	11353
