Data from test_V78500241_3375.txt Node
Date: Fri Mar 25 16:05:10 CST 2022
User: usil
Spectrometer: V785-0024
Trigger mode: 0
Integration Time (sec): 4.000000E-1
Scans to average: 1
Nonlinearity correction enabled: false
Boxcar width: 0
Storing dark spectrum: false
XAxis mode: Wavelengths
Number of Pixels in Spectrum: 1024
>>>>>Begin Spectral Data<<<<<
801.071	28649
801.214	28485
801.356	28246
801.499	28322
801.641	28112
801.783	28036
801.926	28101
802.068	28116
802.211	28040
802.353	28078
802.496	27873
802.638	27892
802.78	27766
802.923	27698
803.065	27644
803.208	27766
803.35	27774
803.492	27827
803.635	27975
803.777	27766
803.919	28036
804.061	28318
804.204	28002
804.346	28090
804.488	27914
804.63	27960
804.773	27987
804.915	28143
805.057	28196
805.199	28067
805.341	28150
805.483	28101
805.626	28226
805.768	28025
805.91	28055
806.052	28265
806.194	28150
806.336	28386
806.478	28299
806.62	28105
806.762	28257
806.904	28675
807.046	28634
807.188	28618
807.33	28694
807.472	28664
807.614	28588
807.756	28596
807.898	28554
808.04	28401
808.182	28394
808.324	28333
808.465	28485
808.607	28615
808.749	28816
808.891	29056
809.033	28949
809.174	28968
809.316	28888
809.458	28930
809.6	28820
809.741	29010
809.883	28892
810.025	29143
810.166	29140
810.308	29147
810.45	29037
810.591	29067
810.733	28835
810.875	28752
811.016	28805
811.158	28797
811.299	29010
811.441	28968
811.582	28976
811.724	28828
811.865	28786
812.007	28854
812.148	28877
812.29	28877
812.431	28957
812.573	29189
812.714	29303
812.855	29452
812.997	29486
813.138	29478
813.279	29379
813.421	29372
813.562	29345
813.703	29223
813.845	29056
813.986	28839
814.127	28664
814.268	28607
814.41	28668
814.551	28706
814.692	28630
814.833	28401
814.974	28474
815.115	28497
815.256	28470
815.397	28386
815.539	28443
815.68	28394
815.821	28363
815.962	28428
816.103	28325
816.244	28284
816.385	28017
816.526	28219
816.666	27991
816.807	27747
816.948	27991
817.089	28051
817.23	27922
817.371	27873
817.512	27941
817.653	27926
817.793	27808
817.934	27861
818.075	27918
818.216	27846
818.356	27778
818.497	27686
818.638	27625
818.778	27717
818.919	27675
819.06	27698
819.2	27679
819.341	27705
819.481	27892
819.622	28055
819.762	28200
819.903	28063
820.043	28025
820.184	27979
820.324	27964
820.465	28002
820.605	27975
820.746	27907
820.886	27880
821.026	27914
821.167	27854
821.307	28059
821.447	27770
821.588	27751
821.728	27812
821.868	27526
822.008	27401
822.149	27370
822.289	27416
822.429	27009
822.569	26948
822.709	26952
822.849	26944
822.99	26887
823.13	26819
823.27	26937
823.41	26777
823.55	26514
823.69	26720
823.83	26613
823.97	26625
824.11	26389
824.25	26461
824.389	26465
824.529	26697
824.669	26545
824.809	26773
824.949	26663
825.089	26708
825.228	26473
825.368	26423
825.508	26530
825.648	26530
825.787	26530
825.927	26313
826.067	26309
826.206	26374
826.346	26450
826.485	26423
826.625	26278
826.765	26579
826.904	26518
827.044	26248
827.183	26176
827.323	26240
827.462	26107
827.601	26199
827.741	26130
827.88	26138
828.02	25955
828.159	26218
828.298	26088
828.437	26176
828.577	26244
828.716	26195
828.855	26119
828.994	25894
829.134	25928
829.273	25906
829.412	25818
829.551	25849
829.69	25799
829.829	25925
829.968	25894
830.107	25868
830.246	25864
830.385	25769
830.524	25795
830.663	25563
830.802	25506
830.941	25430
831.08	25529
831.219	25548
831.357	25506
831.496	25693
831.635	25426
831.774	25358
831.913	25324
832.051	25187
832.19	25156
832.329	25236
832.467	25187
832.606	25126
832.744	25038
832.883	25034
833.022	24981
833.16	25160
833.299	25053
833.437	25266
833.576	25270
833.714	25046
833.852	25145
833.991	25251
834.129	25217
834.267	25133
834.406	25137
834.544	25164
834.682	25324
834.821	25164
834.959	25384
835.097	25194
835.235	25156
835.373	25141
835.511	25160
835.65	24981
835.788	25088
835.926	24954
836.064	24806
836.202	24795
836.34	25008
836.478	25129
836.615	24958
836.753	25110
836.891	25012
837.029	25004
837.167	24954
837.305	24939
837.443	24840
837.58	24798
837.718	24848
837.856	24894
837.993	24848
838.131	24844
838.269	24566
838.406	24635
838.544	24665
838.681	24426
838.819	24395
838.956	24350
839.094	24209
839.231	24391
839.369	24475
839.506	24658
839.643	24517
839.781	24289
839.918	24140
840.055	24247
840.193	24251
840.33	24281
840.467	24186
840.604	24239
840.742	24414
840.879	24030
841.016	24174
841.153	24003
841.29	24197
841.427	24060
841.564	24338
841.701	24209
841.838	24095
841.975	24076
842.112	24045
842.249	24030
842.385	23965
842.522	24277
842.659	24011
842.796	23916
842.933	23946
843.069	23920
843.206	23923
843.343	24003
843.479	23920
843.616	24015
843.752	23676
843.889	23691
844.025	23893
844.162	23733
844.298	23935
844.435	23714
844.571	23710
844.708	23684
844.844	24003
844.98	23874
845.117	23813
845.253	23649
845.389	23718
845.525	23627
845.661	23551
845.798	23444
845.934	23573
846.07	23535
846.206	23520
846.342	23547
846.478	23391
846.614	23170
846.75	23128
846.886	23185
847.022	23121
847.158	23246
847.294	23162
847.429	23246
847.565	23178
847.701	23349
847.837	22991
847.972	22881
848.108	22984
848.244	22995
848.379	22854
848.515	22820
848.65	22656
848.786	22740
848.921	22660
849.057	22869
849.192	22847
849.328	22816
849.463	22782
849.598	22618
849.734	22702
849.869	22660
850.004	22603
850.14	22580
850.275	22542
850.41	22447
850.545	22508
850.68	22485
850.815	22611
850.95	22504
851.085	22801
851.22	22649
851.355	22481
851.49	22535
851.625	22485
851.76	22561
851.895	22432
852.03	22428
852.165	22577
852.299	22519
852.434	22565
852.569	22565
852.703	22569
852.838	22721
852.973	22710
853.107	22683
853.242	22523
853.376	22318
853.511	22341
853.645	22284
853.78	22455
853.914	22386
854.048	22299
854.183	22341
854.317	22402
854.451	22554
854.585	22261
854.72	22508
854.854	22527
854.988	22367
855.122	22291
855.256	22333
855.39	22318
855.524	22371
855.658	22443
855.792	22432
855.926	22447
856.06	22428
856.194	22489
856.327	22413
856.461	22348
856.595	22417
856.729	22314
856.862	22489
856.996	22557
857.13	22394
857.263	22424
857.397	22508
857.53	22291
857.664	22390
857.797	22371
857.931	22554
858.064	22481
858.197	22390
858.331	22257
858.464	22402
858.597	22112
858.731	22268
858.864	22249
858.997	22204
859.13	22322
859.263	22284
859.396	22459
859.529	22516
859.662	22257
859.795	22299
859.928	22299
860.061	22440
860.194	22527
860.327	22447
860.46	22337
860.592	22455
860.725	22565
860.858	22535
860.99	22367
861.123	22344
861.256	22177
861.388	22363
861.521	22877
861.653	22215
861.786	22196
861.918	22173
862.05	22158
862.183	22287
862.315	22272
862.447	22424
862.58	22257
862.712	22029
862.844	22090
862.976	22128
863.108	22063
863.24	22588
863.372	21975
863.504	22082
863.636	22097
863.768	22120
863.9	22101
864.032	22063
864.164	22025
864.296	22090
864.428	22139
864.559	22169
864.691	22135
864.823	22021
864.954	22109
865.086	22029
865.217	21991
865.349	21937
865.48	21903
865.612	21907
865.743	22128
865.875	21968
866.006	21899
866.137	21937
866.269	21937
866.4	21922
866.531	21854
866.662	21907
866.793	21823
866.924	21899
867.055	21926
867.186	21918
867.317	21789
867.448	21778
867.579	21873
867.71	21800
867.841	21739
867.972	21835
868.103	21876
868.233	21846
868.364	21759
868.495	21926
868.625	22067
868.756	22249
868.886	22067
869.017	22131
869.147	22169
869.278	22284
869.408	22169
869.539	22139
869.669	22211
869.799	22017
869.929	22188
870.06	22246
870.19	22440
870.32	22344
870.45	22402
870.58	22413
870.71	22641
870.84	22603
870.97	22421
871.1	22546
871.23	22721
871.36	22831
871.489	22637
871.619	22759
871.749	22618
871.879	22736
872.008	22892
872.138	22752
872.267	22729
872.397	22611
872.526	22592
872.656	22592
872.785	22607
872.915	22793
873.044	22782
873.173	22649
873.303	22805
873.432	22694
873.561	22793
873.69	22702
873.819	22702
873.948	22778
874.077	22816
874.206	22759
874.335	22786
874.464	22869
874.593	22995
874.722	22946
874.851	23018
874.979	23060
875.108	22930
875.237	22957
875.365	22869
875.494	22942
875.623	22953
875.751	22934
875.88	23025
876.008	23067
876.136	23014
876.265	23364
876.393	23353
876.521	23334
876.65	23471
876.778	23303
876.906	23227
877.034	23246
877.162	23433
877.29	23223
877.418	23239
877.546	23406
877.674	23185
877.802	23318
877.93	23269
878.058	23261
878.185	23056
878.313	23318
878.441	23288
878.568	23143
878.696	23162
878.824	23326
878.951	23299
879.079	23459
879.206	23718
879.333	23478
879.461	23315
879.588	23383
879.715	23600
879.842	23421
879.97	23425
880.097	23159
880.224	23121
880.351	23094
880.478	23117
880.605	23200
880.732	23193
880.859	23254
880.986	23086
881.112	23162
881.239	22904
881.366	22862
881.493	22717
881.619	22664
881.746	22675
881.872	22630
881.999	22748
882.125	22474
882.252	22664
882.378	22641
882.505	22809
882.631	22561
882.757	22306
882.883	22466
883.01	22257
883.136	22333
883.262	22211
883.388	22128
883.514	22440
883.64	22261
883.766	22272
883.892	22128
884.018	21998
884.143	22356
884.269	22398
884.395	22059
884.52	21972
884.646	22002
884.772	21892
884.897	21949
885.023	21880
885.148	22097
885.274	22162
885.399	22105
885.524	22067
885.65	21994
885.775	22105
885.9	22074
886.025	22040
886.15	22051
886.275	21945
886.4	21842
886.525	22070
886.65	21846
886.775	21755
886.9	22097
887.025	22158
887.149	21953
887.274	21846
887.399	21823
887.523	21831
887.648	21663
887.773	21583
887.897	21880
888.021	21751
888.146	21671
888.27	21713
888.395	21876
888.519	21743
888.643	21838
888.767	21865
888.891	21705
889.015	21462
889.139	21618
889.263	21599
889.387	21705
889.511	21804
889.635	21530
889.759	21557
889.883	21545
890.006	21466
890.13	21595
890.254	21488
890.377	21485
890.501	21306
890.624	21256
890.748	21416
890.871	21173
890.995	21074
891.118	21127
891.241	21127
891.364	20986
891.488	21237
891.611	21112
891.734	21089
891.857	21100
891.98	21085
892.103	21108
892.226	21108
892.349	21024
892.471	20948
892.594	20982
892.717	21024
892.839	20937
892.962	21070
893.085	20982
893.207	20960
893.33	20769
893.452	20788
893.575	20971
893.697	20960
893.819	21180
893.941	21199
894.064	21142
894.186	20929
894.308	20975
894.43	21020
894.552	21066
894.674	21039
894.796	20823
894.918	20880
895.04	20899
895.161	20986
895.283	21077
895.405	20845
895.526	20868
895.648	20902
895.769	20971
895.891	21036
896.012	21058
896.134	20944
896.255	20944
896.376	20963
896.498	20967
896.619	20952
896.74	20834
896.861	21039
896.982	21370
897.103	21405
897.224	21222
897.345	21116
897.466	21017
897.587	21104
897.708	21306
897.828	21203
897.949	21058
898.07	20830
898.19	21085
898.311	21214
898.431	21123
898.552	21203
898.672	21222
898.792	21112
898.913	21287
899.033	21009
899.153	20925
899.273	20838
899.393	20849
899.513	20929
899.633	20971
899.753	21081
899.873	20876
899.993	20823
900.113	20899
900.232	20887
900.352	20807
900.472	20689
900.591	20571
900.711	20716
900.83	20701
900.95	20788
901.069	20773
901.189	20598
901.308	20351
901.427	20271
901.546	20195
901.665	20221
901.784	20332
901.904	20187
902.023	20103
902.141	19681
902.26	19753
902.379	19917
902.498	19712
902.617	19674
902.735	19693
902.854	19837
902.973	19651
903.091	19483
903.21	19419
903.328	19403
903.446	19301
903.565	19206
903.683	19251
903.801	19004
903.919	19301
904.038	19171
904.156	18943
904.274	18894
904.392	18962
904.51	18924
904.627	18859
904.745	18985
904.863	18859
904.981	18817
905.098	18608
905.216	18593
905.334	18620
905.451	18700
905.569	18513
905.686	18719
905.803	18620
905.921	18281
906.038	18486
906.155	18410
906.272	18277
906.389	18239
906.506	18182
906.623	18159
906.74	18232
906.857	17954
906.974	18133
907.091	18117
907.208	18342
907.324	18152
907.441	18079
907.557	17878
907.674	17840
907.79	17691
907.907	17802
908.023	17912
908.139	17912
908.256	17866
908.372	17764
908.488	17748
908.604	17600
908.72	17501
908.836	17570
908.952	17566
909.068	17554
909.184	17665
909.3	17520
909.415	17592
909.531	17505
909.647	17337
909.762	17322
909.878	17292
909.993	17246
910.108	17212
910.224	17193
910.339	17200
910.454	17109
910.57	17045
910.685	16987
910.8	17334
910.915	17132
911.03	17010
911.145	16885
911.259	16957
911.374	16942
911.489	16702
911.604	16744
911.718	16538
911.833	16558
911.947	16512
912.062	16531
912.176	16565
912.291	16698
912.405	16523
912.519	16793
912.633	16774
912.748	16702
912.862	16489
912.976	16462
913.09	16234
913.204	16367
913.318	16443
913.431	16519
913.545	16394
913.659	16538
913.772	16402
913.886	16188
914	16139
914.113	16211
914.226	16284
914.34	16333
914.453	16063
914.566	16131
914.68	16051
914.793	16025
914.906	15880
915.019	15899
915.132	15770
915.245	15671
915.358	15743
915.47	15755
915.583	15785
915.696	15694
915.809	15880
915.921	15907
916.034	15690
916.146	15637
916.259	15694
916.371	15770
916.483	15701
916.595	15644
916.708	15526
916.82	15568
916.932	15614
917.044	15557
917.156	15443
917.268	15412
917.38	15424
917.491	15447
917.603	15412
917.715	15435
917.826	15393
917.938	15389
918.049	15241
918.161	15306
918.272	15519
918.384	15454
918.495	15298
918.606	15199
918.717	15173
918.828	15169
918.939	15184
919.05	15066
919.161	15108
919.272	14944
919.383	14960
919.494	15165
919.604	15310
919.715	15150
919.826	14891
919.936	15051
920.047	15146
920.157	15192
920.267	15252
920.378	15077
920.488	15077
920.598	15173
920.708	15386
920.818	15340
920.928	15184
921.038	15351
921.148	15252
921.258	15058
921.368	14937
921.477	14811
921.587	14853
921.697	14731
921.806	14811
921.916	14636
922.025	14488
922.134	14412
922.244	14427
922.353	14518
922.462	14294
922.571	14233
922.68	14157
922.789	14130
922.898	14077
923.007	14081
923.116	14088
923.224	14001
923.333	14035
923.442	13947
923.55	13845
923.659	13947
923.767	14054
923.876	13879
923.984	13913
924.092	13734
924.201	13860
924.309	13799
924.417	13837
924.525	13791
924.633	13746
924.741	14701
924.849	13582
924.956	13670
925.064	13491
925.172	13480
925.279	13468
925.387	13571
925.494	13525
925.602	13647
925.709	13422
925.816	13430
925.924	13514
926.031	13441
926.138	13438
926.245	13377
926.352	13255
926.459	13491
926.566	13525
926.673	13346
926.779	13206
926.886	13217
926.993	13088
927.099	13034
927.206	13065
927.312	12981
927.419	13031
927.525	12966
927.631	13088
927.737	12875
927.843	12802
927.95	12719
928.056	12787
928.162	12916
928.267	12829
928.373	13358
928.479	12890
928.585	12658
928.69	12738
928.796	12863
928.901	12719
929.007	12502
929.112	12654
929.218	12623
929.323	12544
929.428	12536
929.533	12669
929.638	12456
929.743	12460
929.848	12475
929.953	12479
930.058	12407
930.163	12300
930.267	12216
930.372	12380
930.477	12216
930.581	12384
930.685	12330
930.79	12155
930.894	12152
930.998	12110
931.103	12224
931.207	11908
931.311	11741
931.415	11714
931.519	11562
931.623	11440
