Data from test_V78500241_3200.txt Node
Date: Fri Mar 25 16:03:58 CST 2022
User: usil
Spectrometer: V785-0024
Trigger mode: 0
Integration Time (sec): 4.000000E-1
Scans to average: 1
Nonlinearity correction enabled: false
Boxcar width: 0
Storing dark spectrum: false
XAxis mode: Wavelengths
Number of Pixels in Spectrum: 1024
>>>>>Begin Spectral Data<<<<<
801.071	28733
801.214	28660
801.356	28546
801.499	28474
801.641	28188
801.783	28280
801.926	28360
802.068	28291
802.211	28124
802.353	28154
802.496	27968
802.638	28010
802.78	27892
802.923	27899
803.065	27873
803.208	28036
803.35	28044
803.492	28128
803.635	28109
803.777	28128
803.919	28139
804.061	28626
804.204	28162
804.346	28116
804.488	28162
804.63	28097
804.773	27941
804.915	28253
805.057	28333
805.199	28371
805.341	28268
805.483	28329
805.626	28405
805.768	28234
805.91	28310
806.052	28398
806.194	28276
806.336	28504
806.478	28466
806.62	28474
806.762	28615
806.904	28649
807.046	28729
807.188	28763
807.33	28774
807.472	28896
807.614	28755
807.756	28812
807.898	28660
808.04	28459
808.182	28679
808.324	28660
808.465	28733
808.607	28923
808.749	29132
808.891	29132
809.033	29117
809.174	29102
809.316	29094
809.458	29124
809.6	29094
809.741	28980
809.883	29170
810.025	29292
810.166	29368
810.308	29353
810.45	29170
810.591	29307
810.733	29044
810.875	29155
811.016	29025
811.158	28953
811.299	29067
811.441	29200
811.582	29269
811.724	29147
811.865	29075
812.007	29098
812.148	29174
812.29	29185
812.431	29258
812.573	29311
812.714	29493
812.855	29596
812.997	29585
813.138	29798
813.279	29665
813.421	29745
813.562	29509
813.703	29406
813.845	29269
813.986	29018
814.127	28729
814.268	28793
814.41	28782
814.551	28748
814.692	28915
814.833	28763
814.974	28824
815.115	28736
815.256	28797
815.397	28687
815.539	28691
815.68	28584
815.821	28588
815.962	28489
816.103	28634
816.244	28436
816.385	28451
816.526	28375
816.666	28181
816.807	28116
816.948	28067
817.089	28166
817.23	28063
817.371	28021
817.512	28032
817.653	28067
817.793	28002
817.934	27979
818.075	28059
818.216	28059
818.356	28105
818.497	27911
818.638	27804
818.778	27827
818.919	27842
819.06	27903
819.2	27953
819.341	28109
819.481	28029
819.622	28169
819.762	28531
819.903	28500
820.043	28413
820.184	28238
820.324	28265
820.465	28246
820.605	28204
820.746	28101
820.886	28272
821.026	28109
821.167	28070
821.307	28272
821.447	28010
821.588	28002
821.728	27892
821.868	27682
822.008	27660
822.149	27648
822.289	27660
822.429	27313
822.569	27275
822.709	27272
822.849	27112
822.99	27047
823.13	27036
823.27	27013
823.41	26891
823.55	26796
823.69	26960
823.83	26796
823.97	26880
824.11	26792
824.25	26765
824.389	26758
824.529	26819
824.669	26655
824.809	26819
824.949	26830
825.089	26811
825.228	26758
825.368	26655
825.508	26659
825.648	26598
825.787	26781
825.927	26648
826.067	26571
826.206	26598
826.346	26617
826.485	26674
826.625	26598
826.765	26716
826.904	26659
827.044	26301
827.183	26362
827.323	26362
827.462	26412
827.601	26415
827.741	26202
827.88	26355
828.02	26149
828.159	26339
828.298	26313
828.437	26278
828.577	26214
828.716	26488
828.855	26039
828.994	26069
829.134	26054
829.273	26107
829.412	25955
829.551	25845
829.69	25925
829.829	26084
829.968	25963
830.107	26248
830.246	26126
830.385	25879
830.524	25807
830.663	25814
830.802	25769
830.941	25693
831.08	25578
831.219	25723
831.357	25616
831.496	25822
831.635	25681
831.774	25677
831.913	25491
832.051	25392
832.19	25441
832.329	25521
832.467	25304
832.606	25217
832.744	25255
832.883	25198
833.022	25324
833.16	25327
833.299	25225
833.437	25384
833.576	25518
833.714	25266
833.852	25479
833.991	25453
834.129	25403
834.267	25384
834.406	25381
834.544	25270
834.682	25457
834.821	25251
834.959	25605
835.097	25289
835.235	25377
835.373	25331
835.511	25339
835.65	25183
835.788	25179
835.926	25076
836.064	24973
836.202	25046
836.34	25114
836.478	25259
836.615	25126
836.753	25247
836.891	25244
837.029	25278
837.167	25091
837.305	25034
837.443	24909
837.58	24970
837.718	24951
837.856	25053
837.993	24859
838.131	25050
838.269	24833
838.406	25095
838.544	24681
838.681	24738
838.819	24688
838.956	24452
839.094	24471
839.231	24437
839.369	24661
839.506	24829
839.643	24673
839.781	24490
839.918	24277
840.055	24391
840.193	24536
840.33	24494
840.467	24315
840.604	24490
840.742	24574
840.879	24213
841.016	24254
841.153	24342
841.29	24464
841.427	24319
841.564	24407
841.701	24357
841.838	24228
841.975	24289
842.112	24235
842.249	24194
842.385	24110
842.522	24448
842.659	24159
842.796	24148
842.933	24186
843.069	24174
843.206	24171
843.343	24216
843.479	24155
843.616	24045
843.752	23847
843.889	24015
844.025	23996
844.162	23817
844.298	24083
844.435	23969
844.571	23794
844.708	24007
844.844	24022
844.98	24114
845.117	24022
845.253	23973
845.389	23832
845.525	23756
845.661	23764
845.798	23558
845.934	23665
846.07	23581
846.206	23585
846.342	23790
846.478	23528
846.614	23345
846.75	23216
846.886	23311
847.022	23379
847.158	23421
847.294	23406
847.429	23376
847.565	23307
847.701	23543
847.837	23086
847.972	23025
848.108	23010
848.244	23174
848.379	23041
848.515	23010
848.65	22908
848.786	22984
848.921	22942
849.057	23105
849.192	23025
849.328	23056
849.463	23003
849.598	22915
849.734	22927
849.869	22793
850.004	22664
850.14	22778
850.275	22843
850.41	22691
850.545	22660
850.68	22759
850.815	22752
850.95	22679
851.085	22923
851.22	22862
851.355	22694
851.49	22691
851.625	22596
851.76	22717
851.895	22755
852.03	22649
852.165	22702
852.299	22771
852.434	22835
852.569	22653
852.703	22740
852.838	22786
852.973	22877
853.107	22771
853.242	22626
853.376	22603
853.511	22394
853.645	22421
853.78	22531
853.914	22577
854.048	22713
854.183	22512
854.317	22550
854.451	22691
854.585	22630
854.72	22577
854.854	22637
854.988	22531
855.122	22580
855.256	22470
855.39	22432
855.524	22512
855.658	22577
855.792	22542
855.926	22554
856.06	22531
856.194	22523
856.327	22630
856.461	22455
856.595	22436
856.729	22565
856.862	22691
856.996	22504
857.13	22603
857.263	22603
857.397	22634
857.53	22611
857.664	22588
857.797	22599
857.931	22641
858.064	22626
858.197	22683
858.331	22577
858.464	22500
858.597	22481
858.731	22413
858.864	22504
858.997	22565
859.13	22584
859.263	22637
859.396	22550
859.529	22356
859.662	22519
859.795	22447
859.928	22485
860.061	22683
860.194	22725
860.327	22432
860.46	22523
860.592	22702
860.725	22618
860.858	22713
860.99	22565
861.123	22516
861.256	22569
861.388	22523
861.521	23235
861.653	22497
861.786	22284
861.918	22360
862.05	22443
862.183	22497
862.315	22459
862.447	22615
862.58	22375
862.712	22356
862.844	22204
862.976	22295
863.108	22257
863.24	22630
863.372	22230
863.504	22135
863.636	22386
863.768	22204
863.9	22306
864.032	22223
864.164	22143
864.296	22204
864.428	22310
864.559	22325
864.691	22219
864.823	22169
864.954	22192
865.086	22166
865.217	22036
865.349	22090
865.48	22173
865.612	22173
865.743	22314
865.875	22192
866.006	22135
866.137	22070
866.269	22063
866.4	22135
866.531	22078
866.662	21941
866.793	21937
866.924	21953
867.055	22169
867.186	22036
867.317	21956
867.448	22086
867.579	22036
867.71	22002
867.841	22040
867.972	22063
868.103	22017
868.233	22032
868.364	22093
868.495	22131
868.625	22322
868.756	22516
868.886	22192
869.017	22261
869.147	22360
869.278	22424
869.408	22242
869.539	22242
869.669	22432
869.799	22310
869.929	22447
870.06	22386
870.19	22656
870.32	22527
870.45	22588
870.58	22565
870.71	22866
870.84	22812
870.97	22694
871.1	22668
871.23	22771
871.36	22847
871.489	22835
871.619	22904
871.749	22908
871.879	22946
872.008	22980
872.138	22965
872.267	22812
872.397	22771
872.526	22672
872.656	22694
872.785	22626
872.915	22919
873.044	22957
873.173	22923
873.303	22881
873.432	23010
873.561	22980
873.69	22995
873.819	22965
873.948	23003
874.077	22889
874.206	22786
874.335	22850
874.464	23025
874.593	23090
874.722	23109
874.851	23140
874.979	23067
875.108	23227
875.237	23037
875.365	23041
875.494	23064
875.623	23147
875.751	23071
875.88	23117
876.008	23269
876.136	23318
876.265	23531
876.393	23680
876.521	23535
876.65	23589
876.778	23547
876.906	23505
877.034	23615
877.162	23455
877.29	23414
877.418	23570
877.546	23531
877.674	23459
877.802	23406
877.93	23535
878.058	23341
878.185	23421
878.313	23459
878.441	23512
878.568	23246
878.696	23455
878.824	23486
878.951	23452
879.079	23733
879.206	23668
879.333	23714
879.461	23501
879.588	23573
879.715	23676
879.842	23775
879.97	23505
880.097	23299
880.224	23299
880.351	23356
880.478	23269
880.605	23299
880.732	23200
880.859	23570
880.986	23284
881.112	23277
881.239	23341
881.366	22908
881.493	22972
881.619	22965
881.746	23003
881.872	22862
881.999	22839
882.125	22797
882.252	22790
882.378	22824
882.505	22984
882.631	22721
882.757	22588
882.883	22535
883.01	22424
883.136	22508
883.262	22402
883.388	22352
883.514	22615
883.64	22618
883.766	22554
883.892	22261
884.018	22322
884.143	22466
884.269	22440
884.395	22249
884.52	22021
884.646	22070
884.772	22112
884.897	22067
885.023	22090
885.148	22238
885.274	22341
885.399	22371
885.524	22120
885.65	22291
885.775	22196
885.9	22116
886.025	22253
886.15	22093
886.275	22067
886.4	22017
886.525	22147
886.65	22128
886.775	22109
886.9	22166
887.025	22325
887.149	22082
887.274	22090
887.399	21899
887.523	21880
887.648	21911
887.773	21831
887.897	21918
888.021	21937
888.146	21838
888.27	22173
888.395	22002
888.519	21797
888.643	22006
888.767	22010
888.891	21800
889.015	21656
889.139	21701
889.263	21694
889.387	21701
889.511	21972
889.635	21667
889.759	21663
889.883	21644
890.006	21675
890.13	21774
890.254	21614
890.377	21660
890.501	21298
890.624	21382
890.748	21450
890.871	21477
890.995	21268
891.118	21135
891.241	21256
891.364	21313
891.488	21367
891.611	21313
891.734	21279
891.857	21321
891.98	21336
892.103	21264
892.226	21279
892.349	21272
892.471	21047
892.594	21287
892.717	21085
892.839	21188
892.962	21214
893.085	21222
893.207	21176
893.33	21036
893.452	20982
893.575	21176
893.697	21104
893.819	21241
893.941	21294
894.064	21275
894.186	21131
894.308	21043
894.43	21207
894.552	21310
894.674	21249
894.796	21116
894.918	21108
895.04	21119
895.161	21096
895.283	21176
895.405	21157
895.526	20990
895.648	21074
895.769	21138
895.891	21131
896.012	21218
896.134	21104
896.255	21222
896.376	21001
896.498	21032
896.619	21131
896.74	21127
896.861	21165
896.982	21363
897.103	21454
897.224	21374
897.345	21302
897.466	21332
897.587	21291
897.708	21397
897.828	21298
897.949	21169
898.07	21112
898.19	21245
898.311	21386
898.431	21150
898.552	21416
898.672	21424
898.792	21378
898.913	21359
899.033	21199
899.153	21173
899.273	21039
899.393	21104
899.513	21192
899.633	21119
899.753	21066
899.873	20998
899.993	21001
900.113	21039
900.232	20963
900.352	21001
900.472	20868
900.591	20785
900.711	20994
900.83	20842
900.95	20853
901.069	20918
901.189	20727
901.308	20442
901.427	20454
901.546	20381
901.665	20328
901.784	20377
901.904	20240
902.023	20191
902.141	20062
902.26	19898
902.379	19932
902.498	19955
902.617	19875
902.735	19902
902.854	19875
902.973	19883
903.091	19567
903.21	19533
903.328	19529
903.446	19343
903.565	19441
903.683	19369
903.801	19175
903.919	19422
904.038	19232
904.156	19164
904.274	19187
904.392	19023
904.51	19145
904.627	19114
904.745	19027
904.863	19137
904.981	18882
905.098	18722
905.216	18707
905.334	18783
905.451	18635
905.569	18700
905.686	18802
905.803	18722
905.921	18528
906.038	18711
906.155	18563
906.272	18441
906.389	18486
906.506	18220
906.623	18258
906.74	18273
906.857	18224
906.974	18285
907.091	18353
907.208	18467
907.324	18262
907.441	18102
907.557	18091
907.674	18022
907.79	18003
907.907	17961
908.023	18057
908.139	17923
908.256	17916
908.372	17901
908.488	17885
908.604	17771
908.72	17710
908.836	17710
908.952	17570
909.068	17767
909.184	17764
909.3	17646
909.415	17745
909.531	17676
909.647	17486
909.762	17383
909.878	17368
909.993	17326
910.108	17436
910.224	17277
910.339	17360
910.454	17284
910.57	17235
910.685	17132
910.8	17387
910.915	17383
911.03	17231
911.145	17010
911.259	17033
911.374	17018
911.489	16953
911.604	16904
911.718	16691
911.833	16660
911.947	16653
912.062	16637
912.176	16733
912.291	16687
912.405	16740
912.519	16900
912.633	16885
912.748	16687
912.862	16729
912.976	16561
913.09	16489
913.204	16500
913.318	16535
913.431	16615
913.545	16592
913.659	16535
913.772	16531
913.886	16310
914	16284
914.113	16432
914.226	16394
914.34	16360
914.453	16135
914.566	16356
914.68	16200
914.793	16143
914.906	16021
915.019	15819
915.132	15888
915.245	15804
915.358	15861
915.47	15911
915.583	15926
915.696	15907
915.809	16025
915.921	15987
916.034	15857
916.146	15785
916.259	15732
916.371	15857
916.483	15895
916.595	15732
916.708	15755
916.82	15625
916.932	15587
917.044	15671
917.156	15599
917.268	15435
917.38	15542
917.491	15587
917.603	15485
917.715	15557
917.826	15625
917.938	15359
918.049	15367
918.161	15397
918.272	15584
918.384	15652
918.495	15405
918.606	15302
918.717	15226
918.828	15306
918.939	15275
919.05	15150
919.161	15222
919.272	15005
919.383	15024
919.494	15237
919.604	15488
919.715	15218
919.826	15104
919.936	15245
920.047	15268
920.157	15237
920.267	15348
920.378	15294
920.488	15051
920.598	15275
920.708	15538
920.818	15291
920.928	15374
921.038	15439
921.148	15378
921.258	15116
921.368	15116
921.477	14948
921.587	14944
921.697	14796
921.806	14975
921.916	14785
922.025	14636
922.134	14602
922.244	14549
922.353	14617
922.462	14533
922.571	14446
922.68	14180
922.789	14202
922.898	14256
923.007	14100
923.116	14252
923.224	14237
923.333	14142
923.442	14077
923.55	14096
923.659	14062
923.767	14119
923.876	14039
923.984	14012
924.092	13906
924.201	13959
924.309	13959
924.417	13955
924.525	13807
924.633	13864
924.741	14636
924.849	13674
924.956	13811
925.064	13636
925.172	13590
925.279	13548
925.387	13510
925.494	13620
925.602	13708
925.709	13548
925.816	13403
925.924	13552
926.031	13575
926.138	13445
926.245	13563
926.352	13422
926.459	13426
926.566	13586
926.673	13304
926.779	13327
926.886	13324
926.993	13152
927.099	13171
927.206	13076
927.312	13069
927.419	13149
927.525	13126
927.631	13099
927.737	13004
927.843	12966
927.95	12852
928.056	13004
928.162	12993
928.267	12909
928.373	13540
928.479	12973
928.585	12772
928.69	12814
928.796	12875
928.901	12734
929.007	12662
929.112	12745
929.218	12711
929.323	12623
929.428	12669
929.533	12734
929.638	12623
929.743	12551
929.848	12623
929.953	12555
930.058	12437
930.163	12418
930.267	12391
930.372	12391
930.477	12327
930.581	12418
930.685	12350
930.79	12121
930.894	12243
930.998	12152
931.103	12334
931.207	12015
931.311	11878
931.415	11832
931.519	11668
931.623	11562
