Data from test_V78500241_1747.txt Node
Date: Fri Mar 25 15:53:54 CST 2022
User: usil
Spectrometer: V785-0024
Trigger mode: 0
Integration Time (sec): 4.000000E-1
Scans to average: 1
Nonlinearity correction enabled: false
Boxcar width: 0
Storing dark spectrum: false
XAxis mode: Wavelengths
Number of Pixels in Spectrum: 1024
>>>>>Begin Spectral Data<<<<<
801.071	28535
801.214	28630
801.356	28329
801.499	28341
801.641	28314
801.783	28169
801.926	28291
802.068	28223
802.211	28238
802.353	28051
802.496	27945
802.638	27899
802.78	27842
802.923	27804
803.065	27747
803.208	27907
803.35	27892
803.492	27953
803.635	28200
803.777	28070
803.919	28154
804.061	28447
804.204	28230
804.346	27930
804.488	28082
804.63	28116
804.773	28166
804.915	28226
805.057	28303
805.199	28124
805.341	28093
805.483	28303
805.626	28185
805.768	28207
805.91	28341
806.052	28341
806.194	28200
806.336	28424
806.478	28348
806.62	28291
806.762	28451
806.904	28557
807.046	28702
807.188	28611
807.33	28634
807.472	28892
807.614	28481
807.756	28660
807.898	28702
808.04	28485
808.182	28626
808.324	28588
808.465	28740
808.607	28881
808.749	29136
808.891	29147
809.033	29231
809.174	29006
809.316	29166
809.458	28961
809.6	28965
809.741	29147
809.883	29079
810.025	29193
810.166	29269
810.308	29307
810.45	29083
810.591	29064
810.733	29033
810.875	28843
811.016	28866
811.158	28908
811.299	29132
811.441	29117
811.582	29056
811.724	28957
811.865	29048
812.007	28881
812.148	28987
812.29	28972
812.431	29109
812.573	29372
812.714	29387
812.855	29505
812.997	29623
813.138	29703
813.279	29665
813.421	29615
813.562	29482
813.703	29299
813.845	29273
813.986	28995
814.127	28763
814.268	28565
814.41	28668
814.551	28649
814.692	28771
814.833	28736
814.974	28618
815.115	28592
815.256	28634
815.397	28618
815.539	28580
815.68	28424
815.821	28405
815.962	28550
816.103	28390
816.244	28287
816.385	28344
816.526	28253
816.666	28097
816.807	28067
816.948	28021
817.089	28215
817.23	27941
817.371	28055
817.512	27934
817.653	28093
817.793	27994
817.934	28006
818.075	27922
818.216	28040
818.356	27979
818.497	27926
818.638	27778
818.778	27648
818.919	27781
819.06	27880
819.2	27861
819.341	27983
819.481	27949
819.622	28070
819.762	28375
819.903	28169
820.043	28181
820.184	28200
820.324	28249
820.465	28120
820.605	28158
820.746	28013
820.886	28086
821.026	28177
821.167	28070
821.307	28147
821.447	27968
821.588	27903
821.728	27774
821.868	27542
822.008	27526
822.149	27427
822.289	27439
822.429	27184
822.569	27188
822.709	27108
822.849	26853
822.99	26929
823.13	26940
823.27	26895
823.41	26708
823.55	26727
823.69	26792
823.83	26659
823.97	26762
824.11	26587
824.25	26632
824.389	26682
824.529	26636
824.669	26678
824.809	26762
824.949	26758
825.089	26648
825.228	26712
825.368	26492
825.508	26545
825.648	26480
825.787	26602
825.927	26609
826.067	26556
826.206	26556
826.346	26514
826.485	26552
826.625	26480
826.765	26625
826.904	26393
827.044	26370
827.183	26298
827.323	26210
827.462	26419
827.601	26336
827.741	26107
827.88	26324
828.02	26218
828.159	26336
828.298	26317
828.437	26362
828.577	26176
828.716	26343
828.855	26122
828.994	25966
829.134	25963
829.273	25928
829.412	25986
829.551	25750
829.69	25894
829.829	25883
829.968	26043
830.107	25947
830.246	25951
830.385	25826
830.524	25822
830.663	25860
830.802	25628
830.941	25422
831.08	25453
831.219	25590
831.357	25552
831.496	25700
831.635	25460
831.774	25464
831.913	25377
832.051	25171
832.19	25426
832.329	25293
832.467	25122
832.606	25175
832.744	25225
832.883	25206
833.022	25175
833.16	25187
833.299	25255
833.437	25194
833.576	25293
833.714	25213
833.852	25354
833.991	25228
834.129	25324
834.267	25301
834.406	25240
834.544	25225
834.682	25133
834.821	25183
834.959	25324
835.097	25301
835.235	25308
835.373	25320
835.511	25175
835.65	25091
835.788	24943
835.926	25057
836.064	24882
836.202	24859
836.34	25091
836.478	25091
836.615	24928
836.753	24958
836.891	25160
837.029	25118
837.167	25015
837.305	24970
837.443	24924
837.58	24837
837.718	24958
837.856	24958
837.993	24897
838.131	24932
838.269	24795
838.406	24787
838.544	24589
838.681	24479
838.819	24623
838.956	24521
839.094	24372
839.231	24452
839.369	24555
839.506	24810
839.643	24540
839.781	24353
839.918	24399
840.055	24376
840.193	24369
840.33	24254
840.467	24281
840.604	24456
840.742	24604
840.879	24114
841.016	24136
841.153	24186
841.29	24429
841.427	24311
841.564	24251
841.701	24197
841.838	24163
841.975	24330
842.112	24201
842.249	24018
842.385	24030
842.522	24197
842.659	24007
842.796	24110
842.933	24022
843.069	23977
843.206	23950
843.343	24098
843.479	24026
843.616	24022
843.752	23737
843.889	23939
844.025	23878
844.162	23714
844.298	23836
844.435	23775
844.571	23745
844.708	23840
844.844	23984
844.98	23874
845.117	23939
845.253	23703
845.389	23798
845.525	23699
845.661	23619
845.798	23596
845.934	23509
846.07	23455
846.206	23627
846.342	23752
846.478	23474
846.614	23227
846.75	23307
846.886	23155
847.022	23421
847.158	23216
847.294	23223
847.429	23242
847.565	23212
847.701	23433
847.837	23109
847.972	22953
848.108	23044
848.244	22892
848.379	22904
848.515	22809
848.65	22767
848.786	22805
848.921	22862
849.057	22946
849.192	22957
849.328	22873
849.463	22869
849.598	22892
849.734	22683
849.869	22618
850.004	22573
850.14	22569
850.275	22626
850.41	22451
850.545	22538
850.68	22493
850.815	22653
850.95	22611
851.085	22831
851.22	22801
851.355	22531
851.49	22622
851.625	22557
851.76	22527
851.895	22478
852.03	22599
852.165	22519
852.299	22542
852.434	22618
852.569	22691
852.703	22561
852.838	22656
852.973	22725
853.107	22698
853.242	22440
853.376	22447
853.511	22428
853.645	22409
853.78	22447
853.914	22409
854.048	22382
854.183	22421
854.317	22390
854.451	22504
854.585	22535
854.72	22352
854.854	22295
854.988	22424
855.122	22371
855.256	22246
855.39	22421
855.524	22546
855.658	22379
855.792	22474
855.926	22382
856.06	22443
856.194	22504
856.327	22466
856.461	22344
856.595	22363
856.729	22360
856.862	22687
856.996	22386
857.13	22478
857.263	22557
857.397	22508
857.53	22405
857.664	22398
857.797	22565
857.931	22474
858.064	22451
858.197	22580
858.331	22462
858.464	22322
858.597	22329
858.731	22386
858.864	22333
858.997	22295
859.13	22344
859.263	22367
859.396	22466
859.529	22318
859.662	22265
859.795	22219
859.928	22421
860.061	22538
860.194	22557
860.327	22402
860.46	22428
860.592	22466
860.725	22588
860.858	22447
860.99	22386
861.123	22192
861.256	22314
861.388	22299
861.521	23094
861.653	22215
861.786	22284
861.918	22169
862.05	22284
862.183	22375
862.315	22413
862.447	22363
862.58	22367
862.712	22093
862.844	22150
862.976	22158
863.108	22101
863.24	22428
863.372	21884
863.504	22211
863.636	22166
863.768	22109
863.9	22070
864.032	22040
864.164	22032
864.296	22135
864.428	22120
864.559	22139
864.691	22181
864.823	21998
864.954	22006
865.086	22078
865.217	21998
865.349	21953
865.48	22044
865.612	21949
865.743	22158
865.875	21941
866.006	21926
866.137	22051
866.269	21941
866.4	22048
866.531	21838
866.662	21854
866.793	21945
866.924	21869
867.055	21972
867.186	21876
867.317	21975
867.448	21797
867.579	21865
867.71	21739
867.841	21797
867.972	21895
868.103	21941
868.233	22078
868.364	21960
868.495	22017
868.625	22276
868.756	22211
868.886	22048
869.017	22116
869.147	22177
869.278	22268
869.408	22177
869.539	22090
869.669	22265
869.799	22207
869.929	22249
870.06	22177
870.19	22432
870.32	22462
870.45	22493
870.58	22459
870.71	22713
870.84	22565
870.97	22577
871.1	22611
871.23	22717
871.36	22744
871.489	22702
871.619	22786
871.749	22729
871.879	22725
872.008	22911
872.138	22793
872.267	22641
872.397	22531
872.526	22577
872.656	22645
872.785	22637
872.915	22847
873.044	22866
873.173	22702
873.303	22858
873.432	22809
873.561	22866
873.69	22759
873.819	22637
873.948	22930
874.077	22908
874.206	22790
874.335	22801
874.464	22957
874.593	22938
874.722	22904
874.851	23044
874.979	22923
875.108	23006
875.237	22911
875.365	22946
875.494	22961
875.623	23064
875.751	22972
875.88	22938
876.008	23079
876.136	23265
876.265	23459
876.393	23554
876.521	23554
876.65	23440
876.778	23349
876.906	23277
877.034	23284
877.162	23360
877.29	23242
877.418	23341
877.546	23250
877.674	23376
877.802	23284
877.93	23360
878.058	23296
878.185	23147
878.313	23277
878.441	23292
878.568	23151
878.696	23242
878.824	23376
878.951	23440
879.079	23535
879.206	23733
879.333	23463
879.461	23296
879.588	23444
879.715	23345
879.842	23535
879.97	23337
880.097	23121
880.224	23098
880.351	23128
880.478	23185
880.605	23185
880.732	23147
880.859	23429
880.986	23079
881.112	23140
881.239	23044
881.366	22869
881.493	22752
881.619	22744
881.746	22778
881.872	22767
881.999	22675
882.125	22694
882.252	22847
882.378	22812
882.505	22809
882.631	22580
882.757	22500
882.883	22546
883.01	22432
883.136	22360
883.262	22348
883.388	22310
883.514	22329
883.64	22421
883.766	22272
883.892	22192
884.018	22204
884.143	22325
884.269	22379
884.395	22120
884.52	21979
884.646	21953
884.772	22017
884.897	21861
885.023	22101
885.148	22086
885.274	22116
885.399	22128
885.524	21934
885.65	21930
885.775	22093
885.9	21880
886.025	22192
886.15	22162
886.275	21941
886.4	21873
886.525	21945
886.65	21918
886.775	22029
886.9	22097
887.025	22287
887.149	21960
887.274	21762
887.399	21819
887.523	21770
887.648	21701
887.773	21720
887.897	21797
888.021	21808
888.146	21652
888.27	21819
888.395	21808
888.519	21789
888.643	21842
888.767	21732
888.891	21774
889.015	21561
889.139	21568
889.263	21504
889.387	21648
889.511	21846
889.635	21743
889.759	21466
889.883	21504
890.006	21625
890.13	21717
890.254	21523
890.377	21458
890.501	21317
890.624	21325
890.748	21310
890.871	21230
890.995	21116
891.118	21116
891.241	21074
891.364	21081
891.488	21218
891.611	21024
891.734	21146
891.857	21093
891.98	21009
892.103	21226
892.226	21199
892.349	21028
892.471	20990
892.594	21024
892.717	21055
892.839	20971
892.962	21066
893.085	21005
893.207	20914
893.33	20842
893.452	20929
893.575	20979
893.697	21028
893.819	21173
893.941	21214
894.064	21066
894.186	20918
894.308	20929
894.43	21032
894.552	21089
894.674	21127
894.796	20883
894.918	21051
895.04	20857
895.161	21051
895.283	21062
895.405	20921
895.526	20880
895.648	20880
895.769	21070
895.891	20902
896.012	21150
896.134	21047
896.255	21070
896.376	20826
896.498	20941
896.619	20929
896.74	21039
896.861	21074
896.982	21351
897.103	21485
897.224	21310
897.345	21180
897.466	21131
897.587	21283
897.708	21355
897.828	21245
897.949	21154
898.07	21028
898.19	21119
898.311	21291
898.431	21108
898.552	21142
898.672	21192
898.792	21218
898.913	21199
899.033	21066
899.153	21020
899.273	20826
899.393	20990
899.513	21005
899.633	20979
899.753	21028
899.873	20887
899.993	20937
900.113	20826
900.232	20948
900.352	20781
900.472	20781
900.591	20655
900.711	20587
900.83	20655
900.95	20781
901.069	20826
901.189	20583
901.308	20290
901.427	20202
901.546	20309
901.665	20301
901.784	20225
901.904	20100
902.023	20096
902.141	19887
902.26	19887
902.379	19845
902.498	19761
902.617	19712
902.735	19769
902.854	19772
902.973	19594
903.091	19365
903.21	19422
903.328	19514
903.446	19350
903.565	19168
903.683	19244
903.801	19107
903.919	19175
904.038	19282
904.156	19004
904.274	19057
904.392	18901
904.51	19019
904.627	18966
904.745	19015
904.863	18958
904.981	18711
905.098	18563
905.216	18589
905.334	18650
905.451	18646
905.569	18559
905.686	18597
905.803	18677
905.921	18445
906.038	18566
906.155	18372
906.272	18353
906.389	18342
906.506	18224
906.623	18155
906.74	18121
906.857	17999
906.974	18076
907.091	18159
907.208	18273
907.324	18174
907.441	18155
907.557	17859
907.674	17794
907.79	17832
907.907	17878
908.023	17901
908.139	17920
908.256	17794
908.372	17847
908.488	17756
908.604	17554
908.72	17543
908.836	17756
908.952	17471
909.068	17638
909.184	17714
909.3	17570
909.415	17551
909.531	17638
909.647	17379
909.762	17212
909.878	17231
909.993	17261
910.108	17216
910.224	17273
910.339	17220
910.454	17071
910.57	17121
910.685	17075
910.8	17360
910.915	17170
911.03	17220
911.145	17010
911.259	16881
911.374	16957
911.489	16805
911.604	16774
911.718	16664
911.833	16641
911.947	16569
912.062	16462
912.176	16637
912.291	16660
912.405	16683
912.519	16790
912.633	16816
912.748	16611
912.862	16660
912.976	16546
913.09	16303
913.204	16417
913.318	16424
913.431	16535
913.545	16542
913.659	16645
913.772	16337
913.886	16291
914	16238
914.113	16219
914.226	16341
914.34	16337
914.453	16078
914.566	16253
914.68	16105
914.793	15994
914.906	15903
915.019	15789
915.132	15751
915.245	15781
915.358	15880
915.47	15850
915.583	15766
915.696	15808
915.809	15903
915.921	15956
916.034	15774
916.146	15724
916.259	15679
916.371	15724
916.483	15682
916.595	15614
916.708	15656
916.82	15580
916.932	15584
917.044	15549
917.156	15549
917.268	15408
917.38	15382
917.491	15420
917.603	15405
917.715	15530
917.826	15462
917.938	15435
918.049	15165
918.161	15393
918.272	15564
918.384	15408
918.495	15351
918.606	15272
918.717	15089
918.828	15150
918.939	15268
919.05	15051
919.161	15112
919.272	14944
919.383	15017
919.494	15138
919.604	15431
919.715	15203
919.826	15062
919.936	15112
920.047	15188
920.157	15100
920.267	15298
920.378	15237
920.488	15074
920.598	15230
920.708	15466
920.818	15245
920.928	15218
921.038	15367
921.148	15260
921.258	15028
921.368	14925
921.477	14800
921.587	14876
921.697	14731
921.806	14842
921.916	14556
922.025	14583
922.134	14492
922.244	14495
922.353	14454
922.462	14351
922.571	14218
922.68	14199
922.789	14187
922.898	14073
923.007	14054
923.116	14119
923.224	14050
923.333	13993
923.442	13944
923.55	13974
923.659	13906
923.767	13967
923.876	13909
923.984	13875
924.092	13761
924.201	13921
924.309	13814
924.417	13837
924.525	13693
924.633	13826
924.741	14541
924.849	13575
924.956	13655
925.064	13411
925.172	13483
925.279	13464
925.387	13518
925.494	13491
925.602	13613
925.709	13605
925.816	13403
925.924	13487
926.031	13586
926.138	13415
926.245	13441
926.352	13358
926.459	13426
926.566	13457
926.673	13324
926.779	13232
926.886	13266
926.993	13095
927.099	13126
927.206	12935
927.312	13031
927.419	13084
927.525	12977
927.631	13164
927.737	12951
927.843	12897
927.95	12700
928.056	12791
928.162	12886
928.267	12909
928.373	13533
928.479	12848
928.585	12669
928.69	12783
928.796	12871
928.901	12646
929.007	12559
929.112	12688
929.218	12692
929.323	12555
929.428	12574
929.533	12696
929.638	12410
929.743	12509
929.848	12582
929.953	12486
930.058	12391
930.163	12243
930.267	12239
930.372	12388
930.477	12258
930.581	12327
930.685	12311
930.79	12114
930.894	12026
930.998	12011
931.103	12296
931.207	11813
931.311	11760
931.415	11714
931.519	11524
931.623	11478
