Data from test_V78500241_1507.txt Node
Date: Fri Mar 25 15:52:14 CST 2022
User: usil
Spectrometer: V785-0024
Trigger mode: 0
Integration Time (sec): 4.000000E-1
Scans to average: 1
Nonlinearity correction enabled: false
Boxcar width: 0
Storing dark spectrum: false
XAxis mode: Wavelengths
Number of Pixels in Spectrum: 1024
>>>>>Begin Spectral Data<<<<<
801.071	28070
801.214	28010
801.356	27682
801.499	27762
801.641	27747
801.783	27462
801.926	27576
802.068	27534
802.211	27443
802.353	27424
802.496	27325
802.638	27477
802.78	27294
802.923	27192
803.065	27127
803.208	27176
803.35	27260
803.492	27545
803.635	27374
803.777	27348
803.919	27492
804.061	27743
804.204	27485
804.346	27469
804.488	27279
804.63	27496
804.773	27397
804.915	27561
805.057	27614
805.199	27447
805.341	27564
805.483	27564
805.626	27751
805.768	27549
805.91	27629
806.052	27679
806.194	27637
806.336	27930
806.478	27694
806.62	27641
806.762	27736
806.904	27956
807.046	28082
807.188	27956
807.33	28067
807.472	28097
807.614	28173
807.756	27926
807.898	27960
808.04	27838
808.182	27876
808.324	27941
808.465	27987
808.607	28120
808.749	28204
808.891	28436
809.033	28375
809.174	28333
809.316	28253
809.458	28249
809.6	28249
809.741	28440
809.883	28531
810.025	28401
810.166	28485
810.308	28424
810.45	28500
810.591	28455
810.733	28417
810.875	28257
811.016	28135
811.158	28131
811.299	28363
811.441	28322
811.582	28390
811.724	28337
811.865	28128
812.007	28329
812.148	28234
812.29	28257
812.431	28459
812.573	28485
812.714	28516
812.855	28858
812.997	28866
813.138	28915
813.279	29079
813.421	28888
813.562	28596
813.703	28508
813.845	28519
813.986	28177
814.127	28105
814.268	27945
814.41	27884
814.551	27903
814.692	27953
814.833	27823
814.974	27876
815.115	28067
815.256	27789
815.397	27854
815.539	27778
815.68	27690
815.821	27679
815.962	27751
816.103	27979
816.244	27625
816.385	27534
816.526	27553
816.666	27454
816.807	27302
816.948	27165
817.089	27298
817.23	27408
817.371	27283
817.512	27340
817.653	27096
817.793	27233
817.934	27131
818.075	27313
818.216	27359
818.356	27131
818.497	27180
818.638	26971
818.778	26963
818.919	26925
819.06	26944
819.2	27146
819.341	27245
819.481	27283
819.622	27336
819.762	27652
819.903	27618
820.043	27393
820.184	27431
820.324	27252
820.465	27393
820.605	27492
820.746	27435
820.886	27161
821.026	27351
821.167	27283
821.307	27511
821.447	27306
821.588	27146
821.728	27116
821.868	26857
822.008	26743
822.149	26777
822.289	26811
822.429	26469
822.569	26358
822.709	26362
822.849	26320
822.99	26267
823.13	26301
823.27	26199
823.41	26096
823.55	25986
823.69	25997
823.83	26096
823.97	25993
824.11	25750
824.25	25860
824.389	25909
824.529	25856
824.669	25852
824.809	25936
824.949	25902
825.089	25982
825.228	25997
825.368	25670
825.508	25803
825.648	25818
825.787	25753
825.927	25677
826.067	25708
826.206	25799
826.346	25807
826.485	25845
826.625	25803
826.765	25750
826.904	25822
827.044	25559
827.183	25453
827.323	25483
827.462	25449
827.601	25358
827.741	25499
827.88	25525
828.02	25293
828.159	25400
828.298	25518
828.437	25422
828.577	25415
828.716	25552
828.855	25369
828.994	25171
829.134	25122
829.273	25152
829.412	25095
829.551	25050
829.69	25103
829.829	25148
829.968	25141
830.107	25179
830.246	25282
830.385	25107
830.524	25072
830.663	24947
830.802	24920
830.941	24810
831.08	24566
831.219	24783
831.357	24829
831.496	24867
831.635	24837
831.774	24677
831.913	24563
832.051	24646
832.19	24589
832.329	24623
832.467	24380
832.606	24369
832.744	24357
832.883	24456
833.022	24380
833.16	24445
833.299	24460
833.437	24315
833.576	24540
833.714	24475
833.852	24452
833.991	24559
834.129	24551
834.267	24585
834.406	24437
834.544	24479
834.682	24403
834.821	24486
834.959	24802
835.097	24460
835.235	24544
835.373	24330
835.511	24445
835.65	24251
835.788	24311
835.926	24148
836.064	24060
836.202	24159
836.34	24426
836.478	24399
836.615	24273
836.753	24327
836.891	24342
837.029	24365
837.167	24422
837.305	24228
837.443	24140
837.58	24121
837.718	24353
837.856	24125
837.993	24072
838.131	24117
838.269	24030
838.406	24026
838.544	23927
838.681	23748
838.819	23718
838.956	23672
839.094	23585
839.231	23581
839.369	23817
839.506	24068
839.643	23836
839.781	23570
839.918	23608
840.055	23676
840.193	23531
840.33	23497
840.467	23528
840.604	23642
840.742	23752
840.879	23467
841.016	23425
841.153	23486
841.29	23566
841.427	23539
841.564	23463
841.701	23497
841.838	23501
841.975	23368
842.112	23414
842.249	23364
842.385	23444
842.522	23455
842.659	23288
842.796	23318
842.933	23345
843.069	23185
843.206	23216
843.343	23360
843.479	23235
843.616	23239
843.752	23029
843.889	22995
844.025	23258
844.162	23185
844.298	23269
844.435	23166
844.571	23044
844.708	23189
844.844	23231
844.98	23067
845.117	23162
845.253	23025
845.389	22984
845.525	22980
845.661	22885
845.798	22733
845.934	22896
846.07	22660
846.206	22793
846.342	22881
846.478	22820
846.614	22451
846.75	22527
846.886	22611
847.022	22413
847.158	22538
847.294	22580
847.429	22535
847.565	22504
847.701	22706
847.837	22306
847.972	22268
848.108	22306
848.244	22356
848.379	22154
848.515	22059
848.65	22044
848.786	22131
848.921	22162
849.057	22284
849.192	22116
849.328	22135
849.463	22101
849.598	22101
849.734	21960
849.869	22029
850.004	21911
850.14	21873
850.275	21808
850.41	21831
850.545	21797
850.68	21827
850.815	21922
850.95	21960
851.085	21960
851.22	21968
851.355	21964
851.49	21827
851.625	21797
851.76	21850
851.895	21861
852.03	21793
852.165	21907
852.299	21819
852.434	21949
852.569	21854
852.703	21964
852.838	21816
852.973	21983
853.107	22040
853.242	21800
853.376	21774
853.511	21622
853.645	21606
853.78	21842
853.914	21789
854.048	21595
854.183	21717
854.317	21667
854.451	21827
854.585	21656
854.72	21679
854.854	21717
854.988	21656
855.122	21739
855.256	21614
855.39	21587
855.524	21899
855.658	21819
855.792	21519
855.926	21789
856.06	21747
856.194	21812
856.327	21606
856.461	21656
856.595	21553
856.729	21633
856.862	21778
856.996	21675
857.13	21778
857.263	21808
857.397	21709
857.53	21675
857.664	21720
857.797	21755
857.931	21736
858.064	21728
858.197	21751
858.331	21797
858.464	21545
858.597	21530
858.731	21652
858.864	21709
858.997	21644
859.13	21663
859.263	21679
859.396	21663
859.529	21717
859.662	21762
859.795	21724
859.928	21679
860.061	21975
860.194	21838
860.327	21846
860.46	21774
860.592	21739
860.725	21850
860.858	21865
860.99	21720
861.123	21690
861.256	21644
861.388	21690
861.521	22265
861.653	21629
861.786	21397
861.918	21576
862.05	21622
862.183	21580
862.315	21656
862.447	21671
862.58	21675
862.712	21504
862.844	21431
862.976	21431
863.108	21473
863.24	21975
863.372	21329
863.504	21443
863.636	21351
863.768	21435
863.9	21500
864.032	21313
864.164	21355
864.296	21458
864.428	21504
864.559	21469
864.691	21549
864.823	21443
864.954	21405
865.086	21412
865.217	21530
865.349	21222
865.48	21359
865.612	21321
865.743	21439
865.875	21268
866.006	21279
866.137	21412
866.269	21332
866.4	21176
866.531	21237
866.662	21241
866.793	21310
866.924	21203
867.055	21218
867.186	21211
867.317	21252
867.448	21127
867.579	21233
867.71	21150
867.841	21203
867.972	21306
868.103	21192
868.233	21230
868.364	21412
868.495	21264
868.625	21504
868.756	21591
868.886	21374
869.017	21485
869.147	21656
869.278	21614
869.408	21545
869.539	21412
869.669	21526
869.799	21530
869.929	21557
870.06	21557
870.19	21838
870.32	21842
870.45	21850
870.58	21876
870.71	21876
870.84	21972
870.97	21911
871.1	21846
871.23	21956
871.36	22139
871.489	21930
871.619	22051
871.749	22109
871.879	21979
872.008	22150
872.138	21884
872.267	22051
872.397	21934
872.526	21915
872.656	21831
872.785	21934
872.915	22025
873.044	22166
873.173	22078
873.303	22154
873.432	22268
873.561	22059
873.69	22128
873.819	22147
873.948	22242
874.077	22067
874.206	22078
874.335	22082
874.464	22169
874.593	22436
874.722	22188
874.851	22287
874.979	22382
875.108	22371
875.237	22257
875.365	22272
875.494	22230
875.623	22299
875.751	22238
875.88	22344
876.008	22519
876.136	22588
876.265	22653
876.393	22740
876.521	22733
876.65	22672
876.778	22565
876.906	22592
877.034	22736
877.162	22683
877.29	22668
877.418	22694
877.546	22717
877.674	22637
877.802	22656
877.93	22611
878.058	22580
878.185	22603
878.313	22588
878.441	22622
878.568	22478
878.696	22607
878.824	22584
878.951	22649
879.079	22816
879.206	22889
879.333	22786
879.461	22717
879.588	22835
879.715	22915
879.842	22869
879.97	22683
880.097	22375
880.224	22413
880.351	22527
880.478	22424
880.605	22367
880.732	22675
880.859	22675
880.986	22504
881.112	22561
881.239	22455
881.366	22234
881.493	22166
881.619	22211
881.746	22181
881.872	22074
881.999	22078
882.125	21998
882.252	22131
882.378	22006
882.505	22200
882.631	21895
882.757	21816
882.883	21907
883.01	21857
883.136	21660
883.262	21671
883.388	21648
883.514	21854
883.64	21793
883.766	21743
883.892	21435
884.018	21538
884.143	21648
884.269	21766
884.395	21648
884.52	21294
884.646	21363
884.772	21321
884.897	21344
885.023	21313
885.148	21504
885.274	21564
885.399	21492
885.524	21302
885.65	21378
885.775	21329
885.9	21294
886.025	21583
886.15	21530
886.275	21469
886.4	21272
886.525	21397
886.65	21218
886.775	21275
886.9	21473
887.025	21564
887.149	21325
887.274	21169
887.399	21207
887.523	21165
887.648	21112
887.773	21161
887.897	21184
888.021	21123
888.146	21028
888.27	21203
888.395	21317
888.519	21070
888.643	21119
888.767	21249
888.891	21001
889.015	20944
889.139	21100
889.263	21058
889.387	21028
889.511	21138
889.635	21001
889.759	20982
889.883	20826
890.006	20967
890.13	21085
890.254	20902
890.377	20834
890.501	20667
890.624	20609
890.748	20781
890.871	20686
890.995	20446
891.118	20461
891.241	20590
891.364	20427
891.488	20625
891.611	20522
891.734	20541
891.857	20469
891.98	20419
892.103	20537
892.226	20564
892.349	20423
892.471	20282
892.594	20484
892.717	20503
892.839	20408
892.962	20412
893.085	20480
893.207	20374
893.33	20309
893.452	20180
893.575	20454
893.697	20438
893.819	20678
893.941	20583
894.064	20552
894.186	20336
894.308	20332
894.43	20511
894.552	20522
894.674	20518
894.796	20218
894.918	20381
895.04	20408
895.161	20499
895.283	20446
895.405	20362
895.526	20450
895.648	20511
895.769	20396
895.891	20518
896.012	20480
896.134	20427
896.255	20473
896.376	20275
896.498	20351
896.619	20522
896.74	20374
896.861	20450
896.982	20705
897.103	20842
897.224	20716
897.345	20667
897.466	20549
897.587	20541
897.708	20739
897.828	20640
897.949	20488
898.07	20415
898.19	20522
898.311	20655
898.431	20484
898.552	20583
898.672	20727
898.792	20640
898.913	20594
899.033	20396
899.153	20499
899.273	20317
899.393	20347
899.513	20313
899.633	20423
899.753	20351
899.873	20309
899.993	20461
900.113	20374
900.232	20495
900.352	20176
900.472	20221
900.591	20138
900.711	20103
900.83	20115
900.95	20221
901.069	20290
901.189	20050
901.308	19818
901.427	19689
901.546	19750
901.665	19757
901.784	19712
901.904	19548
902.023	19559
902.141	19331
902.26	19449
902.379	19403
902.498	19266
902.617	19206
902.735	19320
902.854	19187
902.973	19099
903.091	18848
903.21	18924
903.328	18837
903.446	18776
903.565	18696
903.683	18681
903.801	18707
903.919	18726
904.038	18574
904.156	18544
904.274	18585
904.392	18437
904.51	18426
904.627	18422
904.745	18555
904.863	18483
904.981	18273
905.098	18232
905.216	18159
905.334	18167
905.451	18186
905.569	18049
905.686	18213
905.803	18133
905.921	17927
906.038	17851
906.155	17996
906.272	17855
906.389	17863
906.506	17680
906.623	17680
906.74	17783
906.857	17497
906.974	17668
907.091	17824
907.208	17805
907.324	17551
907.441	17558
907.557	17395
907.674	17406
907.79	17334
907.907	17383
908.023	17425
908.139	17341
908.256	17288
908.372	17311
908.488	17231
908.604	17090
908.72	16961
908.836	17216
908.952	17014
909.068	17124
909.184	17117
909.3	17102
909.415	17132
909.531	17102
909.647	16908
909.762	16869
909.878	16744
909.993	16752
910.108	16679
910.224	16721
910.339	16763
910.454	16653
910.57	16577
910.685	16599
910.8	16793
910.915	16812
911.03	16565
911.145	16424
911.259	16310
911.374	16535
911.489	16276
911.604	16295
911.718	16150
911.833	16207
911.947	16006
912.062	16071
912.176	16188
912.291	16219
912.405	16158
912.519	16325
912.633	16337
912.748	16192
912.862	16169
912.976	15934
913.09	15789
913.204	15926
913.318	15979
913.431	16101
913.545	15991
913.659	16139
913.772	15941
913.886	15827
914	15652
914.113	15850
914.226	15720
914.34	15709
914.453	15557
914.566	15747
914.68	15622
914.793	15625
914.906	15370
915.019	15302
915.132	15367
915.245	15272
915.358	15321
915.47	15344
915.583	15313
915.696	15325
915.809	15515
915.921	15477
916.034	15283
916.146	15226
916.259	15252
916.371	15298
916.483	15169
916.595	15116
916.708	15127
916.82	15108
916.932	15116
917.044	15066
917.156	15017
917.268	15051
917.38	15055
917.491	14956
917.603	14963
917.715	14952
917.826	14971
917.938	14918
918.049	14895
918.161	14933
918.272	15043
918.384	15047
918.495	14910
918.606	14773
918.717	14629
918.828	14724
918.939	14735
919.05	14636
919.161	14815
919.272	14473
919.383	14587
919.494	14792
919.604	14925
919.715	14644
919.826	14575
919.936	14682
920.047	14773
920.157	14746
920.267	14872
920.378	14651
920.488	14743
920.598	14883
920.708	14948
920.818	14804
920.928	14800
921.038	15024
921.148	14941
921.258	14629
921.368	14594
921.477	14408
921.587	14484
921.697	14206
921.806	14400
921.916	14218
922.025	14187
922.134	14073
922.244	13955
922.353	14191
922.462	13978
922.571	13925
922.68	13788
922.789	13696
922.898	13734
923.007	13643
923.116	13753
923.224	13746
923.333	13700
923.442	13620
923.55	13544
923.659	13533
923.767	13601
923.876	13445
923.984	13586
924.092	13415
924.201	13651
924.309	13476
924.417	13506
924.525	13346
924.633	13487
924.741	14412
924.849	13084
924.956	13236
925.064	13107
925.172	13050
925.279	13084
925.387	13221
925.494	13126
925.602	13194
925.709	13179
925.816	12909
925.924	13122
926.031	13160
926.138	13122
926.245	13133
926.352	12954
926.459	13118
926.566	13034
926.673	13129
926.779	12867
926.886	12840
926.993	12684
927.099	12722
927.206	12696
927.312	12635
927.419	12646
927.525	12696
927.631	12681
927.737	12616
927.843	12456
927.95	12441
928.056	12555
928.162	12490
928.267	12601
928.373	13152
928.479	12635
928.585	12403
928.69	12540
928.796	12456
928.901	12483
929.007	12213
929.112	12273
929.218	12308
929.323	12239
929.428	12163
929.533	12346
929.638	12163
929.743	12254
929.848	12262
929.953	12083
930.058	12030
930.163	11923
930.267	12015
930.372	12144
930.477	11901
930.581	12091
930.685	11996
930.79	11760
930.894	11767
930.998	11805
931.103	11805
931.207	11558
931.311	11482
931.415	11410
931.519	11147
931.623	11151
