Data from test_V78500241_783.txt Node
Date: Fri Mar 25 15:47:13 CST 2022
User: usil
Spectrometer: V785-0024
Trigger mode: 0
Integration Time (sec): 4.000000E-1
Scans to average: 1
Nonlinearity correction enabled: false
Boxcar width: 0
Storing dark spectrum: false
XAxis mode: Wavelengths
Number of Pixels in Spectrum: 1024
>>>>>Begin Spectral Data<<<<<
801.071	27146
801.214	26948
801.356	26663
801.499	26708
801.641	26511
801.783	26575
801.926	26648
802.068	26453
802.211	26404
802.353	26324
802.496	26252
802.638	26351
802.78	26138
802.923	26199
803.065	26054
803.208	26183
803.35	26282
803.492	26275
803.635	26362
803.777	26161
803.919	26362
804.061	26537
804.204	26244
804.346	26336
804.488	26286
804.63	26214
804.773	26389
804.915	26351
805.057	26366
805.199	26271
805.341	26457
805.483	26541
805.626	26568
805.768	26343
805.91	26442
806.052	26461
806.194	26206
806.336	26602
806.478	26499
806.62	26587
806.762	26556
806.904	26629
807.046	26880
807.188	26899
807.33	26796
807.472	26891
807.614	26872
807.756	26876
807.898	26598
808.04	26625
808.182	26697
808.324	26644
808.465	26720
808.607	26921
808.749	27070
808.891	27195
809.033	27332
809.174	27169
809.316	27131
809.458	27146
809.6	27165
809.741	27241
809.883	27287
810.025	27397
810.166	27397
810.308	27249
810.45	27287
810.591	27245
810.733	26990
810.875	26982
811.016	27055
811.158	26921
811.299	27001
811.441	27138
811.582	27127
811.724	27066
811.865	27013
812.007	27077
812.148	26967
812.29	27047
812.431	27218
812.573	27332
812.714	27469
812.855	27583
812.997	27568
813.138	27884
813.279	27698
813.421	27591
813.562	27583
813.703	27500
813.845	27081
813.986	26929
814.127	26807
814.268	26705
814.41	26629
814.551	26636
814.692	26739
814.833	26708
814.974	26743
815.115	26712
815.256	26697
815.397	26522
815.539	26507
815.68	26446
815.821	26336
815.962	26499
816.103	26442
816.244	26389
816.385	26317
816.526	26339
816.666	26183
816.807	25906
816.948	26081
817.089	26077
817.23	25986
817.371	25970
817.512	25936
817.653	26065
817.793	25883
817.934	25928
818.075	26020
818.216	25921
818.356	25951
818.497	25750
818.638	25696
818.778	25712
818.919	25727
819.06	25849
819.2	25655
819.341	25890
819.481	25955
819.622	25989
819.762	26168
819.903	26229
820.043	26122
820.184	26012
820.324	26020
820.465	26176
820.605	26103
820.746	25963
820.886	25868
821.026	25959
821.167	26001
821.307	26016
821.447	25913
821.588	25826
821.728	25715
821.868	25514
822.008	25453
822.149	25354
822.289	25240
822.429	25129
822.569	25198
822.709	25088
822.849	24897
822.99	24833
823.13	24924
823.27	24954
823.41	24894
823.55	24604
823.69	24810
823.83	24787
823.97	24677
824.11	24464
824.25	24551
824.389	24639
824.529	24601
824.669	24566
824.809	24738
824.949	24692
825.089	24772
825.228	24700
825.368	24475
825.508	24346
825.648	24475
825.787	24498
825.927	24528
826.067	24346
826.206	24418
826.346	24509
826.485	24525
826.625	24441
826.765	24525
826.904	24376
827.044	24258
827.183	24106
827.323	24030
827.462	24125
827.601	24136
827.741	24068
827.88	24064
828.02	23931
828.159	24064
828.298	24155
828.437	24186
828.577	23920
828.716	24190
828.855	23958
828.994	23866
829.134	23828
829.273	23710
829.412	23767
829.551	23771
829.69	23802
829.829	23665
829.968	23901
830.107	23874
830.246	23958
830.385	23798
830.524	23680
830.663	23615
830.802	23562
830.941	23353
831.08	23334
831.219	23554
831.357	23509
831.496	23623
831.635	23509
831.774	23216
831.913	23159
832.051	23364
832.19	23250
832.329	23322
832.467	23155
832.606	23025
832.744	23246
832.883	23041
833.022	23052
833.16	23212
833.299	23288
833.437	23132
833.576	23098
833.714	23090
833.852	23288
833.991	23212
834.129	23265
834.267	23261
834.406	23235
834.544	23288
834.682	23159
834.821	23162
834.959	23208
835.097	23025
835.235	23239
835.373	23162
835.511	23124
835.65	23018
835.788	23086
835.926	22816
836.064	22889
836.202	22820
836.34	22991
836.478	22968
836.615	22908
836.753	23185
836.891	23086
837.029	22957
837.167	23048
837.305	23014
837.443	22900
837.58	22835
837.718	22923
837.856	22908
837.993	22763
838.131	22793
838.269	22729
838.406	22744
838.544	22691
838.681	22516
838.819	22531
838.956	22246
839.094	22295
839.231	22325
839.369	22516
839.506	22733
839.643	22618
839.781	22325
839.918	22314
840.055	22337
840.193	22379
840.33	22295
840.467	22188
840.604	22261
840.742	22519
840.879	22112
841.016	22112
841.153	22272
841.29	22363
841.427	22280
841.564	22325
841.701	22207
841.838	22177
841.975	22230
842.112	22219
842.249	22078
842.385	22147
842.522	22276
842.659	22128
842.796	22006
842.933	22025
843.069	21808
843.206	21937
843.343	22097
843.479	22029
843.616	22025
843.752	21751
843.889	21774
844.025	22032
844.162	21850
844.298	21934
844.435	21751
844.571	21720
844.708	21694
844.844	21975
844.98	22002
845.117	21911
845.253	21709
845.389	21534
845.525	21698
845.661	21583
845.798	21428
845.934	21652
846.07	21511
846.206	21473
846.342	21648
846.478	21530
846.614	21302
846.75	21302
846.886	21241
847.022	21294
847.158	21275
847.294	21214
847.429	21291
847.565	21199
847.701	21462
847.837	20933
847.972	20868
848.108	21173
848.244	21020
848.379	20941
848.515	20819
848.65	20845
848.786	20777
848.921	20914
849.057	20906
849.192	20861
849.328	20891
849.463	20842
849.598	20849
849.734	20735
849.869	20716
850.004	20609
850.14	20549
850.275	20571
850.41	20549
850.545	20598
850.68	20473
850.815	20667
850.95	20530
851.085	20823
851.22	20640
851.355	20583
851.49	20579
851.625	20629
851.76	20632
851.895	20442
852.03	20522
852.165	20659
852.299	20659
852.434	20667
852.569	20712
852.703	20621
852.838	20712
852.973	20819
853.107	20765
853.242	20511
853.376	20419
853.511	20263
853.645	20385
853.78	20613
853.914	20469
854.048	20332
854.183	20450
854.317	20469
854.451	20602
854.585	20396
854.72	20404
854.854	20575
854.988	20381
855.122	20461
855.256	20301
855.39	20343
855.524	20461
855.658	20511
855.792	20511
855.926	20480
856.06	20564
856.194	20560
856.327	20396
856.461	20511
856.595	20362
856.729	20377
856.862	20473
856.996	20541
857.13	20488
857.263	20625
857.397	20495
857.53	20431
857.664	20480
857.797	20514
857.931	20644
858.064	20465
858.197	20598
858.331	20423
858.464	20381
858.597	20370
858.731	20400
858.864	20377
858.997	20374
859.13	20518
859.263	20415
859.396	20522
859.529	20385
859.662	20415
859.795	20377
859.928	20469
860.061	20686
860.194	20651
860.327	20499
860.46	20431
860.592	20541
860.725	20590
860.858	20568
860.99	20419
861.123	20294
861.256	20351
861.388	20484
861.521	21108
861.653	20393
861.786	20229
861.918	20282
862.05	20313
862.183	20317
862.315	20351
862.447	20469
862.58	20313
862.712	20202
862.844	20164
862.976	20122
863.108	20267
863.24	20743
863.372	20039
863.504	20157
863.636	20142
863.768	20111
863.9	20195
864.032	20024
864.164	20107
864.296	20153
864.428	20233
864.559	20267
864.691	20218
864.823	20225
864.954	20172
865.086	20122
865.217	20161
865.349	20027
865.48	20103
865.612	20107
865.743	20191
865.875	20027
866.006	20027
866.137	20020
866.269	20065
866.4	19959
866.531	19944
866.662	19997
866.793	19997
866.924	20039
867.055	20024
867.186	20016
867.317	19970
867.448	19936
867.579	19940
867.71	19947
867.841	19959
867.972	20001
868.103	20107
868.233	20035
868.364	19974
868.495	20058
868.625	20130
868.756	20336
868.886	20259
869.017	20218
869.147	20362
869.278	20442
869.408	20370
869.539	20195
869.669	20256
869.799	20320
869.929	20438
870.06	20339
870.19	20609
870.32	20465
870.45	20602
870.58	20606
870.71	20781
870.84	20864
870.97	20659
871.1	20689
871.23	20933
871.36	20876
871.489	20781
871.619	20762
871.749	20750
871.879	20910
872.008	20914
872.138	20952
872.267	20773
872.397	20644
872.526	20754
872.656	20701
872.785	20804
872.915	20899
873.044	20979
873.173	20902
873.303	20819
873.432	20902
873.561	21017
873.69	20891
873.819	20834
873.948	20960
874.077	20872
874.206	20720
874.335	20921
874.464	20941
874.593	21077
874.722	21089
874.851	21161
874.979	21085
875.108	21161
875.237	20990
875.365	20948
875.494	21036
875.623	21127
875.751	21077
875.88	21222
876.008	21302
876.136	21283
876.265	21481
876.393	21614
876.521	21485
876.65	21610
876.778	21519
876.906	21469
877.034	21500
877.162	21511
877.29	21542
877.418	21564
877.546	21485
877.674	21408
877.802	21545
877.93	21443
878.058	21428
878.185	21321
878.313	21450
878.441	21435
878.568	21260
878.696	21321
878.824	21507
878.951	21599
879.079	21717
879.206	21800
879.333	21808
879.461	21401
879.588	21641
879.715	21614
879.842	21701
879.97	21606
880.097	21260
880.224	21310
880.351	21359
880.478	21272
880.605	21146
880.732	21317
880.859	21420
880.986	21325
881.112	21348
881.239	21245
881.366	21009
881.493	20921
881.619	20902
881.746	20921
881.872	20956
881.999	20845
882.125	20693
882.252	20880
882.378	20819
882.505	20887
882.631	20758
882.757	20518
882.883	20705
883.01	20609
883.136	20526
883.262	20438
883.388	20427
883.514	20530
883.64	20651
883.766	20526
883.892	20377
884.018	20366
884.143	20454
884.269	20682
884.395	20332
884.52	20282
884.646	20282
884.772	20233
884.897	20107
885.023	20233
885.148	20381
885.274	20465
885.399	20362
885.524	20206
885.65	20328
885.775	20206
885.9	20267
886.025	20404
886.15	20389
886.275	20168
886.4	20210
886.525	20206
886.65	20092
886.775	20187
886.9	20298
887.025	20446
887.149	20210
887.274	19944
887.399	19959
887.523	20039
887.648	19997
887.773	19826
887.897	19986
888.021	19986
888.146	20092
888.27	20107
888.395	20050
888.519	20081
888.643	20062
888.767	20081
888.891	19898
889.015	19849
889.139	19784
889.263	19822
889.387	19963
889.511	20046
889.635	19974
889.759	19909
889.883	19883
890.006	19909
890.13	19906
890.254	19757
890.377	19681
890.501	19655
890.624	19510
890.748	19597
890.871	19525
890.995	19411
891.118	19381
891.241	19426
891.364	19480
891.488	19445
891.611	19434
891.734	19419
891.857	19472
891.98	19312
892.103	19502
892.226	19312
892.349	19388
892.471	19316
892.594	19400
892.717	19346
892.839	19297
892.962	19304
893.085	19392
893.207	19301
893.33	19198
893.452	19137
893.575	19407
893.697	19320
893.819	19430
893.941	19597
894.064	19552
894.186	19304
894.308	19240
894.43	19419
894.552	19441
894.674	19445
894.796	19255
894.918	19270
895.04	19289
895.161	19422
895.283	19362
895.405	19282
895.526	19422
895.648	19289
895.769	19480
895.891	19426
896.012	19320
896.134	19430
896.255	19434
896.376	19270
896.498	19259
896.619	19460
896.74	19266
896.861	19441
896.982	19830
897.103	19906
897.224	19708
897.345	19575
897.466	19521
897.587	19563
897.708	19723
897.828	19582
897.949	19655
898.07	19464
898.19	19499
898.311	19704
898.431	19529
898.552	19575
898.672	19658
898.792	19658
898.913	19616
899.033	19586
899.153	19441
899.273	19225
899.393	19449
899.513	19377
899.633	19430
899.753	19419
899.873	19415
899.993	19324
900.113	19343
900.232	19293
900.352	19293
900.472	19194
900.591	19031
900.711	19137
900.83	19247
900.95	19301
901.069	19225
901.189	19057
901.308	18867
901.427	18741
901.546	18806
901.665	18741
901.784	18730
901.904	18646
902.023	18502
902.141	18361
902.26	18243
902.379	18277
902.498	18308
902.617	18178
902.735	18243
902.854	18262
902.973	18235
903.091	17977
903.21	18003
903.328	17950
903.446	17798
903.565	17813
903.683	17764
903.801	17687
903.919	17695
904.038	17687
904.156	17440
904.274	17596
904.392	17490
904.51	17505
904.627	17486
904.745	17524
904.863	17577
904.981	17372
905.098	17231
905.216	17181
905.334	17265
905.451	17204
905.569	17189
905.686	17174
905.803	17128
905.921	17025
906.038	17090
906.155	16911
906.272	16839
906.389	16866
906.506	16736
906.623	16759
906.74	16736
906.857	16687
906.974	16611
907.091	16763
907.208	16801
907.324	16771
907.441	16649
907.557	16538
907.674	16436
907.79	16440
907.907	16386
908.023	16493
908.139	16481
908.256	16333
908.372	16352
908.488	16272
908.604	16196
908.72	16067
908.836	16166
908.952	16246
909.068	16188
909.184	16394
909.3	16196
909.415	16154
909.531	16128
909.647	15934
909.762	15835
909.878	15915
909.993	15937
910.108	15930
910.224	15892
910.339	15895
910.454	15846
910.57	15736
910.685	15656
910.8	15857
910.915	15884
911.03	15671
911.145	15603
911.259	15511
911.374	15507
911.489	15401
911.604	15401
911.718	15279
911.833	15291
911.947	15142
912.062	15112
912.176	15370
912.291	15264
912.405	15302
912.519	15378
912.633	15450
912.748	15241
912.862	15161
912.976	14982
913.09	14982
913.204	14994
913.318	15127
913.431	15188
913.545	15199
913.659	15211
913.772	15066
913.886	14918
914	14883
914.113	14979
914.226	15036
914.34	15005
914.453	14727
914.566	14971
914.68	14804
914.793	14727
914.906	14575
915.019	14495
915.132	14415
915.245	14514
915.358	14610
915.47	14469
915.583	14522
915.696	14495
915.809	14629
915.921	14549
916.034	14431
916.146	14465
916.259	14374
916.371	14488
916.483	14442
916.595	14431
916.708	14351
916.82	14374
916.932	14271
917.044	14351
917.156	14138
917.268	14145
917.38	14157
917.491	14256
917.603	14195
917.715	14259
917.826	14271
917.938	14027
918.049	13967
918.161	14199
918.272	14191
918.384	14164
918.495	14157
918.606	13928
918.717	13955
918.828	14123
918.939	13947
919.05	13902
919.161	13936
919.272	13738
919.383	13795
919.494	14020
919.604	14244
919.715	13986
919.826	13868
919.936	13833
920.047	13963
920.157	13909
920.267	14092
920.378	13947
920.488	13902
920.598	14111
920.708	14336
920.818	14126
920.928	14134
921.038	14180
921.148	14183
921.258	13913
921.368	13860
921.477	13670
921.587	13670
921.697	13662
921.806	13738
921.916	13616
922.025	13324
922.134	13293
922.244	13373
922.353	13384
922.462	13274
922.571	13221
922.68	12966
922.789	12962
922.898	12947
923.007	12871
923.116	13008
923.224	12924
923.333	12905
923.442	12833
923.55	12882
923.659	12928
923.767	12977
923.876	12741
923.984	12787
924.092	12749
924.201	12814
924.309	12722
924.417	12738
924.525	12703
924.633	12684
924.741	13670
924.849	12544
924.956	12726
925.064	12486
925.172	12479
925.279	12471
925.387	12486
925.494	12448
925.602	12540
925.709	12494
925.816	12369
925.924	12414
926.031	12429
926.138	12445
926.245	12426
926.352	12319
926.459	12475
926.566	12494
926.673	12296
926.779	12205
926.886	12205
926.993	12019
927.099	11977
927.206	11950
927.312	12026
927.419	11973
927.525	12129
927.631	11961
927.737	11885
927.843	11923
927.95	11733
928.056	11813
928.162	11939
928.267	11874
928.373	12589
928.479	11954
928.585	11783
928.69	11779
928.796	11836
928.901	11786
929.007	11608
929.112	11775
929.218	11695
929.323	11630
929.428	11600
929.533	11729
929.638	11615
929.743	11524
929.848	11532
929.953	11562
930.058	11433
930.163	11349
930.267	11330
930.372	11452
930.477	11239
930.581	11486
930.685	11425
930.79	11166
930.894	11155
930.998	11159
931.103	11296
931.207	10930
931.311	10984
931.415	10850
931.519	10554
931.623	10565
