Data from test_V78500241_2056.txt Node
Date: Fri Mar 25 15:56:02 CST 2022
User: usil
Spectrometer: V785-0024
Trigger mode: 0
Integration Time (sec): 4.000000E-1
Scans to average: 1
Nonlinearity correction enabled: false
Boxcar width: 0
Storing dark spectrum: false
XAxis mode: Wavelengths
Number of Pixels in Spectrum: 1024
>>>>>Begin Spectral Data<<<<<
801.071	28946
801.214	28927
801.356	28672
801.499	28664
801.641	28550
801.783	28588
801.926	28710
802.068	28455
802.211	28485
802.353	28466
802.496	28367
802.638	28204
802.78	28158
802.923	28192
803.065	28124
803.208	28219
803.35	28291
803.492	28413
803.635	28554
803.777	28329
803.919	28542
804.061	28717
804.204	28489
804.346	28485
804.488	28470
804.63	28478
804.773	28440
804.915	28611
805.057	28752
805.199	28538
805.341	28599
805.483	28797
805.626	28557
805.768	28573
805.91	28618
806.052	28599
806.194	28493
806.336	28778
806.478	28653
806.62	28675
806.762	28786
806.904	28919
807.046	29200
807.188	29212
807.33	29067
807.472	29121
807.614	28987
807.756	29193
807.898	28915
808.04	28869
808.182	29010
808.324	29060
808.465	29086
808.607	29212
808.749	29372
808.891	29391
809.033	29573
809.174	29486
809.316	29322
809.458	29379
809.6	29375
809.741	29581
809.883	29573
810.025	29745
810.166	29653
810.308	29661
810.45	29490
810.591	29623
810.733	29497
810.875	29334
811.016	29349
811.158	29277
811.299	29421
811.441	29600
811.582	29524
811.724	29322
811.865	29337
812.007	29326
812.148	29425
812.29	29421
812.431	29493
812.573	29745
812.714	29794
812.855	30079
812.997	29901
813.138	30102
813.279	30053
813.421	29893
813.562	29752
813.703	29733
813.845	29600
813.986	29231
814.127	29197
814.268	29048
814.41	29155
814.551	28980
814.692	29136
814.833	28991
814.974	29041
815.115	29041
815.256	29025
815.397	28949
815.539	28965
815.68	29044
815.821	28900
815.962	28771
816.103	28919
816.244	28911
816.385	28656
816.526	28626
816.666	28478
816.807	28379
816.948	28508
817.089	28462
817.23	28443
817.371	28363
817.512	28394
817.653	28405
817.793	28329
817.934	28257
818.075	28401
818.216	28588
818.356	28314
818.497	28291
818.638	28082
818.778	28128
818.919	28029
819.06	28242
819.2	28246
819.341	28436
819.481	28618
819.622	28634
819.762	28744
819.903	28546
820.043	28512
820.184	28535
820.324	28443
820.465	28554
820.605	28493
820.746	28440
820.886	28390
821.026	28596
821.167	28588
821.307	28447
821.447	28497
821.588	28253
821.728	28230
821.868	28112
822.008	27854
822.149	27922
822.289	27880
822.429	27633
822.569	27424
822.709	27644
822.849	27412
822.99	27504
823.13	27359
823.27	27321
823.41	27157
823.55	27028
823.69	27298
823.83	27218
823.97	27157
824.11	27017
824.25	27013
824.389	27047
824.529	27077
824.669	26979
824.809	27291
824.949	27237
825.089	27275
825.228	27184
825.368	26921
825.508	26960
825.648	26921
825.787	26891
825.927	26971
826.067	26960
826.206	26811
826.346	26914
826.485	26918
826.625	26967
826.765	27032
826.904	27070
827.044	26651
827.183	26644
827.323	26609
827.462	26762
827.601	26674
827.741	26602
827.88	26644
828.02	26541
828.159	26754
828.298	26564
828.437	26845
828.577	26579
828.716	26549
828.855	26598
828.994	26301
829.134	26244
829.273	26328
829.412	26286
829.551	26271
829.69	26351
829.829	26275
829.968	26427
830.107	26332
830.246	26355
830.385	26393
830.524	26259
830.663	26081
830.802	26138
830.941	25898
831.08	25936
831.219	25875
831.357	26039
831.496	26065
831.635	26096
831.774	25776
831.913	25841
832.051	25704
832.19	25769
832.329	25727
832.467	25704
832.606	25578
832.744	25575
832.883	25639
833.022	25548
833.16	25586
833.299	25597
833.437	25670
833.576	25666
833.714	25753
833.852	25715
833.991	25719
834.129	25788
834.267	25807
834.406	25430
834.544	25674
834.682	25818
834.821	25639
834.959	25860
835.097	25620
835.235	25723
835.373	25609
835.511	25468
835.65	25479
835.788	25510
835.926	25445
836.064	25346
836.202	25384
836.34	25327
836.478	25556
836.615	25407
836.753	25426
836.891	25597
837.029	25590
837.167	25449
837.305	25381
837.443	25088
837.58	25320
837.718	25445
837.856	25403
837.993	25278
838.131	25331
838.269	25244
838.406	25187
838.544	25004
838.681	24920
838.819	25050
838.956	24726
839.094	24741
839.231	24795
839.369	24985
839.506	25168
839.643	25015
839.781	24719
839.918	24658
840.055	24688
840.193	24760
840.33	24601
840.467	24738
840.604	24749
840.742	24863
840.879	24551
841.016	24490
841.153	24456
841.29	24806
841.427	24540
841.564	24722
841.701	24711
841.838	24639
841.975	24528
842.112	24388
842.249	24566
842.385	24437
842.522	24707
842.659	24559
842.796	24365
842.933	24441
843.069	24338
843.206	24365
843.343	24372
843.479	24361
843.616	24422
843.752	24148
843.889	24262
844.025	24346
844.162	24144
844.298	24338
844.435	24323
844.571	24194
844.708	24235
844.844	24353
844.98	24300
845.117	24315
845.253	24121
845.389	24098
845.525	24102
845.661	24038
845.798	23866
845.934	23999
846.07	23904
846.206	24018
846.342	23992
846.478	23870
846.614	23722
846.75	23600
846.886	23646
847.022	23745
847.158	23646
847.294	23627
847.429	23821
847.565	23505
847.701	23809
847.837	23410
847.972	23459
848.108	23463
848.244	23512
848.379	23181
848.515	23261
848.65	23212
848.786	23258
848.921	23239
849.057	23330
849.192	23231
849.328	23315
849.463	23223
849.598	23083
849.734	23170
849.869	23071
850.004	23056
850.14	22999
850.275	22946
850.41	22881
850.545	22976
850.68	22953
850.815	23056
850.95	22980
851.085	23094
851.22	23109
851.355	23052
851.49	22957
851.625	22934
851.76	22904
851.895	22976
852.03	22980
852.165	23006
852.299	23025
852.434	23143
852.569	23052
852.703	23014
852.838	22995
852.973	23166
853.107	23174
853.242	23025
853.376	22721
853.511	22694
853.645	22748
853.78	22987
853.914	22797
854.048	22767
854.183	22782
854.317	22881
854.451	23033
854.585	22744
854.72	22816
854.854	22911
854.988	22786
855.122	22755
855.256	22733
855.39	22683
855.524	22748
855.658	22980
855.792	22869
855.926	22831
856.06	22763
856.194	22850
856.327	22729
856.461	22713
856.595	22645
856.729	22782
856.862	22908
856.996	22759
857.13	22835
857.263	22866
857.397	22946
857.53	22687
857.664	22816
857.797	22934
857.931	22801
858.064	22850
858.197	22793
858.331	22748
858.464	22683
858.597	22660
858.731	22892
858.864	22679
858.997	22752
859.13	22847
859.263	22919
859.396	23029
859.529	22694
859.662	22843
859.795	22763
859.928	22790
860.061	22984
860.194	22892
860.327	22706
860.46	22790
860.592	22991
860.725	22896
860.858	22972
860.99	22850
861.123	22683
861.256	22809
861.388	22736
861.521	23505
861.653	22755
861.786	22615
861.918	22565
862.05	22698
862.183	22702
862.315	22877
862.447	22801
862.58	22622
862.712	22440
862.844	22531
862.976	22706
863.108	22615
863.24	22938
863.372	22421
863.504	22523
863.636	22474
863.768	22497
863.9	22569
864.032	22462
864.164	22481
864.296	22470
864.428	22660
864.559	22478
864.691	22592
864.823	22333
864.954	22379
865.086	22432
865.217	22421
865.349	22398
865.48	22371
865.612	22500
865.743	22474
865.875	22363
866.006	22337
866.137	22398
866.269	22447
866.4	22333
866.531	22382
866.662	22257
866.793	22344
866.924	22394
867.055	22265
867.186	22284
867.317	22200
867.448	22169
867.579	22246
867.71	22272
867.841	22249
867.972	22341
868.103	22295
868.233	22200
868.364	22287
868.495	22421
868.625	22603
868.756	22752
868.886	22386
869.017	22550
869.147	22573
869.278	22634
869.408	22668
869.539	22550
869.669	22615
869.799	22691
869.929	22740
870.06	22672
870.19	22949
870.32	22812
870.45	22991
870.58	22858
870.71	23006
870.84	22961
870.97	22877
871.1	22877
871.23	23090
871.36	23102
871.489	23067
871.619	23079
871.749	23212
871.879	23064
872.008	23330
872.138	23121
872.267	23288
872.397	23094
872.526	22828
872.656	23094
872.785	23022
872.915	23223
873.044	23208
873.173	23235
873.303	23250
873.432	23170
873.561	23356
873.69	23174
873.819	23102
873.948	23307
874.077	23200
874.206	23220
874.335	23212
874.464	23311
874.593	23353
874.722	23273
874.851	23337
874.979	23429
875.108	23330
875.237	23277
875.365	23197
875.494	23330
875.623	23406
875.751	23322
875.88	23436
876.008	23558
876.136	23562
876.265	23775
876.393	23912
876.521	23840
876.65	23805
876.778	23699
876.906	23691
877.034	23676
877.162	23573
877.29	23615
877.418	23832
877.546	23726
877.674	23843
877.802	23722
877.93	23794
878.058	23642
878.185	23512
878.313	23672
878.441	23592
878.568	23566
878.696	23714
878.824	23786
878.951	23828
879.079	23901
879.206	24022
879.333	23805
879.461	23577
879.588	23741
879.715	23783
879.842	23870
879.97	23748
880.097	23608
880.224	23604
880.351	23680
880.478	23585
880.605	23474
880.732	23486
880.859	23843
880.986	23471
881.112	23425
881.239	23379
881.366	23185
881.493	23124
881.619	23155
881.746	23166
881.872	23102
881.999	23022
882.125	22991
882.252	23090
882.378	23102
882.505	23033
882.631	22923
882.757	22831
882.883	22763
883.01	22717
883.136	22653
883.262	22649
883.388	22637
883.514	22767
883.64	22706
883.766	22561
883.892	22550
884.018	22508
884.143	22725
884.269	22767
884.395	22413
884.52	22417
884.646	22265
884.772	22299
884.897	22360
885.023	22436
885.148	22550
885.274	22641
885.399	22398
885.524	22546
885.65	22428
885.775	22500
885.9	22462
886.025	22421
886.15	22523
886.275	22344
886.4	22318
886.525	22325
886.65	22394
886.775	22257
886.9	22417
887.025	22634
887.149	22223
887.274	22196
887.399	22192
887.523	22204
887.648	22150
887.773	21991
887.897	22192
888.021	22188
888.146	22048
888.27	22082
888.395	22215
888.519	22135
888.643	22078
888.767	22135
888.891	21987
889.015	21926
889.139	22021
889.263	21876
889.387	22063
889.511	22120
889.635	22078
889.759	21861
889.883	21842
890.006	21888
890.13	22002
890.254	21831
890.377	21819
890.501	21690
890.624	21842
890.748	21652
890.871	21477
890.995	21443
891.118	21405
891.241	21447
891.364	21504
891.488	21656
891.611	21443
891.734	21496
891.857	21519
891.98	21412
892.103	21405
892.226	21412
892.349	21397
892.471	21329
892.594	21378
892.717	21302
892.839	21374
892.962	21348
893.085	21363
893.207	21393
893.33	21188
893.452	21192
893.575	21382
893.697	21336
893.819	21530
893.941	21526
894.064	21431
894.186	21287
894.308	21252
894.43	21386
894.552	21469
894.674	21363
894.796	21272
894.918	21420
895.04	21233
895.161	21367
895.283	21397
895.405	21272
895.526	21272
895.648	21252
895.769	21363
895.891	21450
896.012	21439
896.134	21473
896.255	21382
896.376	21249
896.498	21207
896.619	21184
896.74	21405
896.861	21370
896.982	21667
897.103	21736
897.224	21530
897.345	21507
897.466	21431
897.587	21561
897.708	21641
897.828	21644
897.949	21523
898.07	21370
898.19	21329
898.311	21572
898.431	21416
898.552	21386
898.672	21599
898.792	21519
898.913	21496
899.033	21211
899.153	21298
899.273	21146
899.393	21154
899.513	21317
899.633	21188
899.753	21211
899.873	21131
899.993	21222
900.113	21176
900.232	21264
900.352	21264
900.472	21013
900.591	21017
900.711	21039
900.83	20895
900.95	21150
901.069	21100
901.189	20849
901.308	20659
901.427	20469
901.546	20602
901.665	20575
901.784	20689
901.904	20419
902.023	20336
902.141	20111
902.26	20039
902.379	20077
902.498	20069
902.617	20039
902.735	20046
902.854	20062
902.973	19860
903.091	19856
903.21	19757
903.328	19830
903.446	19632
903.565	19537
903.683	19480
903.801	19297
903.919	19651
904.038	19468
904.156	19259
904.274	19468
904.392	19282
904.51	19327
904.627	19198
904.745	19282
904.863	19255
904.981	19091
905.098	18996
905.216	19023
905.334	19019
905.451	18894
905.569	18928
905.686	18905
905.803	18837
905.921	18738
906.038	18859
906.155	18597
906.272	18715
906.389	18730
906.506	18521
906.623	18456
906.74	18521
906.857	18327
906.974	18467
907.091	18452
907.208	18677
907.324	18410
907.441	18289
907.557	18228
907.674	18186
907.79	18129
907.907	18136
908.023	18125
908.139	18254
908.256	18072
908.372	18041
908.488	18121
908.604	17912
908.72	17878
908.836	17859
908.952	17752
909.068	17942
909.184	17954
909.3	17794
909.415	17882
909.531	17840
909.647	17646
909.762	17535
909.878	17570
909.993	17528
910.108	17608
910.224	17551
910.339	17436
910.454	17387
910.57	17440
910.685	17421
910.8	17604
910.915	17414
911.03	17360
911.145	17181
911.259	17216
911.374	17220
911.489	17185
911.604	16987
911.718	16805
911.833	16889
911.947	16828
912.062	16687
912.176	16885
912.291	16854
912.405	16968
912.519	17033
912.633	16904
912.748	16976
912.862	16809
912.976	16668
913.09	16592
913.204	16683
913.318	16725
913.431	16744
913.545	16744
913.659	16771
913.772	16755
913.886	16451
914	16432
914.113	16577
914.226	16569
914.34	16512
914.453	16405
914.566	16542
914.68	16280
914.793	16363
914.906	16128
915.019	16036
915.132	16025
915.245	16086
915.358	16112
915.47	16139
915.583	16090
915.696	16029
915.809	16242
915.921	16234
916.034	16032
916.146	15884
916.259	15994
916.371	16048
916.483	16086
916.595	15888
916.708	15934
916.82	15880
916.932	15823
917.044	15835
917.156	15827
917.268	15660
917.38	15755
917.491	15736
917.603	15618
917.715	15694
917.826	15755
917.938	15553
918.049	15405
918.161	15652
918.272	15747
918.384	15755
918.495	15625
918.606	15469
918.717	15447
918.828	15332
918.939	15454
919.05	15348
919.161	15313
919.272	15184
919.383	15176
919.494	15466
919.604	15485
919.715	15443
919.826	15112
919.936	15351
920.047	15435
920.157	15428
920.267	15443
920.378	15401
920.488	15287
920.598	15584
920.708	15599
920.818	15469
920.928	15477
921.038	15694
921.148	15709
921.258	15348
921.368	15176
921.477	15093
921.587	15116
921.697	14967
921.806	15024
921.916	14952
922.025	14823
922.134	14724
922.244	14743
922.353	14693
922.462	14522
922.571	14590
922.68	14434
922.789	14351
922.898	14294
923.007	14202
923.116	14438
923.224	14320
923.333	14343
923.442	14240
923.55	14111
923.659	14126
923.767	14161
923.876	14107
923.984	14183
924.092	14031
924.201	14035
924.309	14077
924.417	14050
924.525	14016
924.633	13925
924.741	14914
924.849	13803
924.956	13959
925.064	13750
925.172	13677
925.279	13715
925.387	13776
925.494	13704
925.602	13807
925.709	13769
925.816	13544
925.924	13639
926.031	13715
926.138	13567
926.245	13776
926.352	13499
926.459	13670
926.566	13708
926.673	13502
926.779	13441
926.886	13491
926.993	13251
927.099	13225
927.206	13213
927.312	13240
927.419	13255
927.525	13206
927.631	13247
927.737	13183
927.843	13149
927.95	13034
928.056	13069
928.162	13110
928.267	13110
928.373	13708
928.479	13168
928.585	12920
928.69	12985
928.796	12989
928.901	12882
929.007	12730
929.112	12878
929.218	12867
929.323	12757
929.428	12741
929.533	12920
929.638	12730
929.743	12798
929.848	12730
929.953	12681
930.058	12559
930.163	12418
930.267	12395
930.372	12593
930.477	12365
930.581	12555
930.685	12494
930.79	12346
930.894	12410
930.998	12315
931.103	12414
931.207	12083
931.311	11920
931.415	11916
931.519	11680
931.623	11623
