Data from test_V78500241_2079.txt Node
Date: Fri Mar 25 15:56:12 CST 2022
User: usil
Spectrometer: V785-0024
Trigger mode: 0
Integration Time (sec): 4.000000E-1
Scans to average: 1
Nonlinearity correction enabled: false
Boxcar width: 0
Storing dark spectrum: false
XAxis mode: Wavelengths
Number of Pixels in Spectrum: 1024
>>>>>Begin Spectral Data<<<<<
801.071	29140
801.214	29075
801.356	28896
801.499	28908
801.641	28904
801.783	28820
801.926	28786
802.068	28702
802.211	28831
802.353	28752
802.496	28535
802.638	28565
802.78	28401
802.923	28401
803.065	28401
803.208	28424
803.35	28592
803.492	28729
803.635	28736
803.777	28626
803.919	28782
804.061	28968
804.204	28748
804.346	28675
804.488	28653
804.63	28797
804.773	28679
804.915	28828
805.057	28771
805.199	28713
805.341	28915
805.483	29010
805.626	28938
805.768	28847
805.91	28892
806.052	29029
806.194	28725
806.336	29086
806.478	29010
806.62	29041
806.762	29105
806.904	29265
807.046	29379
807.188	29375
807.33	29246
807.472	29261
807.614	29318
807.756	29288
807.898	29105
808.04	29258
808.182	29334
808.324	29220
808.465	29212
808.607	29467
808.749	29524
808.891	29714
809.033	29775
809.174	29703
809.316	29425
809.458	29619
809.6	29600
809.741	29794
809.883	29783
810.025	29855
810.166	29961
810.308	29870
810.45	29790
810.591	29783
810.733	29741
810.875	29680
811.016	29547
811.158	29501
811.299	29794
811.441	29722
811.582	29908
811.724	29535
811.865	29589
812.007	29619
812.148	29627
812.29	29741
812.431	29741
812.573	29984
812.714	29961
812.855	30232
812.997	30216
813.138	30361
813.279	30292
813.421	30114
813.562	30079
813.703	30133
813.845	29821
813.986	29596
814.127	29372
814.268	29239
814.41	29360
814.551	29151
814.692	29364
814.833	29239
814.974	29212
815.115	29425
815.256	29223
815.397	29216
815.539	29147
815.68	29223
815.821	29124
815.962	29200
816.103	29307
816.244	29018
816.385	28995
816.526	28949
816.666	28847
816.807	28778
816.948	28767
817.089	28824
817.23	28763
817.371	28812
817.512	28698
817.653	28588
817.793	28618
817.934	28641
818.075	28580
818.216	28771
818.356	28668
818.497	28607
818.638	28512
818.778	28519
818.919	28360
819.06	28538
819.2	28626
819.341	28698
819.481	28729
819.622	28831
819.762	29022
819.903	29003
820.043	28919
820.184	28786
820.324	28820
820.465	28938
820.605	28820
820.746	28717
820.886	28641
821.026	28786
821.167	28698
821.307	28942
821.447	28698
821.588	28512
821.728	28527
821.868	28375
822.008	28173
822.149	28226
822.289	28261
822.429	27945
822.569	27819
822.709	27987
822.849	27724
822.99	27652
823.13	27591
823.27	27720
823.41	27591
823.55	27473
823.69	27557
823.83	27637
823.97	27511
824.11	27195
824.25	27199
824.389	27294
824.529	27412
824.669	27443
824.809	27427
824.949	27363
825.089	27469
825.228	27416
825.368	27138
825.508	27138
825.648	27150
825.787	27275
825.927	27294
826.067	27135
826.206	27233
826.346	27351
826.485	27180
826.625	27211
826.765	27264
826.904	27218
827.044	27051
827.183	27077
827.323	26956
827.462	27051
827.601	26956
827.741	26952
827.88	26929
828.02	26788
828.159	26842
828.298	27024
828.437	26994
828.577	26876
828.716	27009
828.855	26849
828.994	26568
829.134	26724
829.273	26659
829.412	26602
829.551	26495
829.69	26537
829.829	26632
829.968	26765
830.107	26712
830.246	26632
830.385	26625
830.524	26678
830.663	26320
830.802	26393
830.941	26259
831.08	26069
831.219	26164
831.357	26317
831.496	26381
831.635	26202
831.774	26259
831.913	26195
832.051	26024
832.19	26172
832.329	25982
832.467	25966
832.606	25928
832.744	25894
832.883	25860
833.022	25841
833.16	25860
833.299	25944
833.437	25932
833.576	25917
833.714	25932
833.852	26016
833.991	26001
834.129	26043
834.267	26081
834.406	25989
834.544	26031
834.682	25932
834.821	25917
834.959	26161
835.097	25772
835.235	26058
835.373	26058
835.511	25913
835.65	25731
835.788	25928
835.926	25647
836.064	25563
836.202	25563
836.34	25788
836.478	25932
836.615	25852
836.753	25845
836.891	25780
837.029	25849
837.167	25685
837.305	25601
837.443	25658
837.58	25582
837.718	25643
837.856	25635
837.993	25643
838.131	25662
838.269	25571
838.406	25624
838.544	25441
838.681	25289
838.819	25244
838.956	25095
839.094	25053
839.231	25141
839.369	25301
839.506	25472
839.643	25232
839.781	25095
839.918	25004
840.055	25072
840.193	24996
840.33	25099
840.467	25107
840.604	25057
840.742	25388
840.879	25015
841.016	24905
841.153	24894
841.29	25110
841.427	25008
841.564	25046
841.701	24924
841.838	24856
841.975	24856
842.112	24852
842.249	24795
842.385	24692
842.522	24981
842.659	24745
842.796	24783
842.933	24738
843.069	24734
843.206	24639
843.343	24776
843.479	24715
843.616	24772
843.752	24620
843.889	24532
844.025	24696
844.162	24456
844.298	24578
844.435	24410
844.571	24566
844.708	24479
844.844	24677
844.98	24688
845.117	24536
845.253	24467
845.389	24418
845.525	24300
845.661	24369
845.798	24391
845.934	24323
846.07	24277
846.206	24190
846.342	24376
846.478	24174
846.614	24087
846.75	23939
846.886	23958
847.022	23984
847.158	23954
847.294	23977
847.429	23923
847.565	23996
847.701	24209
847.837	23710
847.972	23771
848.108	23828
848.244	23733
848.379	23562
848.515	23608
848.65	23573
848.786	23497
848.921	23493
849.057	23634
849.192	23649
849.328	23687
849.463	23524
849.598	23524
849.734	23490
849.869	23364
850.004	23269
850.14	23360
850.275	23341
850.41	23185
850.545	23296
850.68	23364
850.815	23296
850.95	23242
851.085	23482
851.22	23600
851.355	23372
851.49	23414
851.625	23277
851.76	23349
851.895	23265
852.03	23318
852.165	23250
852.299	23345
852.434	23436
852.569	23364
852.703	23277
852.838	23402
852.973	23444
853.107	23421
853.242	23341
853.376	23117
853.511	23143
853.645	23018
853.78	23143
853.914	23178
854.048	23200
854.183	23170
854.317	23140
854.451	23334
854.585	23037
854.72	23155
854.854	23185
854.988	23041
855.122	23208
855.256	22984
855.39	23147
855.524	23204
855.658	23098
855.792	23242
855.926	23193
856.06	23090
856.194	23197
856.327	23151
856.461	23010
856.595	23083
856.729	23102
856.862	23197
856.996	23094
857.13	23124
857.263	23140
857.397	23223
857.53	23124
857.664	23075
857.797	23174
857.931	23277
858.064	23227
858.197	23258
858.331	23147
858.464	23075
858.597	22984
858.731	23117
858.864	23200
858.997	23025
859.13	23193
859.263	23079
859.396	23216
859.529	23113
859.662	23067
859.795	23044
859.928	23208
860.061	23258
860.194	23250
860.327	23204
860.46	23223
860.592	23288
860.725	23326
860.858	23360
860.99	23185
861.123	23105
861.256	23159
861.388	23155
861.521	23874
861.653	23010
861.786	22927
861.918	22987
862.05	22953
862.183	22980
862.315	23044
862.447	23098
862.58	23094
862.712	22793
862.844	22885
862.976	22957
863.108	22877
863.24	23303
863.372	22835
863.504	22896
863.636	22862
863.768	22835
863.9	22881
864.032	22778
864.164	22752
864.296	22911
864.428	22965
864.559	22968
864.691	22942
864.823	22896
864.954	22850
865.086	22752
865.217	22736
865.349	22512
865.48	22835
865.612	22710
865.743	22801
865.875	22713
866.006	22554
866.137	22687
866.269	22812
866.4	22748
866.531	22774
866.662	22489
866.793	22660
866.924	22702
867.055	22626
867.186	22698
867.317	22603
867.448	22561
867.579	22569
867.71	22424
867.841	22386
867.972	22672
868.103	22607
868.233	22615
868.364	22504
868.495	22858
868.625	22767
868.756	22915
868.886	22713
869.017	22744
869.147	22965
869.278	23079
869.408	22816
869.539	22904
869.669	22908
869.799	22942
869.929	23041
870.06	23048
870.19	23147
870.32	23098
870.45	23166
870.58	23185
870.71	23429
870.84	23376
870.97	23311
871.1	23322
871.23	23406
871.36	23372
871.489	23296
871.619	23421
871.749	23467
871.879	23478
872.008	23649
872.138	23474
872.267	23463
872.397	23322
872.526	23356
872.656	23284
872.785	23242
872.915	23463
873.044	23562
873.173	23592
873.303	23531
873.432	23497
873.561	23611
873.69	23391
873.819	23455
873.948	23512
874.077	23509
874.206	23436
874.335	23402
874.464	23604
874.593	23737
874.722	23615
874.851	23661
874.979	23798
875.108	23638
875.237	23737
875.365	23589
875.494	23509
875.623	23756
875.751	23691
875.88	23756
876.008	23866
876.136	23832
876.265	24117
876.393	24102
876.521	24224
876.65	23992
876.778	24163
876.906	23980
877.034	23984
877.162	24136
877.29	23954
877.418	23999
877.546	23984
877.674	24022
877.802	23931
877.93	23965
878.058	24003
878.185	23790
878.313	23912
878.441	23980
878.568	23950
878.696	23878
878.824	24030
878.951	24121
879.079	24171
879.206	24277
879.333	24060
879.461	24083
879.588	23878
879.715	24254
879.842	24327
879.97	24026
880.097	23764
880.224	23790
880.351	23855
880.478	23927
880.605	23851
880.732	23954
880.859	24007
880.986	23783
881.112	23920
881.239	23646
881.366	23528
881.493	23421
881.619	23448
881.746	23376
881.872	23482
881.999	23299
882.125	23200
882.252	23379
882.378	23299
882.505	23528
882.631	23200
882.757	23178
882.883	23113
883.01	23003
883.136	23060
883.262	22889
883.388	22759
883.514	23022
883.64	23006
883.766	22919
883.892	22854
884.018	22835
884.143	23003
884.269	23162
884.395	22839
884.52	22790
884.646	22740
884.772	22679
884.897	22622
885.023	22809
885.148	22759
885.274	22850
885.399	22744
885.524	22550
885.65	22752
885.775	22634
885.9	22519
886.025	22672
886.15	22752
886.275	22615
886.4	22478
886.525	22653
886.65	22561
886.775	22462
886.9	22801
887.025	22774
887.149	22603
887.274	22489
887.399	22398
887.523	22478
887.648	22451
887.773	22303
887.897	22546
888.021	22409
888.146	22413
888.27	22481
888.395	22436
888.519	22428
888.643	22428
888.767	22451
888.891	22272
889.015	22185
889.139	22192
889.263	22169
889.387	22371
889.511	22478
889.635	22409
889.759	22154
889.883	22192
890.006	22253
890.13	22272
890.254	22112
890.377	22139
890.501	21949
890.624	21987
890.748	21960
890.871	21915
890.995	21728
891.118	21682
891.241	21736
891.364	21770
891.488	21876
891.611	21804
891.734	21759
891.857	21804
891.98	21846
892.103	21728
892.226	21717
892.349	21625
892.471	21564
892.594	21667
892.717	21633
892.839	21595
892.962	21595
893.085	21629
893.207	21679
893.33	21488
893.452	21477
893.575	21583
893.697	21538
893.819	21762
893.941	21797
894.064	21660
894.186	21553
894.308	21587
894.43	21739
894.552	21861
894.674	21652
894.796	21473
894.918	21591
895.04	21576
895.161	21698
895.283	21694
895.405	21469
895.526	21656
895.648	21496
895.769	21561
895.891	21610
896.012	21717
896.134	21606
896.255	21534
896.376	21591
896.498	21564
896.619	21656
896.74	21549
896.861	21633
896.982	21930
897.103	21945
897.224	21789
897.345	21823
897.466	21717
897.587	21778
897.708	21854
897.828	21793
897.949	21732
898.07	21542
898.19	21698
898.311	21876
898.431	21606
898.552	21751
898.672	21907
898.792	21876
898.913	21831
899.033	21530
899.153	21526
899.273	21408
899.393	21496
899.513	21568
899.633	21507
899.753	21477
899.873	21408
899.993	21492
900.113	21408
900.232	21485
900.352	21382
900.472	21325
900.591	21184
900.711	21222
900.83	21256
900.95	21275
901.069	21374
901.189	21154
901.308	20899
901.427	20807
901.546	20834
901.665	20727
901.784	20838
901.904	20659
902.023	20667
902.141	20404
902.26	20301
902.379	20438
902.498	20332
902.617	20229
902.735	20233
902.854	20282
902.973	20157
903.091	19963
903.21	19890
903.328	20035
903.446	19925
903.565	19757
903.683	19791
903.801	19582
903.919	19799
904.038	19727
904.156	19499
904.274	19529
904.392	19506
904.51	19502
904.627	19575
904.745	19548
904.863	19514
904.981	19377
905.098	19183
905.216	19179
905.334	19259
905.451	19251
905.569	19126
905.686	19114
905.803	19110
905.921	18954
906.038	19110
906.155	18844
906.272	18916
906.389	18833
906.506	18703
906.623	18684
906.74	18650
906.857	18589
906.974	18574
907.091	18749
907.208	18753
907.324	18665
907.441	18551
907.557	18433
907.674	18410
907.79	18361
907.907	18361
908.023	18422
908.139	18380
908.256	18376
908.372	18311
908.488	18239
908.604	18171
908.72	18197
908.836	18072
908.952	18133
909.068	18148
909.184	18220
909.3	18159
909.415	18079
909.531	18076
909.647	17824
909.762	17764
909.878	17783
909.993	17760
910.108	17764
910.224	17775
910.339	17726
910.454	17653
910.57	17668
910.685	17501
910.8	17847
910.915	17627
911.03	17516
911.145	17425
911.259	17288
911.374	17303
911.489	17223
911.604	17216
911.718	17121
911.833	17090
911.947	17075
912.062	16961
912.176	17155
912.291	17098
912.405	17140
912.519	17326
912.633	17200
912.748	17128
912.862	17105
912.976	16927
913.09	16725
913.204	16774
913.318	16972
913.431	17018
913.545	16934
913.659	16869
913.772	16774
913.886	16736
914	16725
914.113	16733
914.226	16869
914.34	16809
914.453	16580
914.566	16755
914.68	16603
914.793	16508
914.906	16409
915.019	16276
915.132	16093
915.245	16344
915.358	16268
915.47	16246
915.583	16166
915.696	16181
915.809	16436
915.921	16386
916.034	16181
916.146	16097
916.259	16055
916.371	16234
916.483	16299
916.595	16116
916.708	16086
916.82	16200
916.932	16109
917.044	15968
917.156	15937
917.268	15903
917.38	15953
917.491	15804
917.603	15876
917.715	15884
917.826	16032
917.938	15800
918.049	15698
918.161	15785
918.272	15888
918.384	15835
918.495	15797
918.606	15561
918.717	15618
918.828	15542
918.939	15622
919.05	15526
919.161	15618
919.272	15306
919.383	15447
919.494	15656
919.604	15892
919.715	15564
919.826	15416
919.936	15519
920.047	15667
920.157	15625
920.267	15747
920.378	15549
920.488	15515
920.598	15663
920.708	15827
920.818	15701
920.928	15656
921.038	15835
921.148	15728
921.258	15443
921.368	15389
921.477	15405
921.587	15302
921.697	15150
921.806	15279
921.916	15070
922.025	14937
922.134	14838
922.244	14823
922.353	14933
922.462	14868
922.571	14735
922.68	14606
922.789	14503
922.898	14583
923.007	14473
923.116	14549
923.224	14545
923.333	14434
923.442	14381
923.55	14328
923.659	14305
923.767	14408
923.876	14237
923.984	14374
924.092	14218
924.201	14282
924.309	14282
924.417	14305
924.525	14176
924.633	14180
924.741	15066
924.849	13852
924.956	14031
925.064	13928
925.172	13902
925.279	13906
925.387	13871
925.494	13890
925.602	13997
925.709	13791
925.816	13811
925.924	13803
926.031	13868
926.138	13814
926.245	13841
926.352	13734
926.459	13807
926.566	13757
926.673	13746
926.779	13696
926.886	13590
926.993	13480
927.099	13430
927.206	13480
927.312	13301
927.419	13457
927.525	13499
927.631	13457
927.737	13285
927.843	13225
927.95	13164
928.056	13297
928.162	13187
928.267	13304
928.373	13845
928.479	13297
928.585	13072
928.69	13137
928.796	13152
928.901	13065
929.007	12935
929.112	13008
929.218	12947
929.323	12977
929.428	12947
929.533	13065
929.638	12878
929.743	12856
929.848	12844
929.953	12817
930.058	12730
930.163	12547
930.267	12677
930.372	12764
930.477	12525
930.581	12764
930.685	12597
930.79	12429
930.894	12506
930.998	12414
931.103	12585
931.207	12319
931.311	12247
931.415	12038
931.519	11832
931.623	11824
