Data from test_V78500241_3645.txt Node
Date: Fri Mar 25 16:07:03 CST 2022
User: usil
Spectrometer: V785-0024
Trigger mode: 0
Integration Time (sec): 4.000000E-1
Scans to average: 1
Nonlinearity correction enabled: false
Boxcar width: 0
Storing dark spectrum: false
XAxis mode: Wavelengths
Number of Pixels in Spectrum: 1024
>>>>>Begin Spectral Data<<<<<
801.071	28306
801.214	28177
801.356	28021
801.499	27922
801.641	27800
801.783	27778
801.926	27895
802.068	27899
802.211	27633
802.353	27682
802.496	27701
802.638	27530
802.78	27534
802.923	27450
803.065	27245
803.208	27435
803.35	27507
803.492	27580
803.635	27717
803.777	27614
803.919	27686
804.061	28025
804.204	27724
804.346	27698
804.488	27679
804.63	27751
804.773	27774
804.915	27641
805.057	27888
805.199	27759
805.341	27713
805.483	27873
805.626	27888
805.768	27797
805.91	27831
806.052	27808
806.194	27770
806.336	28124
806.478	27816
806.62	27876
806.762	28090
806.904	28257
807.046	28322
807.188	28333
807.33	28291
807.472	28466
807.614	28367
807.756	28257
807.898	28207
808.04	28067
808.182	28097
808.324	28112
808.465	28242
808.607	28409
808.749	28462
808.891	28675
809.033	28702
809.174	28546
809.316	28405
809.458	28443
809.6	28500
809.741	28626
809.883	28497
810.025	28820
810.166	28744
810.308	28801
810.45	28592
810.591	28759
810.733	28698
810.875	28516
811.016	28405
811.158	28459
811.299	28634
811.441	28771
811.582	28748
811.724	28599
811.865	28497
812.007	28459
812.148	28504
812.29	28577
812.431	28752
812.573	28908
812.714	28961
812.855	29025
812.997	29124
813.138	29227
813.279	29033
813.421	29200
813.562	28854
813.703	28930
813.845	28797
813.986	28401
814.127	28386
814.268	28329
814.41	28299
814.551	28166
814.692	28344
814.833	28211
814.974	28143
815.115	28090
815.256	28109
815.397	28074
815.539	28036
815.68	28116
815.821	27968
815.962	28048
816.103	28002
816.244	27914
816.385	27770
816.526	27797
816.666	27618
816.807	27435
816.948	27450
817.089	27694
817.23	27462
817.371	27450
817.512	27481
817.653	27507
817.793	27530
817.934	27553
818.075	27492
818.216	27538
818.356	27511
818.497	27370
818.638	27279
818.778	27359
818.919	27154
819.06	27302
819.2	27469
819.341	27606
819.481	27507
819.622	27675
819.762	27857
819.903	27831
820.043	27800
820.184	27610
820.324	27629
820.465	27778
820.605	27595
820.746	27618
820.886	27568
821.026	27629
821.167	27507
821.307	27603
821.447	27549
821.588	27450
821.728	27306
821.868	27195
822.008	26979
822.149	27096
822.289	27085
822.429	26773
822.569	26731
822.709	26834
822.849	26431
822.99	26503
823.13	26503
823.27	26533
823.41	26336
823.55	26351
823.69	26393
823.83	26313
823.97	26332
824.11	26187
824.25	26225
824.389	26081
824.529	26172
824.669	26210
824.809	26256
824.949	26237
825.089	26195
825.228	26267
825.368	25974
825.508	26107
825.648	25940
825.787	26073
825.927	26035
826.067	25883
826.206	26008
826.346	26050
826.485	26096
826.625	26035
826.765	26058
826.904	26134
827.044	25887
827.183	25852
827.323	25723
827.462	25807
827.601	25837
827.741	25772
827.88	25822
828.02	25639
828.159	25731
828.298	25811
828.437	25890
828.577	25727
828.716	25799
828.855	25601
828.994	25502
829.134	25521
829.273	25499
829.412	25312
829.551	25362
829.69	25392
829.829	25449
829.968	25506
830.107	25548
830.246	25392
830.385	25419
830.524	25331
830.663	25206
830.802	25160
830.941	25038
831.08	24989
831.219	25099
831.357	24973
831.496	25240
831.635	25091
831.774	24935
831.913	24905
832.051	24856
832.19	24772
832.329	24882
832.467	24795
832.606	24681
832.744	24738
832.883	24738
833.022	24627
833.16	24684
833.299	24719
833.437	24779
833.576	24795
833.714	24696
833.852	24764
833.991	24859
834.129	24768
834.267	24901
834.406	24825
834.544	24871
834.682	24741
834.821	24741
834.959	24871
835.097	24711
835.235	24848
835.373	24867
835.511	24753
835.65	24749
835.788	24658
835.926	24505
836.064	24357
836.202	24350
836.34	24642
836.478	24703
836.615	24620
836.753	24616
836.891	24555
837.029	24589
837.167	24505
837.305	24604
837.443	24551
837.58	24437
837.718	24559
837.856	24471
837.993	24319
838.131	24388
838.269	24338
838.406	24502
838.544	24315
838.681	24133
838.819	24011
838.956	23920
839.094	23885
839.231	24049
839.369	24030
839.506	24266
839.643	24171
839.781	23923
839.918	23908
840.055	23836
840.193	23851
840.33	23893
840.467	23813
840.604	23923
840.742	24049
840.879	23752
841.016	23718
841.153	23642
841.29	23939
841.427	23859
841.564	23885
841.701	23878
841.838	23733
841.975	23608
842.112	23775
842.249	23619
842.385	23600
842.522	23779
842.659	23596
842.796	23573
842.933	23649
843.069	23630
843.206	23387
843.343	23509
843.479	23573
843.616	23634
843.752	23334
843.889	23341
844.025	23391
844.162	23349
844.298	23478
844.435	23311
844.571	23284
844.708	23353
844.844	23512
844.98	23398
845.117	23429
845.253	23311
845.389	23197
845.525	23235
845.661	23227
845.798	23143
845.934	23033
846.07	23208
846.206	23280
846.342	23273
846.478	23029
846.614	22790
846.75	22736
846.886	22778
847.022	22809
847.158	22873
847.294	22873
847.429	22786
847.565	22801
847.701	22938
847.837	22573
847.972	22417
848.108	22683
848.244	22592
848.379	22356
848.515	22424
848.65	22519
848.786	22413
848.921	22325
849.057	22546
849.192	22443
849.328	22455
849.463	22436
849.598	22322
849.734	22257
849.869	22204
850.004	22135
850.14	22173
850.275	22234
850.41	22078
850.545	22131
850.68	22109
850.815	22234
850.95	22211
851.085	22261
851.22	22325
851.355	22143
851.49	22120
851.625	22025
851.76	22086
851.895	22040
852.03	22192
852.165	22226
852.299	22215
852.434	22204
852.569	22124
852.703	22128
852.838	22192
852.973	22253
853.107	22291
853.242	22013
853.376	21972
853.511	22029
853.645	21934
853.78	22116
853.914	22032
854.048	21964
854.183	21979
854.317	22097
854.451	22177
854.585	22017
854.72	22059
854.854	22158
854.988	21892
855.122	22010
855.256	21934
855.39	21991
855.524	22082
855.658	22044
855.792	22006
855.926	21934
856.06	21934
856.194	22086
856.327	22029
856.461	21945
856.595	21953
856.729	22055
856.862	22120
856.996	21987
857.13	22124
857.263	22097
857.397	22158
857.53	22120
857.664	22112
857.797	21983
857.931	22101
858.064	22029
858.197	22128
858.331	21930
858.464	21960
858.597	21873
858.731	21895
858.864	21869
858.997	22036
859.13	22082
859.263	22070
859.396	22109
859.529	22051
859.662	22006
859.795	22013
859.928	21812
860.061	22131
860.194	22257
860.327	21987
860.46	22036
860.592	22010
860.725	22143
860.858	22158
860.99	21983
861.123	22070
861.256	22029
861.388	22036
861.521	22759
861.653	21812
861.786	21770
861.918	21842
862.05	21892
862.183	21876
862.315	21994
862.447	21926
862.58	21865
862.712	21663
862.844	21694
862.976	21838
863.108	21937
863.24	22139
863.372	21675
863.504	21656
863.636	21698
863.768	21660
863.9	21755
864.032	21648
864.164	21728
864.296	21656
864.428	21778
864.559	21709
864.691	21778
864.823	21751
864.954	21618
865.086	21747
865.217	21606
865.349	21481
865.48	21587
865.612	21644
865.743	21781
865.875	21660
866.006	21580
866.137	21671
866.269	21542
866.4	21572
866.531	21511
866.662	21557
866.793	21507
866.924	21454
867.055	21507
867.186	21610
867.317	21545
867.448	21530
867.579	21473
867.71	21557
867.841	21443
867.972	21504
868.103	21663
868.233	21481
868.364	21424
868.495	21519
868.625	21797
868.756	21903
868.886	21781
869.017	21732
869.147	21888
869.278	21804
869.408	21755
869.539	21781
869.669	21907
869.799	21774
869.929	21880
870.06	21907
870.19	22162
870.32	22074
870.45	22177
870.58	22086
870.71	22268
870.84	22173
870.97	22131
871.1	22158
871.23	22188
871.36	22322
871.489	22325
871.619	22360
871.749	22424
871.879	22318
872.008	22485
872.138	22363
872.267	22386
872.397	22337
872.526	22169
872.656	22154
872.785	22143
872.915	22386
873.044	22451
873.173	22432
873.303	22554
873.432	22459
873.561	22470
873.69	22348
873.819	22455
873.948	22440
874.077	22466
874.206	22348
874.335	22276
874.464	22443
874.593	22649
874.722	22588
874.851	22607
874.979	22672
875.108	22611
875.237	22542
875.365	22459
875.494	22489
875.623	22580
875.751	22618
875.88	22542
876.008	22793
876.136	22748
876.265	22965
876.393	23174
876.521	23010
876.65	23064
876.778	23143
876.906	22824
877.034	22809
877.162	23018
877.29	22934
877.418	23003
877.546	22892
877.674	22915
877.802	23079
877.93	22820
878.058	22968
878.185	22790
878.313	22904
878.441	22812
878.568	22725
878.696	22965
878.824	22889
878.951	23067
879.079	23052
879.206	23242
879.333	23075
879.461	22831
879.588	23075
879.715	23147
879.842	23227
879.97	23071
880.097	22797
880.224	22767
880.351	22934
880.478	22850
880.605	22869
880.732	22862
880.859	22908
880.986	22831
881.112	22869
881.239	22675
881.366	22698
881.493	22417
881.619	22443
881.746	22580
881.872	22409
881.999	22299
882.125	22207
882.252	22356
882.378	22348
882.505	22451
882.631	22268
882.757	22078
882.883	22116
883.01	22032
883.136	22048
883.262	21945
883.388	21831
883.514	22207
883.64	22010
883.766	21922
883.892	21766
884.018	21888
884.143	21895
884.269	22006
884.395	21732
884.52	21572
884.646	21793
884.772	21705
884.897	21526
885.023	21633
885.148	21755
885.274	21823
885.399	21808
885.524	21694
885.65	21694
885.775	21713
885.9	21755
886.025	21682
886.15	21743
886.275	21675
886.4	21641
886.525	21618
886.65	21542
886.775	21606
886.9	21701
887.025	21918
887.149	21591
887.274	21492
887.399	21439
887.523	21496
887.648	21454
887.773	21336
887.897	21580
888.021	21447
888.146	21329
888.27	21507
888.395	21428
888.519	21329
888.643	21435
888.767	21526
888.891	21340
889.015	21203
889.139	21367
889.263	21207
889.387	21291
889.511	21424
889.635	21454
889.759	21093
889.883	21298
890.006	21188
890.13	21321
890.254	21226
890.377	21142
890.501	20994
890.624	20990
890.748	21058
890.871	20933
890.995	20712
891.118	20705
891.241	20823
891.364	20735
891.488	20975
891.611	20792
891.734	20705
891.857	20785
891.98	20838
892.103	20895
892.226	20819
892.349	20762
892.471	20651
892.594	20769
892.717	20815
892.839	20750
892.962	20739
893.085	20765
893.207	20724
893.33	20594
893.452	20594
893.575	20720
893.697	20655
893.819	20960
893.941	20952
894.064	20868
894.186	20655
894.308	20530
894.43	20899
894.552	20800
894.674	20834
894.796	20533
894.918	20552
895.04	20602
895.161	20781
895.283	20853
895.405	20686
895.526	20689
895.648	20537
895.769	20621
895.891	20708
896.012	20716
896.134	20815
896.255	20773
896.376	20621
896.498	20762
896.619	20724
896.74	20708
896.861	20667
896.982	21085
897.103	21180
897.224	21051
897.345	20944
897.466	20815
897.587	20910
897.708	21036
897.828	20963
897.949	20807
898.07	20785
898.19	20769
898.311	20895
898.431	20811
898.552	20975
898.672	20994
898.792	20998
898.913	20941
899.033	20845
899.153	20739
899.273	20438
899.393	20731
899.513	20678
899.633	20686
899.753	20693
899.873	20560
899.993	20587
900.113	20609
900.232	20629
900.352	20560
900.472	20454
900.591	20339
900.711	20332
900.83	20278
900.95	20518
901.069	20571
901.189	20267
901.308	20027
901.427	19993
901.546	19940
901.665	20054
901.784	19982
901.904	19799
902.023	19674
902.141	19529
902.26	19533
902.379	19590
902.498	19483
902.617	19499
902.735	19438
902.854	19430
902.973	19487
903.091	19160
903.21	19194
903.328	19228
903.446	19110
903.565	18840
903.683	18951
903.801	18928
903.919	18939
904.038	18951
904.156	18635
904.274	18806
904.392	18677
904.51	18681
904.627	18566
904.745	18787
904.863	18715
904.981	18422
905.098	18254
905.216	18350
905.334	18483
905.451	18262
905.569	18388
905.686	18464
905.803	18410
905.921	18133
906.038	18125
906.155	18178
906.272	18144
906.389	18041
906.506	17984
906.623	17973
906.74	17954
906.857	17836
906.974	17752
907.091	17961
907.208	18057
907.324	17965
907.441	17802
907.557	17573
907.674	17668
907.79	17577
907.907	17558
908.023	17707
908.139	17589
908.256	17668
908.372	17532
908.488	17505
908.604	17410
908.72	17318
908.836	17376
908.952	17356
909.068	17280
909.184	17459
909.3	17353
909.415	17406
909.531	17185
909.647	17067
909.762	16953
909.878	16976
909.993	16968
910.108	16972
910.224	17018
910.339	17037
910.454	16900
910.57	16812
910.685	16740
910.8	16980
910.915	16949
911.03	16801
911.145	16706
911.259	16554
911.374	16519
911.489	16451
911.604	16447
911.718	16360
911.833	16367
911.947	16230
912.062	16200
912.176	16280
912.291	16371
912.405	16360
912.519	16466
912.633	16508
912.748	16451
912.862	16344
912.976	16131
913.09	16021
913.204	16078
913.318	16223
913.431	16280
913.545	16265
913.659	16325
913.772	16173
913.886	16013
914	15930
914.113	16051
914.226	16044
914.34	16021
914.453	15835
914.566	16036
914.68	15953
914.793	15774
914.906	15580
915.019	15587
915.132	15462
915.245	15447
915.358	15618
915.47	15603
915.583	15515
915.696	15603
915.809	15762
915.921	15648
916.034	15462
916.146	15481
916.259	15393
916.371	15488
916.483	15431
916.595	15370
916.708	15268
916.82	15454
916.932	15329
917.044	15317
917.156	15302
917.268	15195
917.38	15180
917.491	15188
917.603	15135
917.715	15279
917.826	15230
917.938	15157
918.049	14998
918.161	15123
918.272	15294
918.384	15218
918.495	15188
918.606	14986
918.717	14921
918.828	14918
918.939	14944
919.05	14804
919.161	14906
919.272	14648
919.383	14811
919.494	14963
919.604	15180
919.715	14868
919.826	14872
919.936	14880
920.047	14967
920.157	14998
920.267	15062
920.378	14914
920.488	14857
920.598	15032
920.708	15112
920.818	15032
920.928	15066
921.038	15230
921.148	15108
921.258	14906
921.368	14823
921.477	14632
921.587	14629
921.697	14522
921.806	14674
921.916	14488
922.025	14240
922.134	14202
922.244	14263
922.353	14278
922.462	14092
922.571	14046
922.68	14069
922.789	13989
922.898	13974
923.007	13845
923.116	13906
923.224	13959
923.333	13833
923.442	13712
923.55	13765
923.659	13807
923.767	13772
923.876	13746
923.984	13704
924.092	13658
924.201	13578
924.309	13578
924.417	13647
924.525	13594
924.633	13495
924.741	14617
924.849	13354
924.956	13514
925.064	13400
925.172	13289
925.279	13358
925.387	13316
925.494	13209
925.602	13339
925.709	13403
925.816	13240
925.924	13232
926.031	13293
926.138	13346
926.245	13278
926.352	13149
926.459	13270
926.566	13266
926.673	13103
926.779	13042
926.886	13042
926.993	12806
927.099	12867
927.206	12829
927.312	12764
927.419	12863
927.525	12878
927.631	12920
927.737	12719
927.843	12688
927.95	12601
928.056	12570
928.162	12635
928.267	12745
928.373	13324
928.479	12665
928.585	12570
928.69	12525
928.796	12639
928.901	12563
929.007	12464
929.112	12521
929.218	12563
929.323	12395
929.428	12365
929.533	12452
929.638	12285
929.743	12315
929.848	12483
929.953	12296
930.058	12319
930.163	12083
930.267	12038
930.372	12330
930.477	12087
930.581	12232
930.685	12072
930.79	11961
930.894	11980
930.998	11950
931.103	11954
931.207	11661
931.311	11562
931.415	11535
931.519	11463
931.623	11280
