Data from test_V78500241_3042.txt Node
Date: Fri Mar 25 16:02:52 CST 2022
User: usil
Spectrometer: V785-0024
Trigger mode: 0
Integration Time (sec): 4.000000E-1
Scans to average: 1
Nonlinearity correction enabled: false
Boxcar width: 0
Storing dark spectrum: false
XAxis mode: Wavelengths
Number of Pixels in Spectrum: 1024
>>>>>Begin Spectral Data<<<<<
801.071	28474
801.214	28280
801.356	28188
801.499	28097
801.641	27949
801.783	27937
801.926	28105
802.068	27899
802.211	27800
802.353	27823
802.496	27603
802.638	27618
802.78	27629
802.923	27538
803.065	27462
803.208	27625
803.35	27538
803.492	27793
803.635	27808
803.777	27652
803.919	27854
804.061	28276
804.204	27873
804.346	27766
804.488	27762
804.63	27960
804.773	27804
804.915	27930
805.057	28051
805.199	27869
805.341	27934
805.483	27922
805.626	28013
805.768	27857
805.91	28006
806.052	28063
806.194	28147
806.336	28226
806.478	28040
806.62	27968
806.762	28120
806.904	28299
807.046	28527
807.188	28352
807.33	28470
807.472	28485
807.614	28409
807.756	28379
807.898	28356
808.04	28257
808.182	28352
808.324	28401
808.465	28432
808.607	28603
808.749	28634
808.891	28702
809.033	28824
809.174	28759
809.316	28774
809.458	28702
809.6	28634
809.741	28755
809.883	28835
810.025	29003
810.166	28839
810.308	28961
810.45	28881
810.591	28790
810.733	28637
810.875	28615
811.016	28542
811.158	28683
811.299	28755
811.441	28881
811.582	28896
811.724	28824
811.865	28603
812.007	28767
812.148	28748
812.29	28820
812.431	28771
812.573	28923
812.714	29064
812.855	29330
812.997	29364
813.138	29581
813.279	29417
813.421	29292
813.562	29250
813.703	29102
813.845	28946
813.986	28519
814.127	28538
814.268	28318
814.41	28424
814.551	28223
814.692	28519
814.833	28436
814.974	28272
815.115	28428
815.256	28242
815.397	28360
815.539	28147
815.68	28363
815.821	28192
815.962	28139
816.103	28109
816.244	28048
816.385	28120
816.526	28006
816.666	27724
816.807	27671
816.948	27812
817.089	27778
817.23	27762
817.371	27698
817.512	27728
817.653	27618
817.793	27561
817.934	27610
818.075	27823
818.216	27701
818.356	27732
818.497	27667
818.638	27458
818.778	27473
818.919	27412
819.06	27568
819.2	27534
819.341	27633
819.481	27694
819.622	27880
819.762	28131
819.903	27956
820.043	27880
820.184	27838
820.324	27797
820.465	27873
820.605	27808
820.746	27899
820.886	27622
821.026	27816
821.167	27709
821.307	27914
821.447	27698
821.588	27652
821.728	27424
821.868	27351
822.008	27211
822.149	27165
822.289	27283
822.429	26914
822.569	26823
822.709	26830
822.849	26564
822.99	26708
823.13	26533
823.27	26571
823.41	26522
823.55	26362
823.69	26560
823.83	26434
823.97	26556
824.11	26259
824.25	26275
824.389	26290
824.529	26446
824.669	26298
824.809	26431
824.949	26301
825.089	26324
825.228	26450
825.368	26081
825.508	26214
825.648	26233
825.787	26476
825.927	26259
826.067	26294
826.206	26240
826.346	26206
826.485	26202
826.625	26191
826.765	26221
826.904	26233
827.044	25940
827.183	25921
827.323	25974
827.462	25818
827.601	26001
827.741	25837
827.88	25966
828.02	25776
828.159	25909
828.298	25803
828.437	25966
828.577	25826
828.716	25951
828.855	25837
828.994	25681
829.134	25609
829.273	25616
829.412	25548
829.551	25445
829.69	25552
829.829	25548
829.968	25677
830.107	25708
830.246	25544
830.385	25529
830.524	25483
830.663	25343
830.802	25327
830.941	25194
831.08	25095
831.219	25259
831.357	25202
831.496	25460
831.635	25236
831.774	25198
831.913	25084
832.051	25072
832.19	24890
832.329	24954
832.467	24909
832.606	24856
832.744	24867
832.883	24810
833.022	24745
833.16	24844
833.299	24894
833.437	24871
833.576	24981
833.714	24859
833.852	25008
833.991	24970
834.129	24981
834.267	24943
834.406	25015
834.544	24943
834.682	24973
834.821	24916
834.959	25099
835.097	24848
835.235	24977
835.373	24901
835.511	25015
835.65	24856
835.788	24779
835.926	24669
836.064	24544
836.202	24540
836.34	24749
836.478	24901
836.615	24559
836.753	24829
836.891	25008
837.029	24749
837.167	24620
837.305	24734
837.443	24684
837.58	24475
837.718	24673
837.856	24601
837.993	24517
838.131	24570
838.269	24483
838.406	24479
838.544	24410
838.681	24369
838.819	24273
838.956	24125
839.094	24102
839.231	24026
839.369	24247
839.506	24296
839.643	24285
839.781	24045
839.918	23961
840.055	24064
840.193	24087
840.33	23939
840.467	23965
840.604	23954
840.742	24235
840.879	23916
841.016	23821
841.153	23752
841.29	24171
841.427	24049
841.564	24026
841.701	23824
841.838	23954
841.975	23874
842.112	23775
842.249	23729
842.385	23786
842.522	23973
842.659	23874
842.796	23619
842.933	23707
843.069	23608
843.206	23653
843.343	23779
843.479	23733
843.616	23783
843.752	23528
843.889	23619
844.025	23703
844.162	23577
844.298	23577
844.435	23505
844.571	23551
844.708	23406
844.844	23627
844.98	23680
845.117	23600
845.253	23448
845.389	23265
845.525	23436
845.661	23410
845.798	23117
845.934	23254
846.07	23239
846.206	23140
846.342	23334
846.478	23223
846.614	23037
846.75	22892
846.886	23052
847.022	22980
847.158	23075
847.294	23003
847.429	22938
847.565	22987
847.701	23132
847.837	22649
847.972	22641
848.108	22885
848.244	22828
848.379	22561
848.515	22596
848.65	22432
848.786	22596
848.921	22664
849.057	22596
849.192	22725
849.328	22740
849.463	22645
849.598	22451
849.734	22489
849.869	22436
850.004	22394
850.14	22356
850.275	22390
850.41	22268
850.545	22352
850.68	22158
850.815	22360
850.95	22356
851.085	22622
851.22	22440
851.355	22295
851.49	22188
851.625	22261
851.76	22226
851.895	22265
852.03	22234
852.165	22284
852.299	22474
852.434	22481
852.569	22478
852.703	22440
852.838	22390
852.973	22497
853.107	22500
853.242	22169
853.376	22204
853.511	22074
853.645	22097
853.78	22173
853.914	22177
854.048	22101
854.183	22131
854.317	22226
854.451	22322
854.585	22154
854.72	22169
854.854	22291
854.988	22090
855.122	22246
855.256	22097
855.39	22082
855.524	22299
855.658	22223
855.792	22177
855.926	22078
856.06	22162
856.194	22246
856.327	22090
856.461	22166
856.595	22101
856.729	22120
856.862	22303
856.996	22131
857.13	22215
857.263	22169
857.397	22291
857.53	22082
857.664	22211
857.797	22219
857.931	22303
858.064	22097
858.197	22238
858.331	22192
858.464	22116
858.597	22112
858.731	22120
858.864	22051
858.997	22105
859.13	22169
859.263	22166
859.396	22318
859.529	22010
859.662	22109
859.795	22006
859.928	22109
860.061	22257
860.194	22344
860.327	22287
860.46	22234
860.592	22246
860.725	22306
860.858	22371
860.99	22196
861.123	22059
861.256	22070
861.388	22067
861.521	22908
861.653	21975
861.786	21922
861.918	22010
862.05	22032
862.183	22101
862.315	22017
862.447	22048
862.58	22090
862.712	21854
862.844	21770
862.976	21915
863.108	22063
863.24	22223
863.372	21720
863.504	21892
863.636	21823
863.768	21915
863.9	21964
864.032	21819
864.164	21785
864.296	21842
864.428	21968
864.559	21911
864.691	21835
864.823	21880
864.954	21857
865.086	21766
865.217	21705
865.349	21580
865.48	21717
865.612	21800
865.743	21949
865.875	21709
866.006	21663
866.137	21671
866.269	21717
866.4	21705
866.531	21713
866.662	21675
866.793	21690
866.924	21614
867.055	21743
867.186	21637
867.317	21709
867.448	21557
867.579	21564
867.71	21519
867.841	21519
867.972	21709
868.103	21641
868.233	21717
868.364	21717
868.495	21762
868.625	21869
868.756	21964
868.886	21842
869.017	21899
869.147	21953
869.278	22021
869.408	21934
869.539	21812
869.669	22044
869.799	21953
869.929	22010
870.06	22055
870.19	22063
870.32	22188
870.45	22200
870.58	22246
870.71	22375
870.84	22432
870.97	22242
871.1	22405
871.23	22546
871.36	22512
871.489	22481
871.619	22481
871.749	22527
871.879	22664
872.008	22561
872.138	22538
872.267	22485
872.397	22352
872.526	22280
872.656	22363
872.785	22356
872.915	22546
873.044	22516
873.173	22527
873.303	22455
873.432	22493
873.561	22603
873.69	22630
873.819	22394
873.948	22626
874.077	22634
874.206	22474
874.335	22481
874.464	22618
874.593	22752
874.722	22675
874.851	22858
874.979	22862
875.108	22778
875.237	22725
875.365	22660
875.494	22717
875.623	22896
875.751	22672
875.88	22873
876.008	22755
876.136	23029
876.265	23044
876.393	23204
876.521	23105
876.65	23212
876.778	23178
876.906	23159
877.034	22972
877.162	23197
877.29	23071
877.418	23079
877.546	23090
877.674	23071
877.802	23025
877.93	23025
878.058	23079
878.185	22987
878.313	23079
878.441	23090
878.568	22889
878.696	22949
878.824	23090
878.951	23280
879.079	23147
879.206	23356
879.333	23212
879.461	23189
879.588	23162
879.715	23292
879.842	23360
879.97	23239
880.097	22908
880.224	22835
880.351	22949
880.478	22946
880.605	22911
880.732	22816
880.859	23239
880.986	22911
881.112	22839
881.239	22847
881.366	22698
881.493	22508
881.619	22462
881.746	22557
881.872	22497
881.999	22497
882.125	22394
882.252	22569
882.378	22409
882.505	22508
882.631	22314
882.757	22196
882.883	22272
883.01	22090
883.136	22086
883.262	22021
883.388	21915
883.514	22154
883.64	22173
883.766	22128
883.892	21956
884.018	21899
884.143	22051
884.269	22025
884.395	21846
884.52	21766
884.646	21827
884.772	21739
884.897	21633
885.023	21739
885.148	21869
885.274	21911
885.399	21865
885.524	21823
885.65	21861
885.775	21679
885.9	21736
886.025	21884
886.15	21755
886.275	21835
886.4	21656
886.525	21751
886.65	21656
886.775	21724
886.9	21983
887.025	21846
887.149	21850
887.274	21587
887.399	21576
887.523	21568
887.648	21511
887.773	21504
887.897	21641
888.021	21713
888.146	21553
888.27	21625
888.395	21663
888.519	21511
888.643	21534
888.767	21469
888.891	21504
889.015	21336
889.139	21416
889.263	21226
889.387	21477
889.511	21542
889.635	21568
889.759	21382
889.883	21424
890.006	21283
890.13	21367
890.254	21157
890.377	21222
890.501	21116
890.624	21051
890.748	21142
890.871	20994
890.995	20868
891.118	20883
891.241	21009
891.364	20910
891.488	21036
891.611	20902
891.734	21017
891.857	20819
891.98	20883
892.103	20902
892.226	20864
892.349	20838
892.471	20781
892.594	20864
892.717	20861
892.839	20762
892.962	20769
893.085	20861
893.207	20857
893.33	20663
893.452	20651
893.575	20864
893.697	20785
893.819	20948
893.941	21009
894.064	20910
894.186	20727
894.308	20750
894.43	20899
894.552	20929
894.674	20815
894.796	20724
894.918	20678
895.04	20754
895.161	20967
895.283	20769
895.405	20758
895.526	20838
895.648	20693
895.769	20731
895.891	20895
896.012	20826
896.134	20754
896.255	20788
896.376	20773
896.498	20788
896.619	20823
896.74	20838
896.861	20853
896.982	21032
897.103	21226
897.224	21062
897.345	21055
897.466	20944
897.587	21047
897.708	21089
897.828	21009
897.949	21032
898.07	20754
898.19	20902
898.311	21047
898.431	20902
898.552	20979
898.672	21062
898.792	21043
898.913	20963
899.033	20906
899.153	20982
899.273	20819
899.393	20705
899.513	20819
899.633	20701
899.753	20739
899.873	20598
899.993	20731
900.113	20655
900.232	20689
900.352	20663
900.472	20476
900.591	20484
900.711	20537
900.83	20408
900.95	20503
901.069	20598
901.189	20374
901.308	20183
901.427	20016
901.546	20054
901.665	20058
901.784	20088
901.904	20016
902.023	19890
902.141	19662
902.26	19632
902.379	19719
902.498	19628
902.617	19544
902.735	19655
902.854	19552
902.973	19506
903.091	19217
903.21	19339
903.328	19236
903.446	19118
903.565	19133
903.683	19065
903.801	18913
903.919	18989
904.038	18951
904.156	18772
904.274	18909
904.392	18852
904.51	18719
904.627	18817
904.745	18798
904.863	18768
904.981	18650
905.098	18445
905.216	18471
905.334	18471
905.451	18388
905.569	18486
905.686	18486
905.803	18467
905.921	18232
906.038	18353
906.155	18254
906.272	18030
906.389	18182
906.506	18076
906.623	18034
906.74	17977
906.857	17885
906.974	17965
907.091	17996
907.208	18144
907.324	18041
907.441	17863
907.557	17699
907.674	17805
907.79	17680
907.907	17703
908.023	17668
908.139	17661
908.256	17554
908.372	17532
908.488	17539
908.604	17387
908.72	17486
908.836	17425
908.952	17406
909.068	17349
909.184	17520
909.3	17387
909.415	17395
909.531	17448
909.647	17105
909.762	17094
909.878	17094
909.993	16972
910.108	17075
910.224	17048
910.339	17174
910.454	16949
910.57	16854
910.685	16900
910.8	17155
910.915	17022
911.03	16923
911.145	16793
911.259	16706
911.374	16698
911.489	16618
911.604	16565
911.718	16421
911.833	16500
911.947	16417
912.062	16169
912.176	16440
912.291	16436
912.405	16390
912.519	16607
912.633	16664
912.748	16523
912.862	16386
912.976	16265
913.09	16131
913.204	16177
913.318	16310
913.431	16405
913.545	16306
913.659	16386
913.772	16226
913.886	16059
914	15983
914.113	16204
914.226	16192
914.34	16147
914.453	15884
914.566	16051
914.68	15823
914.793	15895
914.906	15671
915.019	15599
915.132	15557
915.245	15701
915.358	15736
915.47	15667
915.583	15587
915.696	15625
915.809	15698
915.921	15641
916.034	15625
916.146	15401
916.259	15374
916.371	15618
916.483	15652
916.595	15523
916.708	15500
916.82	15412
916.932	15473
917.044	15275
917.156	15466
917.268	15233
917.38	15294
917.491	15264
917.603	15188
917.715	15416
917.826	15317
917.938	15188
918.049	15070
918.161	15226
918.272	15344
918.384	15363
918.495	15165
918.606	15089
918.717	15017
918.828	15039
918.939	15032
919.05	14883
919.161	15020
919.272	14849
919.383	14975
919.494	15081
919.604	15237
919.715	14887
919.826	14979
919.936	14906
920.047	15020
920.157	14960
920.267	15081
920.378	14975
920.488	14944
920.598	15138
920.708	15313
920.818	15047
920.928	15123
921.038	15317
921.148	15176
921.258	14895
921.368	14895
921.477	14796
921.587	14689
921.697	14651
921.806	14720
921.916	14545
922.025	14442
922.134	14339
922.244	14248
922.353	14313
922.462	14218
922.571	14111
922.68	14084
922.789	14027
922.898	14084
923.007	14031
923.116	14062
923.224	14058
923.333	13883
923.442	13772
923.55	13795
923.659	13906
923.767	13906
923.876	13689
923.984	13833
924.092	13693
924.201	13696
924.309	13696
924.417	13750
924.525	13601
924.633	13731
924.741	14328
924.849	13472
924.956	13628
925.064	13411
925.172	13362
925.279	13392
925.387	13411
925.494	13384
925.602	13407
925.709	13468
925.816	13293
925.924	13327
926.031	13396
926.138	13304
926.245	13400
926.352	13278
926.459	13403
926.566	13400
926.673	13244
926.779	13137
926.886	13069
926.993	13008
927.099	12970
927.206	12821
927.312	12867
927.419	12932
927.525	12970
927.631	12970
927.737	12783
927.843	12741
927.95	12665
928.056	12749
928.162	12696
928.267	12856
928.373	13335
928.479	12715
928.585	12620
928.69	12696
928.796	12650
928.901	12684
929.007	12407
929.112	12597
929.218	12513
929.323	12456
929.428	12551
929.533	12536
929.638	12395
929.743	12380
929.848	12410
929.953	12391
930.058	12285
930.163	12140
930.267	12114
930.372	12228
930.477	12121
930.581	12281
930.685	12205
930.79	11977
930.894	12057
930.998	12034
931.103	12121
931.207	11760
931.311	11718
931.415	11627
931.519	11391
931.623	11391
