Data from test_V78500241_1256.txt Node
Date: Fri Mar 25 15:50:30 CST 2022
User: usil
Spectrometer: V785-0024
Trigger mode: 0
Integration Time (sec): 4.000000E-1
Scans to average: 1
Nonlinearity correction enabled: false
Boxcar width: 0
Storing dark spectrum: false
XAxis mode: Wavelengths
Number of Pixels in Spectrum: 1024
>>>>>Begin Spectral Data<<<<<
801.071	28968
801.214	28672
801.356	28557
801.499	28417
801.641	28356
801.783	28466
801.926	28386
802.068	28481
802.211	28352
802.353	28329
802.496	28135
802.638	28185
802.78	28010
802.923	28044
803.065	28029
803.208	28078
803.35	28162
803.492	28280
803.635	28344
803.777	28112
803.919	28428
804.061	28596
804.204	28398
804.346	28333
804.488	28162
804.63	28325
804.773	28131
804.915	28348
805.057	28356
805.199	28268
805.341	28413
805.483	28421
805.626	28428
805.768	28371
805.91	28607
806.052	28603
806.194	28500
806.336	28778
806.478	28573
806.62	28443
806.762	28512
806.904	28763
807.046	28908
807.188	28991
807.33	29052
807.472	28991
807.614	28888
807.756	28915
807.898	28805
808.04	28797
808.182	28736
808.324	28858
808.465	28923
808.607	29071
808.749	29254
808.891	29174
809.033	29387
809.174	29220
809.316	29102
809.458	29280
809.6	29231
809.741	29337
809.883	29288
810.025	29516
810.166	29414
810.308	29467
810.45	29345
810.591	29429
810.733	29227
810.875	29322
811.016	29025
811.158	28984
811.299	29250
811.441	29364
811.582	29387
811.724	29261
811.865	29052
812.007	29227
812.148	29360
812.29	29299
812.431	29288
812.573	29619
812.714	29638
812.855	29767
812.997	29691
813.138	29935
813.279	29855
813.421	29794
813.562	29672
813.703	29539
813.845	29486
813.986	29288
814.127	29037
814.268	28908
814.41	29006
814.551	28949
814.692	29006
814.833	28877
814.974	28934
815.115	28972
815.256	28809
815.397	28927
815.539	28721
815.68	28797
815.821	28656
815.962	28611
816.103	28675
816.244	28565
816.385	28622
816.526	28440
816.666	28253
816.807	28303
816.948	28318
817.089	28325
817.23	28246
817.371	28284
817.512	28291
817.653	28249
817.793	28128
817.934	28246
818.075	28234
818.216	28306
818.356	28329
818.497	28188
818.638	28040
818.778	28162
818.919	28013
819.06	27998
819.2	28040
819.341	28223
819.481	28299
819.622	28436
819.762	28599
819.903	28611
820.043	28447
820.184	28481
820.324	28314
820.465	28405
820.605	28398
820.746	28424
820.886	28417
821.026	28348
821.167	28440
821.307	28443
821.447	28234
821.588	28223
821.728	28120
821.868	27972
822.008	27812
822.149	27739
822.289	27838
822.429	27450
822.569	27485
822.709	27420
822.849	27355
822.99	27367
823.13	27329
823.27	27291
823.41	27157
823.55	27001
823.69	27081
823.83	27138
823.97	27058
824.11	26739
824.25	26944
824.389	26921
824.529	26982
824.669	27005
824.809	27036
824.949	26994
825.089	27077
825.228	27009
825.368	26918
825.508	26796
825.648	26845
825.787	26788
825.927	26887
826.067	26754
826.206	26750
826.346	26800
826.485	26842
826.625	26765
826.765	26921
826.904	26838
827.044	26469
827.183	26731
827.323	26541
827.462	26492
827.601	26545
827.741	26438
827.88	26492
828.02	26305
828.159	26396
828.298	26461
828.437	26518
828.577	26689
828.716	26518
828.855	26434
828.994	26183
829.134	26202
829.273	26248
829.412	26172
829.551	26088
829.69	26263
829.829	26225
829.968	26355
830.107	26450
830.246	26206
830.385	26119
830.524	26218
830.663	26031
830.802	25932
830.941	25879
831.08	25780
831.219	25890
831.357	25849
831.496	25894
831.635	25868
831.774	25795
831.913	25548
832.051	25696
832.19	25613
832.329	25609
832.467	25479
832.606	25457
832.744	25339
832.883	25567
833.022	25495
833.16	25582
833.299	25510
833.437	25472
833.576	25529
833.714	25605
833.852	25693
833.991	25670
834.129	25662
834.267	25548
834.406	25544
834.544	25502
834.682	25415
834.821	25460
834.959	25685
835.097	25441
835.235	25628
835.373	25674
835.511	25597
835.65	25392
835.788	25449
835.926	25228
836.064	25209
836.202	25160
836.34	25282
836.478	25457
836.615	25354
836.753	25282
836.891	25438
837.029	25422
837.167	25247
837.305	25331
837.443	25244
837.58	25160
837.718	25209
837.856	25232
837.993	25164
838.131	25228
838.269	24954
838.406	25148
838.544	25000
838.681	24791
838.819	24840
838.956	24681
839.094	24589
839.231	24707
839.369	24875
839.506	24992
839.643	25076
839.781	24544
839.918	24654
840.055	24555
840.193	24578
840.33	24578
840.467	24574
840.604	24639
840.742	24734
840.879	24475
841.016	24483
841.153	24467
841.29	24540
841.427	24471
841.564	24547
841.701	24498
841.838	24445
841.975	24471
842.112	24460
842.249	24391
842.385	24304
842.522	24616
842.659	24414
842.796	24285
842.933	24300
843.069	24315
843.206	24167
843.343	24296
843.479	24277
843.616	24369
843.752	24110
843.889	24106
844.025	24224
844.162	23980
844.298	24049
844.435	23996
844.571	24117
844.708	24102
844.844	24232
844.98	24213
845.117	24190
845.253	24015
845.389	23840
845.525	23893
845.661	23977
845.798	23790
845.934	23897
846.07	23783
846.206	23813
846.342	23969
846.478	23680
846.614	23558
846.75	23433
846.886	23562
847.022	23722
847.158	23562
847.294	23429
847.429	23600
847.565	23562
847.701	23779
847.837	23250
847.972	23337
848.108	23482
848.244	23246
848.379	23151
848.515	23086
848.65	23181
848.786	23132
848.921	23117
849.057	23155
849.192	23216
849.328	23064
849.463	22995
849.598	23079
849.734	23014
849.869	22934
850.004	22873
850.14	22923
850.275	22862
850.41	22717
850.545	22850
850.68	22858
850.815	22942
850.95	22919
851.085	23090
851.22	22984
851.355	22892
851.49	22980
851.625	22847
851.76	22858
851.895	22763
852.03	22664
852.165	22755
852.299	22877
852.434	23010
852.569	22934
852.703	22790
852.838	22908
852.973	22953
853.107	22877
853.242	22942
853.376	22725
853.511	22554
853.645	22744
853.78	22767
853.914	22618
854.048	22710
854.183	22599
854.317	22790
854.451	22911
854.585	22759
854.72	22767
854.854	22812
854.988	22645
855.122	22653
855.256	22546
855.39	22660
855.524	22748
855.658	22634
855.792	22611
855.926	22702
856.06	22687
856.194	22725
856.327	22755
856.461	22721
856.595	22683
856.729	22664
856.862	22767
856.996	22767
857.13	22710
857.263	22778
857.397	22831
857.53	22725
857.664	22725
857.797	22706
857.931	22771
858.064	22687
858.197	22805
858.331	22664
858.464	22611
858.597	22538
858.731	22546
858.864	22664
858.997	22679
859.13	22672
859.263	22752
859.396	22740
859.529	22596
859.662	22550
859.795	22580
859.928	22569
860.061	22881
860.194	22835
860.327	22710
860.46	22615
860.592	22744
860.725	22839
860.858	22694
860.99	22805
861.123	22588
861.256	22721
861.388	22596
861.521	23307
861.653	22550
861.786	22554
861.918	22466
862.05	22580
862.183	22622
862.315	22599
862.447	22565
862.58	22599
862.712	22451
862.844	22306
862.976	22424
863.108	22512
863.24	22801
863.372	22451
863.504	22402
863.636	22325
863.768	22432
863.9	22417
864.032	22299
864.164	22333
864.296	22386
864.428	22535
864.559	22375
864.691	22367
864.823	22409
864.954	22390
865.086	22337
865.217	22204
865.349	22234
865.48	22204
865.612	22314
865.743	22538
865.875	22360
866.006	22280
866.137	22276
866.269	22249
866.4	22287
866.531	22059
866.662	22200
866.793	22185
866.924	22188
867.055	22310
867.186	22280
867.317	22188
867.448	22181
867.579	22101
867.71	22051
867.841	22051
867.972	22242
868.103	22105
868.233	22200
868.364	22226
868.495	22314
868.625	22459
868.756	22474
868.886	22459
869.017	22386
869.147	22584
869.278	22535
869.408	22428
869.539	22493
869.669	22538
869.799	22394
869.929	22596
870.06	22630
870.19	22824
870.32	22748
870.45	22672
870.58	22809
870.71	22984
870.84	22949
870.97	22790
871.1	22763
871.23	23014
871.36	23143
871.489	22885
871.619	22976
871.749	23018
871.879	22991
872.008	23254
872.138	22908
872.267	22949
872.397	22892
872.526	22828
872.656	22862
872.785	22900
872.915	23071
873.044	23056
873.173	22953
873.303	23212
873.432	23094
873.561	23155
873.69	22942
873.819	23018
873.948	23090
874.077	22999
874.206	22976
874.335	23086
874.464	23200
874.593	23124
874.722	23208
874.851	23231
874.979	23227
875.108	23223
875.237	23170
875.365	23181
875.494	23102
875.623	23296
875.751	23299
875.88	23102
876.008	23429
876.136	23467
876.265	23642
876.393	23714
876.521	23596
876.65	23809
876.778	23630
876.906	23543
877.034	23600
877.162	23585
877.29	23512
877.418	23524
877.546	23505
877.674	23611
877.802	23657
877.93	23474
878.058	23592
878.185	23501
878.313	23505
878.441	23592
878.568	23326
878.696	23592
878.824	23589
878.951	23676
879.079	23733
879.206	23847
879.333	23745
879.461	23547
879.588	23615
879.715	23737
879.842	23920
879.97	23710
880.097	23334
880.224	23383
880.351	23421
880.478	23493
880.605	23254
880.732	23364
880.859	23600
880.986	23223
881.112	23417
881.239	23288
881.366	23124
881.493	23181
881.619	22900
881.746	23018
881.872	22987
881.999	22911
882.125	22790
882.252	22949
882.378	22858
882.505	23132
882.631	22839
882.757	22740
882.883	22801
883.01	22603
883.136	22569
883.262	22443
883.388	22554
883.514	22603
883.64	22653
883.766	22538
883.892	22379
884.018	22394
884.143	22508
884.269	22691
884.395	22325
884.52	22257
884.646	22265
884.772	22109
884.897	22124
885.023	22154
885.148	22287
885.274	22405
885.399	22348
885.524	22177
885.65	22261
885.775	22265
885.9	22367
886.025	22268
886.15	22409
886.275	22337
886.4	22166
886.525	22242
886.65	22230
886.775	22192
886.9	22379
887.025	22554
887.149	22253
887.274	22013
887.399	22074
887.523	22048
887.648	21972
887.773	21953
887.897	22135
888.021	22044
888.146	21949
888.27	22021
888.395	22051
888.519	22078
888.643	22101
888.767	22025
888.891	21934
889.015	21774
889.139	21857
889.263	21747
889.387	21861
889.511	21941
889.635	21781
889.759	21762
889.883	21854
890.006	21869
890.13	21884
890.254	21747
890.377	21797
890.501	21469
890.624	21454
890.748	21629
890.871	21530
890.995	21291
891.118	21336
891.241	21264
891.364	21428
891.488	21492
891.611	21287
891.734	21428
891.857	21466
891.98	21310
892.103	21294
892.226	21378
892.349	21252
892.471	21138
892.594	21214
892.717	21157
892.839	21230
892.962	21264
893.085	21344
893.207	21230
893.33	21150
893.452	21043
893.575	21237
893.697	21192
893.819	21370
893.941	21450
894.064	21348
894.186	21230
894.308	21119
894.43	21336
894.552	21344
894.674	21351
894.796	21165
894.918	21298
895.04	21252
895.161	21226
895.283	21211
895.405	21176
895.526	21283
895.648	21173
895.769	21218
895.891	21321
896.012	21313
896.134	21329
896.255	21169
896.376	21184
896.498	21275
896.619	21272
896.74	21207
896.861	21142
896.982	21431
897.103	21652
897.224	21496
897.345	21428
897.466	21313
897.587	21321
897.708	21466
897.828	21367
897.949	21382
898.07	21260
898.19	21397
898.311	21526
898.431	21272
898.552	21389
898.672	21500
898.792	21393
898.913	21458
899.033	21348
899.153	21176
899.273	21032
899.393	21058
899.513	21245
899.633	21131
899.753	21119
899.873	21043
899.993	21180
900.113	21039
900.232	21157
900.352	21001
900.472	21017
900.591	20743
900.711	20906
900.83	20906
900.95	21039
901.069	20845
901.189	20849
901.308	20575
901.427	20511
901.546	20545
901.665	20457
901.784	20469
901.904	20358
902.023	20271
902.141	20119
902.26	20016
902.379	20005
902.498	20043
902.617	20062
902.735	20035
902.854	19906
902.973	19925
903.091	19655
903.21	19693
903.328	19655
903.446	19540
903.565	19506
903.683	19350
903.801	19289
903.919	19297
904.038	19377
904.156	19202
904.274	19251
904.392	19183
904.51	19126
904.627	19148
904.745	19057
904.863	19168
904.981	18958
905.098	18829
905.216	18901
905.334	18897
905.451	18905
905.569	18787
905.686	18909
905.803	18848
905.921	18658
906.038	18760
906.155	18658
906.272	18688
906.389	18521
906.506	18353
906.623	18350
906.74	18338
906.857	18190
906.974	18235
907.091	18418
907.208	18456
907.324	18426
907.441	18270
907.557	18125
907.674	18144
907.79	18053
907.907	18030
908.023	18121
908.139	18155
908.256	18003
908.372	17950
908.488	17969
908.604	17794
908.72	17752
908.836	17920
908.952	17771
909.068	17821
909.184	17866
909.3	17790
909.415	17939
909.531	17707
909.647	17471
909.762	17444
909.878	17425
909.993	17493
910.108	17558
910.224	17452
910.339	17558
910.454	17368
910.57	17299
910.685	17208
910.8	17474
910.915	17429
911.03	17284
911.145	17132
911.259	17033
911.374	17056
911.489	17003
911.604	16934
911.718	16854
911.833	16843
911.947	16702
912.062	16558
912.176	16793
912.291	16930
912.405	16771
912.519	16942
912.633	16915
912.748	16862
912.862	16805
912.976	16493
913.09	16481
913.204	16691
913.318	16596
913.431	16664
913.545	16580
913.659	16683
913.772	16531
913.886	16375
914	16440
914.113	16405
914.226	16455
914.34	16485
914.453	16299
914.566	16394
914.68	16371
914.793	16226
914.906	16002
915.019	15903
915.132	15934
915.245	15934
915.358	15895
915.47	15991
915.583	15903
915.696	15953
915.809	16093
915.921	16093
916.034	15937
916.146	15781
916.259	15812
916.371	15968
916.483	15812
916.595	15812
916.708	15808
916.82	15842
916.932	15724
917.044	15759
917.156	15679
917.268	15633
917.38	15584
917.491	15534
917.603	15603
917.715	15587
917.826	15709
917.938	15462
918.049	15393
918.161	15542
918.272	15698
918.384	15618
918.495	15431
918.606	15374
918.717	15287
918.828	15469
918.939	15359
919.05	15313
919.161	15272
919.272	15142
919.383	15157
919.494	15317
919.604	15530
919.715	15313
919.826	15218
919.936	15310
920.047	15374
920.157	15329
920.267	15561
920.378	15268
920.488	15252
920.598	15504
920.708	15660
920.818	15317
920.928	15405
921.038	15610
921.148	15511
921.258	15211
921.368	15176
921.477	15051
921.587	14956
921.697	14921
921.806	14956
921.916	14956
922.025	14701
922.134	14689
922.244	14625
922.353	14670
922.462	14564
922.571	14415
922.68	14377
922.789	14351
922.898	14259
923.007	14286
923.116	14309
923.224	14336
923.333	14183
923.442	14168
923.55	14100
923.659	14161
923.767	14259
923.876	14092
923.984	14126
924.092	13974
924.201	14050
924.309	14012
924.417	14062
924.525	13955
924.633	13936
924.741	14910
924.849	13776
924.956	13818
925.064	13814
925.172	13655
925.279	13727
925.387	13655
925.494	13597
925.602	13715
925.709	13750
925.816	13624
925.924	13636
926.031	13727
926.138	13643
926.245	13571
926.352	13514
926.459	13655
926.566	13674
926.673	13514
926.779	13430
926.886	13487
926.993	13232
927.099	13304
927.206	13217
927.312	13171
927.419	13247
927.525	13110
927.631	13175
927.737	13156
927.843	12985
927.95	12977
928.056	12928
928.162	13061
928.267	13015
928.373	13616
928.479	13065
928.585	12856
928.69	13004
928.796	13008
928.901	12837
929.007	12673
929.112	12829
929.218	12760
929.323	12715
929.428	12707
929.533	12814
929.638	12623
929.743	12684
929.848	12734
929.953	12574
930.058	12551
930.163	12395
930.267	12418
930.372	12513
930.477	12315
930.581	12620
930.685	12475
930.79	12277
930.894	12350
930.998	12254
931.103	12376
931.207	11992
931.311	11996
931.415	11855
931.519	11684
931.623	11714
