Data from test_V78500241_197.txt Node
Date: Fri Mar 25 15:43:09 CST 2022
User: usil
Spectrometer: V785-0024
Trigger mode: 0
Integration Time (sec): 4.000000E-1
Scans to average: 1
Nonlinearity correction enabled: false
Boxcar width: 0
Storing dark spectrum: false
XAxis mode: Wavelengths
Number of Pixels in Spectrum: 1024
>>>>>Begin Spectral Data<<<<<
801.071	29459
801.214	29429
801.356	29151
801.499	29102
801.641	29083
801.783	28987
801.926	29143
802.068	29044
802.211	29044
802.353	28968
802.496	28869
802.638	28816
802.78	28630
802.923	28763
803.065	28599
803.208	28489
803.35	28664
803.492	28885
803.635	28782
803.777	28706
803.919	28854
804.061	29246
804.204	28835
804.346	28839
804.488	28630
804.63	28672
804.773	28653
804.915	28706
805.057	28885
805.199	28713
805.341	28706
805.483	28812
805.626	29003
805.768	28824
805.91	28930
806.052	28927
806.194	28904
806.336	29090
806.478	29079
806.62	28961
806.762	28991
806.904	29197
807.046	29425
807.188	29311
807.33	29220
807.472	29455
807.614	29200
807.756	29292
807.898	29086
808.04	29048
808.182	29159
808.324	29174
808.465	29075
808.607	29212
808.749	29414
808.891	29433
809.033	29802
809.174	29493
809.316	29463
809.458	29379
809.6	29383
809.741	29566
809.883	29531
810.025	29623
810.166	29714
810.308	29714
810.45	29676
810.591	29657
810.733	29471
810.875	29524
811.016	29258
811.158	29421
811.299	29551
811.441	29638
811.582	29562
811.724	29471
811.865	29387
812.007	29452
812.148	29326
812.29	29410
812.431	29493
812.573	29779
812.714	29802
812.855	29836
812.997	30038
813.138	30121
813.279	30060
813.421	29798
813.562	29885
813.703	29642
813.845	29646
813.986	29318
814.127	29086
814.268	29102
814.41	29128
814.551	28961
814.692	29025
814.833	28968
814.974	29033
815.115	29094
815.256	28888
815.397	28862
815.539	28873
815.68	28831
815.821	28831
815.962	28980
816.103	28713
816.244	28713
816.385	28557
816.526	28603
816.666	28394
816.807	28169
816.948	28200
817.089	28443
817.23	28242
817.371	28325
817.512	28211
817.653	28188
817.793	28029
817.934	28223
818.075	28188
818.216	28223
818.356	28116
818.497	27895
818.638	27892
818.778	27865
818.919	27953
819.06	27873
819.2	27968
819.341	28215
819.481	28169
819.622	28360
819.762	28535
819.903	28337
820.043	28413
820.184	28299
820.324	28242
820.465	28211
820.605	28181
820.746	28185
820.886	28036
821.026	28215
821.167	28211
821.307	28344
821.447	28131
821.588	27975
821.728	27835
821.868	27812
822.008	27614
822.149	27519
822.289	27549
822.429	27211
822.569	27154
822.709	27203
822.849	26975
822.99	27081
823.13	27017
823.27	26944
823.41	26876
823.55	26765
823.69	26819
823.83	26944
823.97	26785
824.11	26590
824.25	26598
824.389	26640
824.529	26762
824.669	26537
824.809	26785
824.949	26708
825.089	26724
825.228	26636
825.368	26484
825.508	26336
825.648	26594
825.787	26389
825.927	26461
826.067	26381
826.206	26362
826.346	26552
826.485	26366
826.625	26484
826.765	26530
826.904	26556
827.044	26267
827.183	26358
827.323	26058
827.462	26149
827.601	26077
827.741	26191
827.88	26050
828.02	25947
828.159	26005
828.298	26092
828.437	26126
828.577	26096
828.716	26168
828.855	26020
828.994	25814
829.134	25830
829.273	25731
829.412	25841
829.551	25826
829.69	25814
829.829	25936
829.968	25860
830.107	25776
830.246	25814
830.385	25746
830.524	25666
830.663	25468
830.802	25514
830.941	25327
831.08	25392
831.219	25540
831.357	25392
831.496	25719
831.635	25278
831.774	25187
831.913	25179
832.051	25042
832.19	25133
832.329	25122
832.467	24954
832.606	25008
832.744	24985
832.883	24844
833.022	25042
833.16	25107
833.299	24977
833.437	24863
833.576	25126
833.714	24947
833.852	25053
833.991	25019
834.129	25145
834.267	25232
834.406	24977
834.544	25031
834.682	24947
834.821	24973
834.959	25095
835.097	24875
835.235	25031
835.373	24981
835.511	24913
835.65	24681
835.788	24856
835.926	24707
836.064	24623
836.202	24627
836.34	24935
836.478	24958
836.615	24726
836.753	24837
836.891	24852
837.029	24802
837.167	24639
837.305	24722
837.443	24665
837.58	24658
837.718	24707
837.856	24635
837.993	24490
838.131	24574
838.269	24414
838.406	24585
838.544	24433
838.681	24266
838.819	24308
838.956	24003
839.094	24171
839.231	24133
839.369	24266
839.506	24464
839.643	24266
839.781	24110
839.918	23988
840.055	24057
840.193	23908
840.33	23847
840.467	24030
840.604	23855
840.742	24186
840.879	23889
841.016	23893
841.153	23786
841.29	24041
841.427	23859
841.564	23923
841.701	24030
841.838	23893
841.975	23855
842.112	23741
842.249	23779
842.385	23687
842.522	23863
842.659	23722
842.796	23516
842.933	23668
843.069	23524
843.206	23455
843.343	23646
843.479	23604
843.616	23516
843.752	23376
843.889	23448
844.025	23455
844.162	23326
844.298	23387
844.435	23455
844.571	23364
844.708	23360
844.844	23444
844.98	23512
845.117	23395
845.253	23261
845.389	23083
845.525	23098
845.661	23128
845.798	22991
845.934	23113
846.07	23105
846.206	23102
846.342	23109
846.478	23033
846.614	22889
846.75	22790
846.886	22694
847.022	22809
847.158	22843
847.294	22702
847.429	22850
847.565	22691
847.701	22927
847.837	22607
847.972	22443
848.108	22565
848.244	22645
848.379	22497
848.515	22291
848.65	22295
848.786	22344
848.921	22223
849.057	22329
849.192	22428
849.328	22310
849.463	22333
849.598	22211
849.734	22207
849.869	22116
850.004	22097
850.14	22261
850.275	22124
850.41	22002
850.545	21991
850.68	22013
850.815	21930
850.95	22032
851.085	22211
851.22	22093
851.355	22006
851.49	22105
851.625	21953
851.76	21998
851.895	21838
852.03	21884
852.165	22021
852.299	22253
852.434	22051
852.569	22223
852.703	22013
852.838	22120
852.973	22097
853.107	22082
853.242	21888
853.376	21816
853.511	21720
853.645	21789
853.78	21953
853.914	21846
854.048	21762
854.183	21903
854.317	21850
854.451	22002
854.585	21869
854.72	21835
854.854	21972
854.988	21751
855.122	21812
855.256	21583
855.39	21724
855.524	21926
855.658	21964
855.792	21751
855.926	21884
856.06	21835
856.194	21869
856.327	21857
856.461	21690
856.595	21759
856.729	21759
856.862	21846
856.996	21819
857.13	21926
857.263	21831
857.397	21934
857.53	21694
857.664	21770
857.797	21816
857.931	21865
858.064	21857
858.197	21865
858.331	21762
858.464	21660
858.597	21701
858.731	21682
858.864	21778
858.997	21717
859.13	21789
859.263	21698
859.396	21819
859.529	21705
859.662	21739
859.795	21641
859.928	21759
860.061	21892
860.194	21899
860.327	21816
860.46	21816
860.592	21755
860.725	21823
860.858	21850
860.99	21747
861.123	21667
861.256	21679
861.388	21656
861.521	22459
861.653	21545
861.786	21603
861.918	21625
862.05	21618
862.183	21682
862.315	21701
862.447	21956
862.58	21793
862.712	21523
862.844	21473
862.976	21545
863.108	21408
863.24	21819
863.372	21420
863.504	21439
863.636	21389
863.768	21523
863.9	21469
864.032	21313
864.164	21401
864.296	21526
864.428	21473
864.559	21538
864.691	21538
864.823	21542
864.954	21279
865.086	21408
865.217	21355
865.349	21199
865.48	21359
865.612	21275
865.743	21355
865.875	21264
866.006	21287
866.137	21351
866.269	21298
866.4	21336
866.531	21165
866.662	21313
866.793	21207
866.924	21294
867.055	21207
867.186	21275
867.317	21260
867.448	21230
867.579	21211
867.71	21169
867.841	21108
867.972	21298
868.103	21287
868.233	21245
868.364	21226
868.495	21317
868.625	21462
868.756	21561
868.886	21466
869.017	21412
869.147	21538
869.278	21591
869.408	21515
869.539	21431
869.669	21424
869.799	21488
869.929	21534
870.06	21622
870.19	21743
870.32	21755
870.45	21880
870.58	21812
870.71	21945
870.84	21895
870.97	21869
871.1	21895
871.23	22074
871.36	22158
871.489	22048
871.619	22032
871.749	22017
871.879	22025
872.008	22093
872.138	22044
872.267	22078
872.397	21937
872.526	21884
872.656	21899
872.785	21857
872.915	22051
873.044	22207
873.173	22074
873.303	22188
873.432	22181
873.561	22128
873.69	22128
873.819	22093
873.948	22306
874.077	22105
874.206	21998
874.335	22082
874.464	22131
874.593	22246
874.722	22280
874.851	22413
874.979	22344
875.108	22352
875.237	22246
875.365	22188
875.494	22268
875.623	22352
875.751	22246
875.88	22268
876.008	22565
876.136	22504
876.265	22645
876.393	22923
876.521	22892
876.65	22729
876.778	22702
876.906	22675
877.034	22580
877.162	22736
877.29	22573
877.418	22725
877.546	22713
877.674	22626
877.802	22622
877.93	22630
878.058	22519
878.185	22596
878.313	22554
878.441	22713
878.568	22481
878.696	22512
878.824	22618
878.951	22710
879.079	22831
879.206	22915
879.333	22972
879.461	22672
879.588	22721
879.715	22748
879.842	23029
879.97	22759
880.097	22596
880.224	22519
880.351	22371
880.478	22489
880.605	22394
880.732	22424
880.859	22771
880.986	22500
881.112	22455
881.239	22466
881.366	22215
881.493	22287
881.619	22120
881.746	22082
881.872	22101
881.999	22051
882.125	21991
882.252	22116
882.378	22169
882.505	22074
882.631	21823
882.757	21915
882.883	21941
883.01	21778
883.136	21637
883.262	21667
883.388	21542
883.514	21720
883.64	21880
883.766	21660
883.892	21599
884.018	21599
884.143	21736
884.269	21774
884.395	21443
884.52	21374
884.646	21450
884.772	21363
884.897	21401
885.023	21374
885.148	21504
885.274	21549
885.399	21553
885.524	21458
885.65	21363
885.775	21492
885.9	21359
886.025	21481
886.15	21488
886.275	21359
886.4	21340
886.525	21294
886.65	21363
886.775	21260
886.9	21488
887.025	21469
887.149	21272
887.274	21165
887.399	21154
887.523	21081
887.648	21173
887.773	21051
887.897	21226
888.021	21089
888.146	21100
888.27	21226
888.395	21195
888.519	21226
888.643	21173
888.767	21260
888.891	20982
889.015	20910
889.139	20975
889.263	20857
889.387	21085
889.511	21131
889.635	21077
889.759	20956
889.883	20941
890.006	20830
890.13	20944
890.254	20807
890.377	20823
890.501	20629
890.624	20663
890.748	20705
890.871	20526
890.995	20427
891.118	20415
891.241	20598
891.364	20533
891.488	20655
891.611	20568
891.734	20454
891.857	20552
891.98	20511
892.103	20583
892.226	20507
892.349	20457
892.471	20278
892.594	20317
892.717	20415
892.839	20469
892.962	20438
893.085	20530
893.207	20328
893.33	20298
893.452	20324
893.575	20374
893.697	20431
893.819	20541
893.941	20480
894.064	20583
894.186	20355
894.308	20309
894.43	20511
894.552	20526
894.674	20427
894.796	20237
894.918	20415
895.04	20355
895.161	20492
895.283	20385
895.405	20305
895.526	20393
895.648	20259
895.769	20347
895.891	20450
896.012	20560
896.134	20374
896.255	20454
896.376	20438
896.498	20434
896.619	20434
896.74	20514
896.861	20419
896.982	20705
897.103	20910
897.224	20689
897.345	20682
897.466	20590
897.587	20689
897.708	20773
897.828	20689
897.949	20514
898.07	20442
898.19	20583
898.311	20648
898.431	20602
898.552	20499
898.672	20659
898.792	20743
898.913	20514
899.033	20339
899.153	20324
899.273	20142
899.393	20233
899.513	20427
899.633	20339
899.753	20278
899.873	20282
899.993	20278
900.113	20252
900.232	20267
900.352	20225
900.472	20168
900.591	19993
900.711	20130
900.83	19902
900.95	20122
901.069	20202
901.189	19963
901.308	19734
901.427	19582
901.546	19620
901.665	19795
901.784	19685
901.904	19563
902.023	19369
902.141	19225
902.26	19164
902.379	19171
902.498	19187
902.617	19110
902.735	19118
902.854	19046
902.973	19015
903.091	18753
903.21	18734
903.328	18863
903.446	18776
903.565	18669
903.683	18631
903.801	18525
903.919	18669
904.038	18544
904.156	18414
904.274	18502
904.392	18300
904.51	18384
904.627	18342
904.745	18391
904.863	18498
904.981	18186
905.098	18087
905.216	17920
905.334	17980
905.451	18106
905.569	17942
905.686	18083
905.803	18003
905.921	17813
906.038	17874
906.155	17901
906.272	17646
906.389	17741
906.506	17512
906.623	17570
906.74	17573
906.857	17402
906.974	17455
907.091	17589
907.208	17619
907.324	17592
907.441	17512
907.557	17250
907.674	17315
907.79	17178
907.907	17235
908.023	17311
908.139	17155
908.256	17143
908.372	17109
908.488	17056
908.604	16908
908.72	16972
908.836	16961
908.952	16873
909.068	16900
909.184	16953
909.3	16968
909.415	16915
909.531	16942
909.647	16729
909.762	16611
909.878	16653
909.993	16611
910.108	16561
910.224	16516
910.339	16550
910.454	16478
910.57	16402
910.685	16318
910.8	16516
910.915	16592
911.03	16417
911.145	16249
911.259	16124
911.374	16249
911.489	16116
911.604	16093
911.718	15895
911.833	15991
911.947	15880
912.062	15789
912.176	15975
912.291	16021
912.405	16078
912.519	16093
912.633	15991
912.748	15918
912.862	15937
912.976	15747
913.09	15587
913.204	15755
913.318	15709
913.431	15846
913.545	15823
913.659	15918
913.772	15743
913.886	15507
914	15629
914.113	15610
914.226	15648
914.34	15595
914.453	15386
914.566	15561
914.68	15370
914.793	15386
914.906	15233
915.019	15165
915.132	15123
915.245	15161
915.358	15161
915.47	15062
915.583	15161
915.696	15207
915.809	15218
915.921	15287
916.034	15127
916.146	14960
916.259	15009
916.371	15173
916.483	15089
916.595	15017
916.708	14929
916.82	15013
916.932	14929
917.044	14933
917.156	15001
917.268	14883
917.38	14788
917.491	14727
917.603	14838
917.715	14872
917.826	14975
917.938	14781
918.049	14587
918.161	14781
918.272	14883
918.384	14876
918.495	14697
918.606	14560
918.717	14446
918.828	14541
918.939	14587
919.05	14537
919.161	14503
919.272	14320
919.383	14389
919.494	14514
919.604	14655
919.715	14476
919.826	14370
919.936	14476
920.047	14583
920.157	14427
920.267	14651
920.378	14514
920.488	14461
920.598	14667
920.708	14830
920.818	14571
920.928	14571
921.038	14773
921.148	14659
921.258	14431
921.368	14305
921.477	14271
921.587	14199
921.697	14062
921.806	14221
921.916	14069
922.025	13791
922.134	13860
922.244	13822
922.353	13864
922.462	13818
922.571	13613
922.68	13537
922.789	13533
922.898	13502
923.007	13411
923.116	13540
923.224	13419
923.333	13327
923.442	13327
923.55	13236
923.659	13301
923.767	13324
923.876	13282
923.984	13335
924.092	13145
924.201	13168
924.309	13263
924.417	13202
924.525	13183
924.633	13107
924.741	13982
924.849	12973
924.956	13034
925.064	12947
925.172	12932
925.279	12867
925.387	12890
925.494	12894
925.602	12905
925.709	12916
925.816	12833
925.924	12905
926.031	12951
926.138	12829
926.245	12920
926.352	12738
926.459	12859
926.566	12943
926.673	12669
926.779	12707
926.886	12593
926.993	12528
927.099	12490
927.206	12452
927.312	12437
927.419	12448
927.525	12376
927.631	12536
927.737	12353
927.843	12311
927.95	12190
928.056	12289
928.162	12273
928.267	12365
928.373	12939
928.479	12338
928.585	12136
928.69	12178
928.796	12159
928.901	12163
929.007	11961
929.112	12117
929.218	12079
929.323	12045
929.428	12057
929.533	12079
929.638	11996
929.743	11942
929.848	12011
929.953	11897
930.058	11859
930.163	11653
930.267	11691
930.372	11779
930.477	11589
930.581	11904
930.685	11653
930.79	11512
930.894	11535
930.998	11520
931.103	11718
931.207	11296
931.311	11284
931.415	11174
931.519	10995
931.623	10877
