Data from test_V78500241_2888.txt Node
Date: Fri Mar 25 16:01:48 CST 2022
User: usil
Spectrometer: V785-0024
Trigger mode: 0
Integration Time (sec): 4.000000E-1
Scans to average: 1
Nonlinearity correction enabled: false
Boxcar width: 0
Storing dark spectrum: false
XAxis mode: Wavelengths
Number of Pixels in Spectrum: 1024
>>>>>Begin Spectral Data<<<<<
801.071	28824
801.214	28736
801.356	28497
801.499	28443
801.641	28325
801.783	28276
801.926	28257
802.068	28291
802.211	28226
802.353	28295
802.496	28029
802.638	28055
802.78	27991
802.923	27922
803.065	27930
803.208	27983
803.35	28101
803.492	28177
803.635	28238
803.777	28082
803.919	28128
804.061	28702
804.204	28363
804.346	28276
804.488	28021
804.63	28242
804.773	28249
804.915	28417
805.057	28337
805.199	28063
805.341	28348
805.483	28242
805.626	28424
805.768	28299
805.91	28466
806.052	28413
806.194	28432
806.336	28649
806.478	28451
806.62	28470
806.762	28641
806.904	28687
807.046	28915
807.188	28812
807.33	28972
807.472	28976
807.614	28934
807.756	28854
807.898	28729
808.04	28710
808.182	28729
808.324	28831
808.465	28729
808.607	28927
808.749	29048
808.891	29200
809.033	29326
809.174	29292
809.316	29121
809.458	29170
809.6	28965
809.741	29288
809.883	29337
810.025	29436
810.166	29440
810.308	29341
810.45	29368
810.591	29269
810.733	29178
810.875	28987
811.016	29022
811.158	29067
811.299	29181
811.441	29265
811.582	29345
811.724	29109
811.865	29136
812.007	29128
812.148	29212
812.29	29280
812.431	29303
812.573	29436
812.714	29524
812.855	29668
812.997	29786
813.138	29950
813.279	29813
813.421	29634
813.562	29573
813.703	29433
813.845	29296
813.986	29094
814.127	28980
814.268	28824
814.41	28995
814.551	28774
814.692	28885
814.833	28729
814.974	28850
815.115	28915
815.256	28759
815.397	28618
815.539	28752
815.68	28725
815.821	28557
815.962	28702
816.103	28675
816.244	28592
816.385	28386
816.526	28325
816.666	28249
816.807	28131
816.948	28318
817.089	28299
817.23	28238
817.371	28154
817.512	28230
817.653	28128
817.793	28093
817.934	28196
818.075	28158
818.216	28169
818.356	28040
818.497	27994
818.638	27941
818.778	27827
818.919	27934
819.06	27991
819.2	28166
819.341	28200
819.481	28215
819.622	28360
819.762	28500
819.903	28371
820.043	28322
820.184	28329
820.324	28188
820.465	28291
820.605	28424
820.746	28303
820.886	28207
821.026	28257
821.167	28219
821.307	28356
821.447	28169
821.588	28177
821.728	28074
821.868	27755
822.008	27606
822.149	27739
822.289	27515
822.429	27405
822.569	27405
822.709	27252
822.849	27173
822.99	27211
823.13	27165
823.27	27188
823.41	27009
823.55	26872
823.69	26967
823.83	27020
823.97	26880
824.11	26762
824.25	26811
824.389	26804
824.529	26960
824.669	26895
824.809	27032
824.949	26944
825.089	26925
825.228	26872
825.368	26705
825.508	26651
825.648	26769
825.787	26773
825.927	26758
826.067	26693
826.206	26735
826.346	26750
826.485	26689
826.625	26826
826.765	26902
826.904	26716
827.044	26377
827.183	26549
827.323	26568
827.462	26423
827.601	26415
827.741	26366
827.88	26423
828.02	26278
828.159	26313
828.298	26438
828.437	26393
828.577	26324
828.716	26644
828.855	26362
828.994	26126
829.134	26229
829.273	26138
829.412	26024
829.551	26092
829.69	26176
829.829	26107
829.968	26176
830.107	26157
830.246	26145
830.385	26027
830.524	26043
830.663	25864
830.802	25765
830.941	25731
831.08	25651
831.219	25765
831.357	25780
831.496	25932
831.635	25616
831.774	25635
831.913	25696
832.051	25525
832.19	25605
832.329	25514
832.467	25476
832.606	25426
832.744	25415
832.883	25259
833.022	25449
833.16	25506
833.299	25415
833.437	25411
833.576	25343
833.714	25415
833.852	25346
833.991	25518
834.129	25537
834.267	25582
834.406	25449
834.544	25411
834.682	25506
834.821	25392
834.959	25620
835.097	25339
835.235	25502
835.373	25457
835.511	25457
835.65	25289
835.788	25285
835.926	25129
836.064	25095
836.202	25103
836.34	25236
836.478	25331
836.615	25350
836.753	25369
836.891	25384
837.029	25285
837.167	25312
837.305	25152
837.443	25228
837.58	25164
837.718	25183
837.856	25061
837.993	24905
838.131	25057
838.269	25034
838.406	25072
838.544	24814
838.681	24863
838.819	24909
838.956	24467
839.094	24604
839.231	24540
839.369	24814
839.506	24795
839.643	24779
839.781	24646
839.918	24502
840.055	24570
840.193	24555
840.33	24502
840.467	24498
840.604	24433
840.742	24711
840.879	24292
841.016	24285
841.153	24494
841.29	24513
841.427	24448
841.564	24475
841.701	24403
841.838	24376
841.975	24315
842.112	24338
842.249	24311
842.385	24357
842.522	24441
842.659	24311
842.796	24216
842.933	24308
843.069	24186
843.206	24213
843.343	24296
843.479	24277
843.616	24216
843.752	24022
843.889	23961
844.025	24064
844.162	24091
844.298	23946
844.435	24022
844.571	24022
844.708	24083
844.844	24117
844.98	24102
845.117	24163
845.253	24022
845.389	23870
845.525	23863
845.661	23748
845.798	23684
845.934	23779
846.07	23783
846.206	23855
846.342	23824
846.478	23691
846.614	23592
846.75	23360
846.886	23383
847.022	23562
847.158	23634
847.294	23471
847.429	23471
847.565	23452
847.701	23695
847.837	23216
847.972	23220
848.108	23307
848.244	23227
848.379	23105
848.515	22976
848.65	23033
848.786	23204
848.921	23044
849.057	23071
849.192	23242
849.328	23048
849.463	23086
849.598	23014
849.734	22873
849.869	22991
850.004	22892
850.14	22854
850.275	22858
850.41	22698
850.545	22793
850.68	22771
850.815	22896
850.95	22831
851.085	22991
851.22	22866
851.355	22869
851.49	22839
851.625	22816
851.76	22820
851.895	22691
852.03	22675
852.165	22927
852.299	22809
852.434	22869
852.569	22850
852.703	22866
852.838	22809
852.973	23003
853.107	22877
853.242	22729
853.376	22694
853.511	22531
853.645	22611
853.78	22569
853.914	22698
854.048	22596
854.183	22679
854.317	22615
854.451	22877
854.585	22615
854.72	22664
854.854	22717
854.988	22519
855.122	22733
855.256	22569
855.39	22637
855.524	22653
855.658	22599
855.792	22725
855.926	22497
856.06	22736
856.194	22634
856.327	22573
856.461	22622
856.595	22546
856.729	22607
856.862	22824
856.996	22748
857.13	22668
857.263	22820
857.397	22771
857.53	22645
857.664	22653
857.797	22713
857.931	22691
858.064	22592
858.197	22729
858.331	22580
858.464	22550
858.597	22485
858.731	22554
858.864	22596
858.997	22626
859.13	22736
859.263	22694
859.396	22771
859.529	22645
859.662	22599
859.795	22641
859.928	22641
860.061	22854
860.194	22729
860.327	22675
860.46	22744
860.592	22740
860.725	22797
860.858	22740
860.99	22672
861.123	22656
861.256	22580
861.388	22596
861.521	23307
861.653	22440
861.786	22485
861.918	22519
862.05	22569
862.183	22641
862.315	22599
862.447	22729
862.58	22455
862.712	22325
862.844	22306
862.976	22402
863.108	22280
863.24	22831
863.372	22223
863.504	22173
863.636	22295
863.768	22348
863.9	22379
864.032	22424
864.164	22268
864.296	22390
864.428	22421
864.559	22424
864.691	22356
864.823	22329
864.954	22284
865.086	22223
865.217	22291
865.349	22112
865.48	22211
865.612	22131
865.743	22314
865.875	22226
866.006	22074
866.137	22139
866.269	22257
866.4	22139
866.531	22116
866.662	22128
866.793	22051
866.924	22162
867.055	22074
867.186	22272
867.317	22025
867.448	22101
867.579	22074
867.71	22101
867.841	22044
867.972	22101
868.103	22112
868.233	22105
868.364	22135
868.495	22177
868.625	22341
868.756	22512
868.886	22280
869.017	22284
869.147	22466
869.278	22485
869.408	22440
869.539	22428
869.669	22466
869.799	22344
869.929	22447
870.06	22546
870.19	22759
870.32	22748
870.45	22759
870.58	22797
870.71	22854
870.84	22828
870.97	22786
871.1	22805
871.23	22999
871.36	22987
871.489	22930
871.619	22976
871.749	22927
871.879	22869
872.008	23033
872.138	22889
872.267	23033
872.397	22889
872.526	22622
872.656	22805
872.785	22877
872.915	22946
873.044	23029
873.173	22938
873.303	23143
873.432	23033
873.561	22999
873.69	22984
873.819	22987
873.948	23159
874.077	23109
874.206	22938
874.335	22984
874.464	23014
874.593	23261
874.722	23200
874.851	23212
874.979	23273
875.108	23356
875.237	23056
875.365	23159
875.494	23117
875.623	23170
875.751	23208
875.88	23269
876.008	23379
876.136	23379
876.265	23615
876.393	23627
876.521	23604
876.65	23604
876.778	23684
876.906	23531
877.034	23528
877.162	23539
877.29	23501
877.418	23615
877.546	23520
877.674	23417
877.802	23486
877.93	23554
878.058	23429
878.185	23486
878.313	23425
878.441	23497
878.568	23402
878.696	23490
878.824	23585
878.951	23638
879.079	23661
879.206	23714
879.333	23634
879.461	23459
879.588	23665
879.715	23653
879.842	23802
879.97	23657
880.097	23307
880.224	23322
880.351	23322
880.478	23307
880.605	23269
880.732	23372
880.859	23528
880.986	23406
881.112	23360
881.239	23212
881.366	23037
881.493	23052
881.619	23014
881.746	22930
881.872	22919
881.999	22968
882.125	22911
882.252	22774
882.378	22881
882.505	22942
882.631	22599
882.757	22740
882.883	22691
883.01	22554
883.136	22519
883.262	22436
883.388	22341
883.514	22656
883.64	22653
883.766	22447
883.892	22310
884.018	22462
884.143	22584
884.269	22615
884.395	22348
884.52	22124
884.646	22181
884.772	22177
884.897	22169
885.023	22196
885.148	22341
885.274	22386
885.399	22325
885.524	22276
885.65	22303
885.775	22280
885.9	22280
886.025	22310
886.15	22276
886.275	22169
886.4	22051
886.525	22143
886.65	22154
886.775	21937
886.9	22246
887.025	22485
887.149	22185
887.274	22090
887.399	22006
887.523	22006
887.648	21953
887.773	22048
887.897	22131
888.021	21915
888.146	21903
888.27	22090
888.395	21911
888.519	22040
888.643	21949
888.767	22070
888.891	21865
889.015	21720
889.139	21854
889.263	21709
889.387	21850
889.511	22044
889.635	21953
889.759	21770
889.883	21751
890.006	21713
890.13	21770
890.254	21743
890.377	21709
890.501	21473
890.624	21549
890.748	21549
890.871	21477
890.995	21214
891.118	21233
891.241	21561
891.364	21317
891.488	21481
891.611	21340
891.734	21424
891.857	21367
891.98	21275
892.103	21359
892.226	21180
892.349	21310
892.471	21154
892.594	21245
892.717	21275
892.839	21188
892.962	21325
893.085	21283
893.207	21264
893.33	21039
893.452	21184
893.575	21249
893.697	21184
893.819	21245
893.941	21359
894.064	21416
894.186	21100
894.308	21081
894.43	21195
894.552	21298
894.674	21283
894.796	21024
894.918	21123
895.04	21074
895.161	21317
895.283	21252
895.405	21161
895.526	21230
895.648	21077
895.769	21203
895.891	21260
896.012	21142
896.134	21199
896.255	21157
896.376	21146
896.498	21154
896.619	21329
896.74	21119
896.861	21161
896.982	21454
897.103	21603
897.224	21466
897.345	21454
897.466	21378
897.587	21454
897.708	21492
897.828	21393
897.949	21317
898.07	21123
898.19	21294
898.311	21469
898.431	21165
898.552	21447
898.672	21363
898.792	21374
898.913	21439
899.033	21313
899.153	21188
899.273	21123
899.393	21100
899.513	21108
899.633	20986
899.753	21150
899.873	20963
899.993	21055
900.113	20895
900.232	21020
900.352	21039
900.472	20952
900.591	20781
900.711	20876
900.83	20750
900.95	21005
901.069	20906
901.189	20838
901.308	20579
901.427	20495
901.546	20469
901.665	20526
901.784	20461
901.904	20176
902.023	20229
902.141	20084
902.26	19974
902.379	20058
902.498	19947
902.617	19864
902.735	20077
902.854	19898
902.973	19890
903.091	19643
903.21	19628
903.328	19529
903.446	19662
903.565	19415
903.683	19373
903.801	19354
903.919	19327
904.038	19324
904.156	19042
904.274	19266
904.392	19095
904.51	19004
904.627	19103
904.745	19190
904.863	19156
904.981	18897
905.098	18802
905.216	18837
905.334	18837
905.451	18776
905.569	18764
905.686	18844
905.803	18787
905.921	18601
906.038	18696
906.155	18593
906.272	18623
906.389	18407
906.506	18372
906.623	18353
906.74	18399
906.857	18213
906.974	18292
907.091	18456
907.208	18391
907.324	18315
907.441	18228
907.557	18041
907.674	18045
907.79	18091
907.907	18019
908.023	18148
908.139	17999
908.256	17977
908.372	17946
908.488	17870
908.604	17779
908.72	17851
908.836	17805
908.952	17695
909.068	17821
909.184	17866
909.3	17775
909.415	17733
909.531	17760
909.647	17463
909.762	17452
909.878	17391
909.993	17501
910.108	17558
910.224	17448
910.339	17391
910.454	17395
910.57	17315
910.685	17071
910.8	17387
910.915	17326
911.03	17299
911.145	17029
911.259	17052
911.374	17113
911.489	17045
911.604	16953
911.718	16713
911.833	16790
911.947	16660
912.062	16687
912.176	16881
912.291	16793
912.405	16881
912.519	16968
912.633	16930
912.748	16786
912.862	16668
912.976	16653
913.09	16432
913.204	16618
913.318	16516
913.431	16634
913.545	16698
913.659	16664
913.772	16519
913.886	16440
914	16284
914.113	16440
914.226	16459
914.34	16367
914.453	16299
914.566	16447
914.68	16200
914.793	16287
914.906	15911
915.019	15991
915.132	15960
915.245	15945
915.358	15937
915.47	15953
915.583	15899
915.696	15956
915.809	16086
915.921	16048
916.034	15819
916.146	15915
916.259	15823
916.371	15827
916.483	15827
916.595	15812
916.708	15728
916.82	15739
916.932	15747
917.044	15770
917.156	15728
917.268	15549
917.38	15591
917.491	15534
917.603	15584
917.715	15679
917.826	15618
917.938	15469
918.049	15363
918.161	15561
918.272	15618
918.384	15701
918.495	15530
918.606	15355
918.717	15233
918.828	15401
918.939	15275
919.05	15180
919.161	15211
919.272	15051
919.383	15169
919.494	15287
919.604	15511
919.715	15336
919.826	15108
919.936	15245
920.047	15218
920.157	15298
920.267	15504
920.378	15310
920.488	15268
920.598	15405
920.708	15606
920.818	15458
920.928	15412
921.038	15447
921.148	15428
921.258	15222
921.368	15062
921.477	14998
921.587	15036
921.697	14804
921.806	15074
921.916	14804
922.025	14632
922.134	14663
922.244	14560
922.353	14636
922.462	14408
922.571	14442
922.68	14271
922.789	14278
922.898	14183
923.007	14240
923.116	14275
923.224	14195
923.333	14225
923.442	14027
923.55	14035
923.659	14092
923.767	14225
923.876	14001
923.984	14130
924.092	13917
924.201	13906
924.309	13974
924.417	13967
924.525	13856
924.633	13776
924.741	14864
924.849	13769
924.956	13856
925.064	13719
925.172	13624
925.279	13594
925.387	13696
925.494	13632
925.602	13753
925.709	13639
925.816	13521
925.924	13506
926.031	13670
926.138	13514
926.245	13620
926.352	13407
926.459	13544
926.566	13647
926.673	13377
926.779	13434
926.886	13316
926.993	13244
927.099	13285
927.206	13076
927.312	13114
927.419	13247
927.525	13156
927.631	13175
927.737	13031
927.843	13042
927.95	12856
928.056	12981
928.162	13015
928.267	13050
928.373	13616
928.479	13069
928.585	12787
928.69	12856
928.796	12909
928.901	12848
929.007	12658
929.112	12772
929.218	12779
929.323	12726
929.428	12738
929.533	12749
929.638	12578
929.743	12703
929.848	12620
929.953	12627
930.058	12509
930.163	12376
930.267	12300
930.372	12555
930.477	12285
930.581	12528
930.685	12407
930.79	12247
930.894	12300
930.998	12186
931.103	12327
931.207	11950
931.311	11836
931.415	11889
931.519	11630
931.623	11600
