Data from test_V78500241_1502.txt Node
Date: Fri Mar 25 15:52:12 CST 2022
User: usil
Spectrometer: V785-0024
Trigger mode: 0
Integration Time (sec): 4.000000E-1
Scans to average: 1
Nonlinearity correction enabled: false
Boxcar width: 0
Storing dark spectrum: false
XAxis mode: Wavelengths
Number of Pixels in Spectrum: 1024
>>>>>Begin Spectral Data<<<<<
801.071	27934
801.214	27724
801.356	27759
801.499	27412
801.641	27439
801.783	27485
801.926	27507
802.068	27355
802.211	27466
802.353	27310
802.496	27237
802.638	27081
802.78	27058
802.923	27070
803.065	26921
803.208	26960
803.35	27112
803.492	27142
803.635	27294
803.777	27157
803.919	27218
804.061	27576
804.204	27386
804.346	27207
804.488	27138
804.63	27256
804.773	27249
804.915	27230
805.057	27450
805.199	27332
805.341	27473
805.483	27496
805.626	27496
805.768	27382
805.91	27458
806.052	27454
806.194	27386
806.336	27557
806.478	27462
806.62	27412
806.762	27595
806.904	27622
807.046	27979
807.188	27884
807.33	27911
807.472	27873
807.614	27736
807.756	27968
807.898	27728
808.04	27701
808.182	27625
808.324	27857
808.465	27770
808.607	27991
808.749	28040
808.891	28188
809.033	28230
809.174	28154
809.316	28040
809.458	28029
809.6	28010
809.741	28150
809.883	28139
810.025	28417
810.166	28367
810.308	28470
810.45	28356
810.591	28226
810.733	28150
810.875	28162
811.016	27975
811.158	27994
811.299	28173
811.441	28242
811.582	28207
811.724	28032
811.865	28010
812.007	28036
812.148	28059
812.29	28040
812.431	28181
812.573	28363
812.714	28527
812.855	28691
812.997	28557
813.138	28892
813.279	28729
813.421	28599
813.562	28584
813.703	28508
813.845	28367
813.986	28120
814.127	27876
814.268	27739
814.41	27793
814.551	27724
814.692	27914
814.833	27720
814.974	27804
815.115	27774
815.256	27603
815.397	27660
815.539	27652
815.68	27641
815.821	27447
815.962	27530
816.103	27583
816.244	27564
816.385	27294
816.526	27363
816.666	27036
816.807	27176
816.948	27001
817.089	27218
817.23	27024
817.371	27104
817.512	27081
817.653	27195
817.793	26952
817.934	27058
818.075	27104
818.216	27077
818.356	26982
818.497	26979
818.638	26777
818.778	26868
818.919	26781
819.06	26838
819.2	26785
819.341	26883
819.481	27127
819.622	27272
819.762	27412
819.903	27378
820.043	27279
820.184	27310
820.324	27127
820.465	27291
820.605	27310
820.746	27180
820.886	27009
821.026	27135
821.167	27100
821.307	27351
821.447	27176
821.588	26872
821.728	26781
821.868	26686
822.008	26609
822.149	26689
822.289	26564
822.429	26267
822.569	26313
822.709	26252
822.849	26164
822.99	25993
823.13	26058
823.27	26073
823.41	25898
823.55	25837
823.69	25830
823.83	25932
823.97	25742
824.11	25658
824.25	25696
824.389	25628
824.529	25772
824.669	25723
824.809	25746
824.949	25715
825.089	25909
825.228	25811
825.368	25635
825.508	25620
825.648	25628
825.787	25689
825.927	25655
826.067	25521
826.206	25521
826.346	25601
826.485	25586
826.625	25548
826.765	25662
826.904	25628
827.044	25331
827.183	25384
827.323	25171
827.462	25350
827.601	25202
827.741	25137
827.88	25209
828.02	25133
828.159	25148
828.298	25384
828.437	25266
828.577	25217
828.716	25270
828.855	25179
828.994	24890
829.134	25129
829.273	24943
829.412	24924
829.551	24852
829.69	25004
829.829	25168
829.968	25206
830.107	24992
830.246	24901
830.385	24749
830.524	24764
830.663	24726
830.802	24711
830.941	24635
831.08	24467
831.219	24650
831.357	24582
831.496	24734
831.635	24559
831.774	24350
831.913	24498
832.051	24300
832.19	24380
832.329	24315
832.467	24247
832.606	24235
832.744	24098
832.883	24216
833.022	24133
833.16	24247
833.299	24327
833.437	24323
833.576	24323
833.714	24372
833.852	24266
833.991	24399
834.129	24509
834.267	24342
834.406	24532
834.544	24296
834.682	24232
834.821	24296
834.959	24582
835.097	24220
835.235	24483
835.373	24232
835.511	24334
835.65	24315
835.788	23996
835.926	24053
836.064	24064
836.202	24022
836.34	24102
836.478	24304
836.615	24174
836.753	24163
836.891	24114
837.029	24152
837.167	24053
837.305	23954
837.443	23939
837.58	24053
837.718	24041
837.856	23836
837.993	24022
838.131	23920
838.269	23882
838.406	23923
838.544	23855
838.681	23642
838.819	23710
838.956	23440
839.094	23455
839.231	23512
839.369	23570
839.506	23897
839.643	23805
839.781	23417
839.918	23372
840.055	23391
840.193	23421
840.33	23417
840.467	23452
840.604	23315
840.742	23531
840.879	23204
841.016	23216
841.153	23242
841.29	23478
841.427	23299
841.564	23284
841.701	23159
841.838	23345
841.975	23242
842.112	23379
842.249	23162
842.385	23071
842.522	23277
842.659	23250
842.796	23056
842.933	23113
843.069	23025
843.206	23071
843.343	23143
843.479	23052
843.616	23159
843.752	22911
843.889	22987
844.025	23041
844.162	22816
844.298	23044
844.435	22824
844.571	22900
844.708	22869
844.844	23151
844.98	23033
845.117	22946
845.253	22862
845.389	22790
845.525	22862
845.661	22763
845.798	22634
845.934	22603
846.07	22694
846.206	22596
846.342	22702
846.478	22626
846.614	22421
846.75	22356
846.886	22226
847.022	22447
847.158	22398
847.294	22242
847.429	22405
847.565	22352
847.701	22569
847.837	22048
847.972	22078
848.108	22109
848.244	22284
848.379	21838
848.515	21930
848.65	21823
848.786	22032
848.921	21876
849.057	22204
849.192	22025
849.328	22032
849.463	21895
849.598	21812
849.734	21903
849.869	21854
850.004	21816
850.14	21667
850.275	21671
850.41	21553
850.545	21713
850.68	21770
850.815	21747
850.95	21766
851.085	21930
851.22	21873
851.355	21736
851.49	21762
851.625	21698
851.76	21743
851.895	21637
852.03	21679
852.165	21663
852.299	21656
852.434	21759
852.569	21755
852.703	21728
852.838	21915
852.973	21865
853.107	21857
853.242	21622
853.376	21515
853.511	21462
853.645	21530
853.78	21728
853.914	21477
854.048	21542
854.183	21408
854.317	21553
854.451	21785
854.585	21564
854.72	21374
854.854	21568
854.988	21420
855.122	21477
855.256	21428
855.39	21542
855.524	21660
855.658	21622
855.792	21469
855.926	21553
856.06	21694
856.194	21671
856.327	21534
856.461	21393
856.595	21439
856.729	21458
856.862	21694
856.996	21576
857.13	21660
857.263	21523
857.397	21698
857.53	21519
857.664	21690
857.797	21679
857.931	21595
858.064	21481
858.197	21595
858.331	21530
858.464	21443
858.597	21450
858.731	21435
858.864	21538
858.997	21435
859.13	21591
859.263	21538
859.396	21652
859.529	21469
859.662	21454
859.795	21382
859.928	21542
860.061	21819
860.194	21686
860.327	21637
860.46	21557
860.592	21751
860.725	21587
860.858	21625
860.99	21500
861.123	21458
861.256	21450
861.388	21629
861.521	22135
861.653	21370
861.786	21351
861.918	21306
862.05	21378
862.183	21367
862.315	21473
862.447	21542
862.58	21431
862.712	21260
862.844	21188
862.976	21420
863.108	21275
863.24	21774
863.372	21135
863.504	21165
863.636	21287
863.768	21279
863.9	21161
864.032	21211
864.164	21165
864.296	21332
864.428	21332
864.559	21226
864.691	21268
864.823	21199
864.954	21150
865.086	21230
865.217	21207
865.349	21085
865.48	21230
865.612	21043
865.743	21226
865.875	21135
866.006	21146
866.137	21211
866.269	21131
866.4	21070
866.531	21150
866.662	21043
866.793	21058
866.924	21089
867.055	21127
867.186	21085
867.317	21093
867.448	20933
867.579	21074
867.71	21020
867.841	20899
867.972	21024
868.103	21017
868.233	21100
868.364	21108
868.495	21108
868.625	21321
868.756	21412
868.886	21287
869.017	21370
869.147	21367
869.278	21523
869.408	21416
869.539	21416
869.669	21241
869.799	21245
869.929	21526
870.06	21405
870.19	21663
870.32	21576
870.45	21675
870.58	21633
870.71	21736
870.84	21819
870.97	21789
871.1	21652
871.23	21873
871.36	21911
871.489	21682
871.619	21755
871.749	21728
871.879	21937
872.008	22105
872.138	21956
872.267	21800
872.397	21800
872.526	21701
872.656	21804
872.785	21766
872.915	21960
873.044	22017
873.173	21903
873.303	21998
873.432	22010
873.561	22124
873.69	21941
873.819	22017
873.948	22101
874.077	21922
874.206	21911
874.335	21808
874.464	21854
874.593	22249
874.722	22200
874.851	22143
874.979	22219
875.108	22131
875.237	22059
875.365	22006
875.494	22063
875.623	22287
875.751	22135
875.88	22109
876.008	22310
876.136	22363
876.265	22618
876.393	22596
876.521	22649
876.65	22592
876.778	22611
876.906	22462
877.034	22432
877.162	22516
877.29	22375
877.418	22531
877.546	22497
877.674	22432
877.802	22592
877.93	22535
878.058	22470
878.185	22413
878.313	22516
878.441	22413
878.568	22462
878.696	22436
878.824	22634
878.951	22580
879.079	22713
879.206	22858
879.333	22493
879.461	22466
879.588	22611
879.715	22805
879.842	22679
879.97	22554
880.097	22344
880.224	22417
880.351	22318
880.478	22386
880.605	22318
880.732	22341
880.859	22561
880.986	22356
881.112	22375
881.239	22295
881.366	22006
881.493	22002
881.619	21808
881.746	21960
881.872	21975
881.999	21918
882.125	21747
882.252	21899
882.378	21861
882.505	21994
882.631	21690
882.757	21622
882.883	21618
883.01	21591
883.136	21618
883.262	21511
883.388	21355
883.514	21534
883.64	21728
883.766	21545
883.892	21359
884.018	21313
884.143	21576
884.269	21644
884.395	21260
884.52	21329
884.646	21287
884.772	21104
884.897	21104
885.023	21237
885.148	21260
885.274	21462
885.399	21313
885.524	21188
885.65	21218
885.775	21176
885.9	21199
886.025	21416
886.15	21378
886.275	21256
886.4	21112
886.525	21176
886.65	21116
886.775	21165
886.9	21306
887.025	21473
887.149	21256
887.274	20971
887.399	20982
887.523	21077
887.648	20929
887.773	20914
887.897	21036
888.021	20998
888.146	20906
888.27	21169
888.395	21123
888.519	20998
888.643	20971
888.767	20982
888.891	20838
889.015	20762
889.139	20971
889.263	20735
889.387	20971
889.511	21005
889.635	20819
889.759	20625
889.883	20670
890.006	20849
890.13	20861
890.254	20598
890.377	20708
890.501	20590
890.624	20503
890.748	20423
890.871	20415
890.995	20377
891.118	20370
891.241	20465
891.364	20465
891.488	20438
891.611	20309
891.734	20240
891.857	20400
891.98	20488
892.103	20339
892.226	20286
892.349	20286
892.471	20172
892.594	20157
892.717	20298
892.839	20172
892.962	20343
893.085	20332
893.207	20282
893.33	20252
893.452	20218
893.575	20362
893.697	20252
893.819	20461
893.941	20579
894.064	20362
894.186	20111
894.308	20138
894.43	20275
894.552	20343
894.674	20412
894.796	20199
894.918	20252
895.04	20252
895.161	20381
895.283	20355
895.405	20240
895.526	20237
895.648	20336
895.769	20336
895.891	20263
896.012	20259
896.134	20355
896.255	20176
896.376	20259
896.498	20298
896.619	20320
896.74	20256
896.861	20336
896.982	20667
897.103	20716
897.224	20564
897.345	20484
897.466	20511
897.587	20423
897.708	20571
897.828	20590
897.949	20488
898.07	20278
898.19	20362
898.311	20629
898.431	20457
898.552	20400
898.672	20659
898.792	20659
898.913	20507
899.033	20377
899.153	20347
899.273	20290
899.393	20301
899.513	20252
899.633	20309
899.753	20320
899.873	20107
899.993	20248
900.113	20122
900.232	20229
900.352	20233
900.472	20088
900.591	19982
900.711	20058
900.83	19936
900.95	20149
901.069	20126
901.189	19788
901.308	19841
901.427	19575
901.546	19613
901.665	19578
901.784	19552
901.904	19445
902.023	19388
902.141	19137
902.26	19000
902.379	19190
902.498	19088
902.617	19027
902.735	19164
902.854	19141
902.973	18981
903.091	18753
903.21	18787
903.328	18749
903.446	18753
903.565	18540
903.683	18604
903.801	18338
903.919	18582
904.038	18399
904.156	18350
904.274	18384
904.392	18213
904.51	18258
904.627	18334
904.745	18479
904.863	18342
904.981	18216
905.098	18136
905.216	18072
905.334	17996
905.451	18053
905.569	17988
905.686	17988
905.803	18015
905.921	17840
906.038	17885
906.155	17912
906.272	17722
906.389	17687
906.506	17547
906.623	17585
906.74	17535
906.857	17379
906.974	17433
907.091	17570
907.208	17691
907.324	17547
907.441	17440
907.557	17246
907.674	17307
907.79	17223
907.907	17288
908.023	17280
908.139	17368
908.256	17140
908.372	17045
908.488	17113
908.604	17022
908.72	16968
908.836	16915
908.952	16885
909.068	17071
909.184	17067
909.3	16976
909.415	17056
909.531	16889
909.647	16759
909.762	16698
909.878	16656
909.993	16767
910.108	16679
910.224	16603
910.339	16660
910.454	16440
910.57	16413
910.685	16398
910.8	16649
910.915	16569
911.03	16577
911.145	16325
911.259	16265
911.374	16276
911.489	16169
911.604	16177
911.718	15949
911.833	16032
911.947	16036
912.062	15907
912.176	16006
912.291	15983
912.405	16032
912.519	16109
912.633	16162
912.748	16036
912.862	16025
912.976	15907
913.09	15755
913.204	15850
913.318	15793
913.431	15880
913.545	15816
913.659	15903
913.772	15819
913.886	15667
914	15576
914.113	15633
914.226	15751
914.34	15648
914.453	15507
914.566	15584
914.68	15435
914.793	15431
914.906	15325
915.019	15260
915.132	15230
915.245	15313
915.358	15268
915.47	15241
915.583	15195
915.696	15214
915.809	15252
915.921	15443
916.034	15127
916.146	15032
916.259	15199
916.371	15195
916.483	15142
916.595	15047
916.708	14994
916.82	15085
916.932	15089
917.044	14967
917.156	15001
917.268	14887
917.38	14872
917.491	14906
917.603	14925
917.715	14941
917.826	14937
917.938	14842
918.049	14807
918.161	14800
918.272	14998
918.384	14876
918.495	14807
918.606	14701
918.717	14640
918.828	14644
918.939	14701
919.05	14533
919.161	14632
919.272	14412
919.383	14564
919.494	14636
919.604	14769
919.715	14636
919.826	14545
919.936	14598
920.047	14606
920.157	14556
920.267	14788
920.378	14606
920.488	14530
920.598	14769
920.708	14861
920.818	14743
920.928	14674
921.038	14804
921.148	14872
921.258	14571
921.368	14465
921.477	14351
921.587	14362
921.697	14176
921.806	14412
921.916	14145
922.025	14058
922.134	14005
922.244	13868
922.353	13982
922.462	13868
922.571	13830
922.68	13616
922.789	13632
922.898	13609
923.007	13624
923.116	13559
923.224	13620
923.333	13533
923.442	13487
923.55	13415
923.659	13445
923.767	13453
923.876	13400
923.984	13449
924.092	13274
924.201	13350
924.309	13392
924.417	13354
924.525	13278
924.633	13255
924.741	14157
924.849	13149
924.956	13213
925.064	13072
925.172	13004
925.279	13053
925.387	12989
925.494	12954
925.602	13118
925.709	13072
925.816	12878
925.924	12966
926.031	13015
926.138	13004
926.245	12970
926.352	12859
926.459	12924
926.566	13012
926.673	12954
926.779	12833
926.886	12730
926.993	12597
927.099	12616
927.206	12582
927.312	12620
927.419	12707
927.525	12593
927.631	12627
927.737	12464
927.843	12448
927.95	12338
928.056	12338
928.162	12403
928.267	12460
928.373	13126
928.479	12490
928.585	12216
928.69	12372
928.796	12460
928.901	12258
929.007	12140
929.112	12323
929.218	12197
929.323	12190
929.428	12167
929.533	12247
929.638	12110
929.743	12053
929.848	12182
929.953	12038
930.058	11931
930.163	11836
930.267	11908
930.372	11908
930.477	11756
930.581	11999
930.685	11870
930.79	11752
930.894	11760
930.998	11653
931.103	11821
931.207	11452
931.311	11391
931.415	11345
931.519	11060
931.623	11033
