Data from test_V78500241_2200.txt Node
Date: Fri Mar 25 15:57:02 CST 2022
User: usil
Spectrometer: V785-0024
Trigger mode: 0
Integration Time (sec): 4.000000E-1
Scans to average: 1
Nonlinearity correction enabled: false
Boxcar width: 0
Storing dark spectrum: false
XAxis mode: Wavelengths
Number of Pixels in Spectrum: 1024
>>>>>Begin Spectral Data<<<<<
801.071	28672
801.214	28733
801.356	28512
801.499	28542
801.641	28451
801.783	28329
801.926	28360
802.068	28405
802.211	28363
802.353	28185
802.496	28063
802.638	28112
802.78	28131
802.923	27953
803.065	27941
803.208	28067
803.35	28025
803.492	28169
803.635	28226
803.777	28120
803.919	28177
804.061	28554
804.204	28329
804.346	28230
804.488	28162
804.63	28211
804.773	28223
804.915	28249
805.057	28504
805.199	28291
805.341	28352
805.483	28466
805.626	28481
805.768	28268
805.91	28333
806.052	28413
806.194	28394
806.336	28626
806.478	28424
806.62	28481
806.762	28649
806.904	28767
807.046	28877
807.188	28649
807.33	28873
807.472	28812
807.614	28717
807.756	28824
807.898	28847
808.04	28569
808.182	28713
808.324	28641
808.465	28881
808.607	28949
808.749	29155
808.891	29132
809.033	29189
809.174	29117
809.316	29090
809.458	29037
809.6	28987
809.741	29181
809.883	29102
810.025	29448
810.166	29372
810.308	29425
810.45	29239
810.591	29345
810.733	29143
810.875	29098
811.016	29128
811.158	29041
811.299	29132
811.441	29189
811.582	29330
811.724	29094
811.865	29098
812.007	29136
812.148	29090
812.29	29075
812.431	29269
812.573	29444
812.714	29387
812.855	29630
812.997	29733
813.138	29840
813.279	29748
813.421	29573
813.562	29634
813.703	29554
813.845	29436
813.986	29109
814.127	28946
814.268	28991
814.41	28687
814.551	28778
814.692	28873
814.833	28755
814.974	28801
815.115	28881
815.256	28736
815.397	28615
815.539	28630
815.68	28725
815.821	28634
815.962	28538
816.103	28519
816.244	28523
816.385	28504
816.526	28322
816.666	28059
816.807	28086
816.948	28109
817.089	28223
817.23	28154
817.371	28120
817.512	28188
817.653	27956
817.793	28036
817.934	28021
818.075	28192
818.216	28154
818.356	28105
818.497	27972
818.638	27842
818.778	27857
818.919	27884
819.06	27884
819.2	28067
819.341	28169
819.481	28086
819.622	28291
819.762	28291
819.903	28409
820.043	28303
820.184	28306
820.324	28162
820.465	28379
820.605	28219
820.746	28284
820.886	28090
821.026	28265
821.167	28219
821.307	28310
821.447	28207
821.588	28124
821.728	28101
821.868	27759
822.008	27534
822.149	27549
822.289	27549
822.429	27427
822.569	27363
822.709	27393
822.849	27157
822.99	27150
823.13	27062
823.27	27017
823.41	26925
823.55	26823
823.69	27036
823.83	26918
823.97	26811
824.11	26804
824.25	26743
824.389	26716
824.529	26826
824.669	26781
824.809	26887
824.949	26880
825.089	26758
825.228	26845
825.368	26507
825.508	26598
825.648	26632
825.787	26682
825.927	26765
826.067	26568
826.206	26651
826.346	26838
826.485	26705
826.625	26674
826.765	26712
826.904	26842
827.044	26473
827.183	26453
827.323	26412
827.462	26351
827.601	26294
827.741	26381
827.88	26389
828.02	26244
828.159	26385
828.298	26286
828.437	26476
828.577	26290
828.716	26484
828.855	26187
828.994	26043
829.134	26031
829.273	26111
829.412	26065
829.551	25993
829.69	25963
829.829	26024
829.968	26126
830.107	26172
830.246	26050
830.385	25936
830.524	25978
830.663	25887
830.802	25795
830.941	25723
831.08	25639
831.219	25651
831.357	25670
831.496	25997
831.635	25632
831.774	25556
831.913	25514
832.051	25556
832.19	25457
832.329	25559
832.467	25316
832.606	25282
832.744	25320
832.883	25175
833.022	25362
833.16	25297
833.299	25403
833.437	25537
833.576	25430
833.714	25460
833.852	25472
833.991	25403
834.129	25419
834.267	25502
834.406	25479
834.544	25407
834.682	25487
834.821	25479
834.959	25483
835.097	25324
835.235	25449
835.373	25304
835.511	25445
835.65	25251
835.788	25236
835.926	25198
836.064	25046
836.202	25202
836.34	25206
836.478	25327
836.615	25327
836.753	25164
836.891	25346
837.029	25225
837.167	25072
837.305	25148
837.443	25042
837.58	24992
837.718	25046
837.856	24973
837.993	24954
838.131	25000
838.269	24833
838.406	24806
838.544	24989
838.681	24635
838.819	24677
838.956	24544
839.094	24532
839.231	24582
839.369	24642
839.506	24840
839.643	24787
839.781	24505
839.918	24498
840.055	24388
840.193	24437
840.33	24372
840.467	24388
840.604	24403
840.742	24738
840.879	24289
841.016	24357
841.153	24403
841.29	24494
841.427	24433
841.564	24418
841.701	24304
841.838	24380
841.975	24292
842.112	24338
842.249	24270
842.385	24121
842.522	24505
842.659	24273
842.796	24220
842.933	24220
843.069	24186
843.206	24125
843.343	24194
843.479	24121
843.616	24038
843.752	23984
843.889	23969
844.025	24209
844.162	23920
844.298	23965
844.435	23863
844.571	23897
844.708	23961
844.844	24072
844.98	23973
845.117	24022
845.253	23908
845.389	23748
845.525	23870
845.661	23783
845.798	23558
845.934	23577
846.07	23646
846.206	23714
846.342	23752
846.478	23707
846.614	23410
846.75	23387
846.886	23467
847.022	23406
847.158	23474
847.294	23478
847.429	23315
847.565	23372
847.701	23501
847.837	23189
847.972	23022
848.108	23212
848.244	23250
848.379	23003
848.515	22957
848.65	22942
848.786	22999
848.921	23071
849.057	23064
849.192	23105
849.328	23022
849.463	23067
849.598	23025
849.734	22835
849.869	22896
850.004	22786
850.14	22664
850.275	22645
850.41	22599
850.545	22668
850.68	22702
850.815	22634
850.95	22721
851.085	22942
851.22	22911
851.355	22805
851.49	22675
851.625	22763
851.76	22736
851.895	22664
852.03	22660
852.165	22729
852.299	22744
852.434	22824
852.569	22736
852.703	22759
852.838	22774
852.973	22778
853.107	22847
853.242	22588
853.376	22637
853.511	22573
853.645	22565
853.78	22615
853.914	22603
854.048	22577
854.183	22466
854.317	22721
854.451	22698
854.585	22436
854.72	22557
854.854	22706
854.988	22432
855.122	22432
855.256	22443
855.39	22516
855.524	22683
855.658	22504
855.792	22519
855.926	22493
856.06	22584
856.194	22611
856.327	22512
856.461	22470
856.595	22516
856.729	22550
856.862	22577
856.996	22538
857.13	22721
857.263	22683
857.397	22618
857.53	22660
857.664	22538
857.797	22675
857.931	22603
858.064	22561
858.197	22706
858.331	22516
858.464	22489
858.597	22424
858.731	22584
858.864	22523
858.997	22474
859.13	22546
859.263	22607
859.396	22459
859.529	22459
859.662	22500
859.795	22592
859.928	22531
860.061	22569
860.194	22698
860.327	22607
860.46	22527
860.592	22698
860.725	22755
860.858	22637
860.99	22641
861.123	22519
861.256	22417
861.388	22573
861.521	23105
861.653	22284
861.786	22318
861.918	22375
862.05	22394
862.183	22474
862.315	22459
862.447	22577
862.58	22462
862.712	22234
862.844	22185
862.976	22344
863.108	22284
863.24	22809
863.372	22154
863.504	22204
863.636	22223
863.768	22276
863.9	22128
864.032	22181
864.164	22188
864.296	22390
864.428	22246
864.559	22314
864.691	22379
864.823	22207
864.954	22268
865.086	22188
865.217	22131
865.349	22097
865.48	22101
865.612	22131
865.743	22329
865.875	22131
866.006	22204
866.137	22010
866.269	22185
866.4	22169
866.531	22109
866.662	22048
866.793	22055
866.924	22025
867.055	22048
867.186	22044
867.317	22013
867.448	21956
867.579	21899
867.71	21991
867.841	22017
867.972	22029
868.103	22097
868.233	22055
868.364	22070
868.495	22158
868.625	22154
868.756	22417
868.886	22215
869.017	22337
869.147	22394
869.278	22230
869.408	22398
869.539	22265
869.669	22356
869.799	22386
869.929	22299
870.06	22436
870.19	22615
870.32	22569
870.45	22736
870.58	22694
870.71	22877
870.84	22786
870.97	22710
871.1	22641
871.23	22862
871.36	22949
871.489	22759
871.619	22885
871.749	22847
871.879	22831
872.008	22885
872.138	22793
872.267	22987
872.397	22854
872.526	22645
872.656	22634
872.785	22797
872.915	23064
873.044	22938
873.173	22896
873.303	22976
873.432	22980
873.561	23022
873.69	22942
873.819	22938
873.948	22930
874.077	23003
874.206	22771
874.335	22843
874.464	23022
874.593	23124
874.722	23060
874.851	23136
874.979	23185
875.108	23136
875.237	23086
875.365	22957
875.494	23025
875.623	23159
875.751	23121
875.88	23280
876.008	23208
876.136	23334
876.265	23467
876.393	23668
876.521	23634
876.65	23600
876.778	23577
876.906	23520
877.034	23402
877.162	23535
877.29	23402
877.418	23531
877.546	23410
877.674	23406
877.802	23486
877.93	23543
878.058	23303
878.185	23254
878.313	23299
878.441	23398
878.568	23318
878.696	23410
878.824	23444
878.951	23611
879.079	23623
879.206	23585
879.333	23691
879.461	23459
879.588	23577
879.715	23551
879.842	23775
879.97	23581
880.097	23250
880.224	23341
880.351	23368
880.478	23284
880.605	23231
880.732	23322
880.859	23509
880.986	23326
881.112	23258
881.239	23044
881.366	23105
881.493	22866
881.619	22771
881.746	22774
881.872	22824
881.999	22736
882.125	22649
882.252	22934
882.378	22721
882.505	22850
882.631	22656
882.757	22516
882.883	22592
883.01	22462
883.136	22535
883.262	22447
883.388	22398
883.514	22675
883.64	22523
883.766	22386
883.892	22341
884.018	22306
884.143	22580
884.269	22436
884.395	22211
884.52	22093
884.646	22303
884.772	22070
884.897	22002
885.023	22219
885.148	22253
885.274	22253
885.399	22284
885.524	22070
885.65	22173
885.775	22150
885.9	22044
886.025	22344
886.15	22185
886.275	22067
886.4	22025
886.525	22211
886.65	22109
886.775	22010
886.9	22249
887.025	22379
887.149	22166
887.274	21800
887.399	21850
887.523	21960
887.648	21854
887.773	21842
887.897	21911
888.021	21922
888.146	21922
888.27	21953
888.395	21918
888.519	21846
888.643	21895
888.767	21979
888.891	21918
889.015	21660
889.139	21705
889.263	21671
889.387	21709
889.511	21960
889.635	21663
889.759	21739
889.883	21648
890.006	21698
890.13	21667
890.254	21713
890.377	21606
890.501	21454
890.624	21363
890.748	21431
890.871	21321
890.995	21268
891.118	21260
891.241	21222
891.364	21142
891.488	21351
891.611	21173
891.734	21306
891.857	21268
891.98	21249
892.103	21173
892.226	21233
892.349	21195
892.471	21043
892.594	21173
892.717	21154
892.839	21173
892.962	21138
893.085	21074
893.207	21142
893.33	21005
893.452	21009
893.575	21222
893.697	21032
893.819	21245
893.941	21291
894.064	21211
894.186	21047
894.308	21142
894.43	21275
894.552	21241
894.674	21188
894.796	20994
894.918	21051
895.04	20982
895.161	21077
895.283	21192
895.405	21089
895.526	21161
895.648	21100
895.769	21104
895.891	21070
896.012	21283
896.134	21230
896.255	21051
896.376	21104
896.498	21138
896.619	21199
896.74	20994
896.861	21108
896.982	21348
897.103	21530
897.224	21325
897.345	21332
897.466	21127
897.587	21378
897.708	21496
897.828	21386
897.949	21237
898.07	21024
898.19	21294
898.311	21401
898.431	21245
898.552	21405
898.672	21306
898.792	21306
898.913	21241
899.033	21218
899.153	21138
899.273	21028
899.393	20990
899.513	21131
899.633	21123
899.753	21001
899.873	20971
899.993	20982
900.113	20967
900.232	20963
900.352	20895
900.472	20925
900.591	20746
900.711	20868
900.83	20781
900.95	20857
901.069	20891
901.189	20743
901.308	20499
901.427	20415
901.546	20294
901.665	20423
901.784	20408
901.904	20263
902.023	20183
902.141	19944
902.26	19967
902.379	19890
902.498	19849
902.617	19921
902.735	19864
902.854	19928
902.973	19761
903.091	19537
903.21	19468
903.328	19529
903.446	19491
903.565	19293
903.683	19304
903.801	19175
903.919	19377
904.038	19297
904.156	19069
904.274	19247
904.392	19031
904.51	19057
904.627	19050
904.745	19129
904.863	19057
904.981	18939
905.098	18810
905.216	18669
905.334	18798
905.451	18711
905.569	18745
905.686	18776
905.803	18817
905.921	18528
906.038	18669
906.155	18555
906.272	18437
906.389	18441
906.506	18311
906.623	18327
906.74	18258
906.857	18186
906.974	18205
907.091	18262
907.208	18304
907.324	18277
907.441	18114
907.557	17992
907.674	17996
907.79	17920
907.907	17973
908.023	17939
908.139	18076
908.256	17984
908.372	17893
908.488	17843
908.604	17707
908.72	17657
908.836	17676
908.952	17657
909.068	17672
909.184	17824
909.3	17790
909.415	17649
909.531	17714
909.647	17532
909.762	17417
909.878	17334
909.993	17433
910.108	17315
910.224	17334
910.339	17414
910.454	17227
910.57	17204
910.685	17117
910.8	17433
910.915	17345
911.03	17098
911.145	16934
911.259	16987
911.374	16915
911.489	16748
911.604	16858
911.718	16713
911.833	16672
911.947	16698
912.062	16706
912.176	16679
912.291	16725
912.405	16698
912.519	16957
912.633	16831
912.748	16755
912.862	16592
912.976	16550
913.09	16409
913.204	16466
913.318	16451
913.431	16596
913.545	16569
913.659	16588
913.772	16341
913.886	16375
914	16394
914.113	16341
914.226	16459
914.34	16367
914.453	16204
914.566	16314
914.68	16177
914.793	16158
914.906	15956
915.019	15911
915.132	15930
915.245	15892
915.358	15857
915.47	15899
915.583	15842
915.696	15846
915.809	15972
915.921	15865
916.034	15762
916.146	15713
916.259	15812
916.371	15960
916.483	15831
916.595	15778
916.708	15656
916.82	15584
916.932	15679
917.044	15633
917.156	15542
917.268	15492
917.38	15507
917.491	15428
917.603	15606
917.715	15561
917.826	15572
917.938	15370
918.049	15340
918.161	15424
918.272	15549
918.384	15526
918.495	15428
918.606	15298
918.717	15211
918.828	15268
918.939	15287
919.05	15203
919.161	15214
919.272	15013
919.383	15097
919.494	15260
919.604	15431
919.715	15321
919.826	15093
919.936	15150
920.047	15329
920.157	15157
920.267	15401
920.378	15302
920.488	15203
920.598	15348
920.708	15549
920.818	15359
920.928	15321
921.038	15378
921.148	15420
921.258	15108
921.368	15138
921.477	14925
921.587	14868
921.697	14762
921.806	14887
921.916	14762
922.025	14644
922.134	14602
922.244	14461
922.353	14549
922.462	14362
922.571	14450
922.68	14202
922.789	14180
922.898	14202
923.007	14180
923.116	14256
923.224	14199
923.333	14172
923.442	14031
923.55	13967
923.659	14077
923.767	14073
923.876	13955
923.984	13997
924.092	13967
924.201	13917
924.309	13947
924.417	13784
924.525	13795
924.633	13807
924.741	14552
924.849	13540
924.956	13738
925.064	13605
925.172	13499
925.279	13620
925.387	13632
925.494	13590
925.602	13734
925.709	13647
925.816	13506
925.924	13529
926.031	13594
926.138	13556
926.245	13548
926.352	13335
926.459	13525
926.566	13594
926.673	13426
926.779	13392
926.886	13236
926.993	13187
927.099	13122
927.206	13095
927.312	13065
927.419	13202
927.525	13122
927.631	13129
927.737	12966
927.843	12939
927.95	12798
928.056	12859
928.162	12947
928.267	12909
928.373	13632
928.479	12932
928.585	12711
928.69	12909
928.796	12901
928.901	12806
929.007	12627
929.112	12760
929.218	12787
929.323	12654
929.428	12646
929.533	12825
929.638	12528
929.743	12585
929.848	12623
929.953	12574
930.058	12509
930.163	12372
930.267	12304
930.372	12361
930.477	12262
930.581	12448
930.685	12365
930.79	12254
930.894	12144
930.998	12178
931.103	12270
931.207	11874
931.311	11786
931.415	11691
931.519	11448
931.623	11524
