Data from test_V78500241_1191.txt Node
Date: Fri Mar 25 15:50:03 CST 2022
User: usil
Spectrometer: V785-0024
Trigger mode: 0
Integration Time (sec): 4.000000E-1
Scans to average: 1
Nonlinearity correction enabled: false
Boxcar width: 0
Storing dark spectrum: false
XAxis mode: Wavelengths
Number of Pixels in Spectrum: 1024
>>>>>Begin Spectral Data<<<<<
801.071	28645
801.214	28538
801.356	28253
801.499	28116
801.641	28055
801.783	28207
801.926	28093
802.068	28124
802.211	28185
802.353	28063
802.496	27797
802.638	27812
802.78	27804
802.923	27854
803.065	27766
803.208	27770
803.35	27835
803.492	28010
803.635	27953
803.777	27895
803.919	27907
804.061	28413
804.204	28162
804.346	28105
804.488	28040
804.63	27907
804.773	28002
804.915	28078
805.057	28135
805.199	28131
805.341	28207
805.483	28143
805.626	28242
805.768	28078
805.91	28154
806.052	28185
806.194	28109
806.336	28428
806.478	28344
806.62	28253
806.762	28276
806.904	28417
807.046	28793
807.188	28672
807.33	28554
807.472	28683
807.614	28519
807.756	28615
807.898	28329
808.04	28512
808.182	28554
808.324	28573
808.465	28603
808.607	28694
808.749	28961
808.891	28987
809.033	29067
809.174	28938
809.316	28839
809.458	28919
809.6	28824
809.741	28915
809.883	28953
810.025	29212
810.166	29181
810.308	29269
810.45	29121
810.591	29064
810.733	28961
810.875	28908
811.016	28881
811.158	28774
811.299	28923
811.441	29170
811.582	29124
811.724	28858
811.865	28987
812.007	28885
812.148	29018
812.29	29003
812.431	29098
812.573	29239
812.714	29250
812.855	29402
812.997	29467
813.138	29771
813.279	29657
813.421	29482
813.562	29360
813.703	29318
813.845	29208
813.986	28972
814.127	28691
814.268	28664
814.41	28778
814.551	28656
814.692	28672
814.833	28569
814.974	28569
815.115	28615
815.256	28379
815.397	28573
815.539	28443
815.68	28405
815.821	28348
815.962	28519
816.103	28367
816.244	28344
816.385	28455
816.526	28303
816.666	28010
816.807	28192
816.948	27964
817.089	28044
817.23	28032
817.371	27964
817.512	28112
817.653	28017
817.793	27846
817.934	27968
818.075	27941
818.216	27941
818.356	27972
818.497	27873
818.638	27728
818.778	27850
818.919	27766
819.06	27736
819.2	27880
819.341	27835
819.481	27994
819.622	28055
819.762	28417
819.903	28105
820.043	28253
820.184	28097
820.324	28067
820.465	28192
820.605	28101
820.746	28101
820.886	27934
821.026	28116
821.167	28128
821.307	27987
821.447	27975
821.588	27941
821.728	27827
821.868	27663
822.008	27481
822.149	27424
822.289	27348
822.429	27302
822.569	27116
822.709	27032
822.849	26864
822.99	27032
823.13	27032
823.27	26891
823.41	26960
823.55	26473
823.69	26735
823.83	26697
823.97	26686
824.11	26545
824.25	26476
824.389	26705
824.529	26868
824.669	26648
824.809	26830
824.949	26857
825.089	26701
825.228	26792
825.368	26507
825.508	26655
825.648	26545
825.787	26575
825.927	26636
826.067	26583
826.206	26457
826.346	26575
826.485	26560
826.625	26446
826.765	26533
826.904	26526
827.044	26286
827.183	26263
827.323	26263
827.462	26252
827.601	26176
827.741	26282
827.88	26324
828.02	26065
828.159	26229
828.298	26233
828.437	26202
828.577	26142
828.716	26317
828.855	26084
828.994	26020
829.134	26046
829.273	25986
829.412	25928
829.551	25818
829.69	25803
829.829	25966
829.968	25993
830.107	26043
830.246	25993
830.385	25887
830.524	25826
830.663	25723
830.802	25499
830.941	25525
831.08	25346
831.219	25495
831.357	25712
831.496	25738
831.635	25571
831.774	25457
831.913	25472
832.051	25354
832.19	25259
832.329	25377
832.467	25209
832.606	25156
832.744	25129
832.883	25095
833.022	25198
833.16	25282
833.299	25274
833.437	25244
833.576	25190
833.714	25285
833.852	25358
833.991	25274
834.129	25270
834.267	25251
834.406	25183
834.544	25244
834.682	25228
834.821	25164
834.959	25445
835.097	25171
835.235	25316
835.373	25088
835.511	25190
835.65	25019
835.788	25118
835.926	24821
836.064	24848
836.202	24935
836.34	25072
836.478	25168
836.615	24962
836.753	25084
836.891	25103
837.029	25103
837.167	25027
837.305	24878
837.443	24924
837.58	24871
837.718	24920
837.856	24981
837.993	24783
838.131	24897
838.269	24730
838.406	24825
838.544	24696
838.681	24593
838.819	24494
838.956	24426
839.094	24315
839.231	24342
839.369	24509
839.506	24757
839.643	24741
839.781	24407
839.918	24323
840.055	24353
840.193	24353
840.33	24277
840.467	24262
840.604	24289
840.742	24410
840.879	24209
841.016	24353
841.153	24186
841.29	24445
841.427	24304
841.564	24117
841.701	24220
841.838	24270
841.975	24144
842.112	24079
842.249	24213
842.385	23874
842.522	24232
842.659	24003
842.796	23965
842.933	24144
843.069	23923
843.206	23996
843.343	23988
843.479	24003
843.616	23942
843.752	23813
843.889	23821
844.025	23984
844.162	23733
844.298	23912
844.435	23771
844.571	23710
844.708	23889
844.844	23920
844.98	23935
845.117	23931
845.253	23737
845.389	23638
845.525	23691
845.661	23634
845.798	23531
845.934	23638
846.07	23505
846.206	23493
846.342	23585
846.478	23627
846.614	23318
846.75	23212
846.886	23220
847.022	23379
847.158	23315
847.294	23235
847.429	23318
847.565	23220
847.701	23406
847.837	22843
847.972	22915
848.108	23014
848.244	23090
848.379	22934
848.515	22774
848.65	22843
848.786	22873
848.921	22961
849.057	22904
849.192	23052
849.328	22843
849.463	22660
849.598	22831
849.734	22649
849.869	22721
850.004	22683
850.14	22653
850.275	22592
850.41	22440
850.545	22459
850.68	22630
850.815	22706
850.95	22542
851.085	22831
851.22	22767
851.355	22694
851.49	22497
851.625	22622
851.76	22691
851.895	22531
852.03	22413
852.165	22626
852.299	22790
852.434	22675
852.569	22630
852.703	22710
852.838	22683
852.973	22710
853.107	22634
853.242	22546
853.376	22440
853.511	22337
853.645	22405
853.78	22382
853.914	22226
854.048	22314
854.183	22402
854.317	22413
854.451	22489
854.585	22405
854.72	22436
854.854	22375
854.988	22447
855.122	22375
855.256	22249
855.39	22394
855.524	22421
855.658	22493
855.792	22382
855.926	22409
856.06	22516
856.194	22577
856.327	22329
856.461	22341
856.595	22303
856.729	22432
856.862	22455
856.996	22424
857.13	22554
857.263	22535
857.397	22481
857.53	22363
857.664	22390
857.797	22538
857.931	22523
858.064	22352
858.197	22455
858.331	22356
858.464	22200
858.597	22390
858.731	22413
858.864	22284
858.997	22306
859.13	22405
859.263	22394
859.396	22470
859.529	22386
859.662	22333
859.795	22314
859.928	22348
860.061	22440
860.194	22649
860.327	22402
860.46	22516
860.592	22592
860.725	22481
860.858	22455
860.99	22428
861.123	22329
861.256	22303
861.388	22325
861.521	23151
861.653	22306
861.786	22257
861.918	22207
862.05	22242
862.183	22325
862.315	22219
862.447	22344
862.58	22394
862.712	22116
862.844	22090
862.976	22166
863.108	22063
863.24	22645
863.372	22128
863.504	22036
863.636	21998
863.768	22215
863.9	22147
864.032	21934
864.164	22128
864.296	22124
864.428	22238
864.559	22303
864.691	22162
864.823	22040
864.954	22006
865.086	22112
865.217	21880
865.349	21922
865.48	21907
865.612	22139
865.743	22048
865.875	22070
866.006	21991
866.137	21960
866.269	22040
866.4	21899
866.531	21922
866.662	21930
866.793	21930
866.924	21869
867.055	21934
867.186	21979
867.317	21838
867.448	21918
867.579	21804
867.71	21873
867.841	21835
867.972	21884
868.103	21766
868.233	21812
868.364	21960
868.495	21991
868.625	22303
868.756	22287
868.886	22051
869.017	22078
869.147	22268
869.278	22238
869.408	22143
869.539	22272
869.669	22215
869.799	22249
869.929	22219
870.06	22200
870.19	22470
870.32	22424
870.45	22535
870.58	22527
870.71	22679
870.84	22618
870.97	22554
871.1	22538
871.23	22767
871.36	22805
871.489	22622
871.619	22782
871.749	22611
871.879	22820
872.008	22946
872.138	22759
872.267	22660
872.397	22653
872.526	22550
872.656	22694
872.785	22622
872.915	22908
873.044	22805
873.173	22790
873.303	22889
873.432	22790
873.561	22885
873.69	22824
873.819	22759
873.948	22793
874.077	22805
874.206	22679
874.335	22782
874.464	22755
874.593	22877
874.722	22904
874.851	22976
874.979	22987
875.108	23098
875.237	22946
875.365	22816
875.494	23041
875.623	22980
875.751	22949
875.88	23003
876.008	23025
876.136	23208
876.265	23376
876.393	23608
876.521	23410
876.65	23490
876.778	23242
876.906	23181
877.034	23246
877.162	23288
877.29	23246
877.418	23273
877.546	23204
877.674	23410
877.802	23341
877.93	23303
878.058	23277
878.185	23208
878.313	23162
878.441	23402
878.568	23204
878.696	23254
878.824	23341
878.951	23425
879.079	23512
879.206	23471
879.333	23417
879.461	23376
879.588	23383
879.715	23433
879.842	23589
879.97	23436
880.097	23174
880.224	23189
880.351	23113
880.478	23197
880.605	23094
880.732	23113
880.859	23379
880.986	23113
881.112	23155
881.239	22915
881.366	22919
881.493	22755
881.619	22645
881.746	22713
881.872	22687
881.999	22653
882.125	22561
882.252	22664
882.378	22565
882.505	22740
882.631	22485
882.757	22440
882.883	22573
883.01	22409
883.136	22413
883.262	22314
883.388	22093
883.514	22226
883.64	22481
883.766	22360
883.892	22036
884.018	22196
884.143	22219
884.269	22390
884.395	22040
884.52	21960
884.646	22067
884.772	22051
884.897	21861
885.023	22010
885.148	22139
885.274	22158
885.399	22051
885.524	22017
885.65	21907
885.775	21994
885.9	21911
886.025	22131
886.15	22063
886.275	21941
886.4	21819
886.525	22055
886.65	21907
886.775	21895
886.9	22166
887.025	22192
887.149	21972
887.274	21827
887.399	21827
887.523	21861
887.648	21793
887.773	21679
887.897	21770
888.021	21774
888.146	21743
888.27	21804
888.395	21789
888.519	21675
888.643	21800
888.767	21819
888.891	21549
889.015	21443
889.139	21701
889.263	21488
889.387	21614
889.511	21720
889.635	21614
889.759	21549
889.883	21629
890.006	21485
890.13	21523
890.254	21420
890.377	21526
890.501	21374
890.624	21298
890.748	21249
890.871	21241
890.995	21131
891.118	21142
891.241	21058
891.364	21127
891.488	21150
891.611	21119
891.734	21127
891.857	21180
891.98	21058
892.103	21096
892.226	20990
892.349	21093
892.471	20937
892.594	20971
892.717	21070
892.839	20982
892.962	21032
893.085	21180
893.207	21020
893.33	20842
893.452	21005
893.575	21074
893.697	20941
893.819	21150
893.941	21077
894.064	21085
894.186	21028
894.308	20975
894.43	21146
894.552	21032
894.674	21024
894.796	20857
894.918	20876
895.04	20864
895.161	20929
895.283	20971
895.405	20952
895.526	20944
895.648	20944
895.769	21055
895.891	21009
896.012	21074
896.134	20944
896.255	21024
896.376	20952
896.498	20986
896.619	20971
896.74	20982
896.861	21062
896.982	21348
897.103	21431
897.224	21116
897.345	21112
897.466	21119
897.587	21077
897.708	21275
897.828	21211
897.949	21043
898.07	20971
898.19	21001
898.311	21374
898.431	21188
898.552	21085
898.672	21123
898.792	21173
898.913	21116
899.033	21127
899.153	20986
899.273	20758
899.393	20899
899.513	20868
899.633	20925
899.753	20914
899.873	20762
899.993	20880
900.113	20804
900.232	20933
900.352	20834
900.472	20701
900.591	20644
900.711	20648
900.83	20697
900.95	20792
901.069	20708
901.189	20579
901.308	20275
901.427	20240
901.546	20263
901.665	20294
901.784	20282
901.904	20122
902.023	20126
902.141	19849
902.26	19890
902.379	19944
902.498	19723
902.617	19696
902.735	19822
902.854	19620
902.973	19727
903.091	19407
903.21	19400
903.328	19369
903.446	19487
903.565	19259
903.683	19312
903.801	19152
903.919	19217
904.038	19168
904.156	19015
904.274	19057
904.392	18920
904.51	19004
904.627	18871
904.745	18958
904.863	19046
904.981	18840
905.098	18650
905.216	18620
905.334	18692
905.451	18745
905.569	18582
905.686	18620
905.803	18623
905.921	18456
906.038	18452
906.155	18467
906.272	18273
906.389	18311
906.506	18155
906.623	18064
906.74	18133
906.857	17980
906.974	18133
907.091	18224
907.208	18273
907.324	18117
907.441	18068
907.557	17996
907.674	17908
907.79	17843
907.907	17718
908.023	17859
908.139	17908
908.256	17828
908.372	17752
908.488	17741
908.604	17573
908.72	17528
908.836	17570
908.952	17444
909.068	17623
909.184	17668
909.3	17554
909.415	17676
909.531	17638
909.647	17410
909.762	17254
909.878	17227
909.993	17277
910.108	17216
910.224	17239
910.339	17178
910.454	17041
910.57	17098
910.685	17094
910.8	17311
910.915	17166
911.03	17071
911.145	17052
911.259	16980
911.374	16896
911.489	16797
911.604	16748
911.718	16565
911.833	16500
911.947	16554
912.062	16470
912.176	16618
912.291	16607
912.405	16656
912.519	16850
912.633	16786
912.748	16630
912.862	16622
912.976	16382
913.09	16329
913.204	16455
913.318	16379
913.431	16489
913.545	16405
913.659	16546
913.772	16379
913.886	16223
914	16200
914.113	16291
914.226	16249
914.34	16318
914.453	16154
914.566	16128
914.68	16048
914.793	15972
914.906	15869
915.019	15812
915.132	15667
915.245	15755
915.358	15770
915.47	15812
915.583	15755
915.696	15751
915.809	15911
915.921	15964
916.034	15808
916.146	15690
916.259	15690
916.371	15762
916.483	15736
916.595	15549
916.708	15694
916.82	15736
916.932	15545
917.044	15526
917.156	15526
917.268	15443
917.38	15408
917.491	15355
917.603	15431
917.715	15458
917.826	15519
917.938	15287
918.049	15233
918.161	15405
918.272	15443
918.384	15462
918.495	15199
918.606	15252
918.717	15043
918.828	15138
918.939	15249
919.05	15039
919.161	15165
919.272	14937
919.383	14937
919.494	15097
919.604	15321
919.715	15058
919.826	15070
919.936	14979
920.047	15169
920.157	15116
920.267	15272
920.378	15169
920.488	15089
920.598	15264
920.708	15416
920.818	15245
920.928	15241
921.038	15530
921.148	15268
921.258	15077
921.368	14982
921.477	14785
921.587	14716
921.697	14663
921.806	14830
921.916	14708
922.025	14518
922.134	14473
922.244	14278
922.353	14427
922.462	14275
922.571	14309
922.68	14138
922.789	14058
922.898	14096
923.007	14016
923.116	14077
923.224	14138
923.333	14069
923.442	14035
923.55	13909
923.659	13947
923.767	13879
923.876	13868
923.984	13849
924.092	13818
924.201	13868
924.309	13780
924.417	13898
924.525	13776
924.633	13811
924.741	14434
924.849	13616
924.956	13632
925.064	13590
925.172	13388
925.279	13464
925.387	13571
925.494	13559
925.602	13685
925.709	13609
925.816	13331
925.924	13457
926.031	13468
926.138	13331
926.245	13521
926.352	13285
926.459	13499
926.566	13445
926.673	13377
926.779	13221
926.886	13202
926.993	13053
927.099	13031
927.206	12993
927.312	12966
927.419	12985
927.525	13038
927.631	12989
927.737	12916
927.843	12856
927.95	12772
928.056	12867
928.162	12897
928.267	12935
928.373	13422
928.479	12821
928.585	12692
928.69	12798
928.796	12867
928.901	12715
929.007	12528
929.112	12783
929.218	12654
929.323	12673
929.428	12513
929.533	12692
929.638	12551
929.743	12563
929.848	12604
929.953	12563
930.058	12388
930.163	12239
930.267	12323
930.372	12391
930.477	12209
930.581	12391
930.685	12243
930.79	12019
930.894	12205
930.998	12121
931.103	12232
931.207	11878
931.311	11741
931.415	11737
931.519	11383
931.623	11421
