Data from test_V78500241_653.txt Node
Date: Fri Mar 25 15:46:19 CST 2022
User: usil
Spectrometer: V785-0024
Trigger mode: 0
Integration Time (sec): 4.000000E-1
Scans to average: 1
Nonlinearity correction enabled: false
Boxcar width: 0
Storing dark spectrum: false
XAxis mode: Wavelengths
Number of Pixels in Spectrum: 1024
>>>>>Begin Spectral Data<<<<<
801.071	27705
801.214	27671
801.356	27431
801.499	27283
801.641	27230
801.783	27230
801.926	27272
802.068	27169
802.211	27203
802.353	27104
802.496	26842
802.638	26788
802.78	26925
802.923	26834
803.065	26861
803.208	26796
803.35	26834
803.492	26929
803.635	27222
803.777	26811
803.919	27104
804.061	27245
804.204	27062
804.346	26944
804.488	26914
804.63	26971
804.773	26967
804.915	26933
805.057	27230
805.199	27017
805.341	27020
805.483	27256
805.626	27142
805.768	27005
805.91	27146
806.052	27184
806.194	27009
806.336	27458
806.478	27173
806.62	27245
806.762	27180
806.904	27348
807.046	27644
807.188	27648
807.33	27545
807.472	27842
807.614	27481
807.756	27549
807.898	27427
808.04	27393
808.182	27382
808.324	27458
808.465	27507
808.607	27633
808.749	27873
808.891	27865
809.033	27972
809.174	28048
809.316	27781
809.458	27934
809.6	27755
809.741	27934
809.883	27903
810.025	27991
810.166	27991
810.308	27956
810.45	28120
810.591	28040
810.733	27747
810.875	27778
811.016	27698
811.158	27846
811.299	27926
811.441	28048
811.582	27972
811.724	27770
811.865	27831
812.007	27663
812.148	27850
812.29	27895
812.431	27854
812.573	28063
812.714	28230
812.855	28261
812.997	28333
813.138	28584
813.279	28432
813.421	28360
813.562	28299
813.703	28131
813.845	27816
813.986	27701
814.127	27576
814.268	27439
814.41	27500
814.551	27485
814.692	27481
814.833	27637
814.974	27466
815.115	27458
815.256	27363
815.397	27287
815.539	27287
815.68	27188
815.821	27256
815.962	27313
816.103	27226
816.244	27222
816.385	27039
816.526	26906
816.666	26864
816.807	26788
816.948	26891
817.089	26785
817.23	26819
817.371	26861
817.512	26716
817.653	26571
817.793	26575
817.934	26849
818.075	26781
818.216	26819
818.356	26590
818.497	26606
818.638	26374
818.778	26503
818.919	26438
819.06	26617
819.2	26739
819.341	26629
819.481	26708
819.622	26838
819.762	26963
819.903	26925
820.043	26830
820.184	26853
820.324	26765
820.465	26998
820.605	26887
820.746	26826
820.886	26678
821.026	26823
821.167	26940
821.307	26880
821.447	26800
821.588	26705
821.728	26473
821.868	26457
822.008	26305
822.149	26362
822.289	26130
822.429	25917
822.569	25944
822.709	25856
822.849	25807
822.99	25742
823.13	25628
823.27	25586
823.41	25460
823.55	25434
823.69	25601
823.83	25586
823.97	25533
824.11	25445
824.25	25304
824.389	25441
824.529	25537
824.669	25411
824.809	25426
824.949	25441
825.089	25525
825.228	25358
825.368	25160
825.508	25217
825.648	25221
825.787	25369
825.927	25327
826.067	25057
826.206	25255
826.346	25244
826.485	25282
826.625	25274
826.765	25354
826.904	25122
827.044	25118
827.183	25012
827.323	24981
827.462	24920
827.601	24985
827.741	24954
827.88	24886
828.02	24810
828.159	24886
828.298	24867
828.437	24886
828.577	24825
828.716	24977
828.855	24844
828.994	24471
829.134	24551
829.273	24642
829.412	24642
829.551	24650
829.69	24696
829.829	24654
829.968	24661
830.107	24669
830.246	24650
830.385	24505
830.524	24570
830.663	24464
830.802	24327
830.941	24232
831.08	24323
831.219	24308
831.357	24426
831.496	24391
831.635	24289
831.774	24148
831.913	24148
832.051	24095
832.19	24045
832.329	23996
832.467	24018
832.606	23786
832.744	23813
832.883	23870
833.022	23885
833.16	23863
833.299	23973
833.437	23908
833.576	24083
833.714	23863
833.852	24015
833.991	23843
834.129	24038
834.267	23988
834.406	24022
834.544	24079
834.682	24011
834.821	23923
834.959	24186
835.097	23935
835.235	24026
835.373	23954
835.511	23923
835.65	23798
835.788	23893
835.926	23790
836.064	23794
836.202	23596
836.34	23786
836.478	23973
836.615	23726
836.753	23863
836.891	23821
837.029	23843
837.167	23733
837.305	23646
837.443	23699
837.58	23767
837.718	23676
837.856	23745
837.993	23653
838.131	23619
838.269	23516
838.406	23570
838.544	23547
838.681	23204
838.819	23235
838.956	23220
839.094	23075
839.231	23056
839.369	23242
839.506	23562
839.643	23311
839.781	23273
839.918	23037
840.055	23151
840.193	23079
840.33	23098
840.467	23086
840.604	23143
840.742	23280
840.879	22999
841.016	22968
841.153	22854
841.29	23155
841.427	23124
841.564	23079
841.701	23052
841.838	23044
841.975	22866
842.112	22980
842.249	22877
842.385	22771
842.522	23048
842.659	22839
842.796	22759
842.933	22748
843.069	22687
843.206	22698
843.343	22877
843.479	22744
843.616	22698
843.752	22538
843.889	22637
844.025	22725
844.162	22535
844.298	22748
844.435	22596
844.571	22440
844.708	22599
844.844	22641
844.98	22603
845.117	22687
845.253	22523
845.389	22462
845.525	22478
845.661	22386
845.798	22337
845.934	22466
846.07	22253
846.206	22462
846.342	22291
846.478	22238
846.614	22162
846.75	22105
846.886	22006
847.022	22036
847.158	21926
847.294	22025
847.429	22017
847.565	21930
847.701	22215
847.837	21781
847.972	21736
848.108	21892
848.244	21861
848.379	21610
848.515	21656
848.65	21667
848.786	21618
848.921	21717
849.057	21720
849.192	21675
849.328	21679
849.463	21542
849.598	21492
849.734	21549
849.869	21363
850.004	21389
850.14	21462
850.275	21542
850.41	21226
850.545	21340
850.68	21329
850.815	21401
850.95	21302
851.085	21553
851.22	21367
851.355	21340
851.49	21435
851.625	21363
851.76	21397
851.895	21241
852.03	21317
852.165	21344
852.299	21477
852.434	21587
852.569	21313
852.703	21424
852.838	21477
852.973	21580
853.107	21507
853.242	21237
853.376	21275
853.511	21169
853.645	20982
853.78	21268
853.914	21188
854.048	21180
854.183	21218
854.317	21260
854.451	21435
854.585	21203
854.72	21192
854.854	21195
854.988	21165
855.122	21119
855.256	21077
855.39	21226
855.524	21237
855.658	21245
855.792	21146
855.926	21165
856.06	21218
856.194	21325
856.327	21066
856.461	21230
856.595	21085
856.729	21252
856.862	21310
856.996	21169
857.13	21252
857.263	21370
857.397	21272
857.53	21138
857.664	21306
857.797	21302
857.931	21241
858.064	21154
858.197	21249
858.331	21211
858.464	21066
858.597	21112
858.731	21218
858.864	21184
858.997	21157
859.13	21218
859.263	21123
859.396	21180
859.529	21203
859.662	21116
859.795	21127
859.928	21291
860.061	21272
860.194	21363
860.327	21336
860.46	21294
860.592	21370
860.725	21355
860.858	21272
860.99	21268
861.123	21066
861.256	21077
861.388	21275
861.521	21709
861.653	21142
861.786	21020
861.918	21123
862.05	20967
862.183	21047
862.315	20979
862.447	21176
862.58	21100
862.712	20948
862.844	20785
862.976	21058
863.108	20933
863.24	21230
863.372	20826
863.504	20876
863.636	20933
863.768	20895
863.9	20971
864.032	20777
864.164	20792
864.296	21020
864.428	21039
864.559	21001
864.691	20975
864.823	20975
864.954	20902
865.086	20948
865.217	20807
865.349	20758
865.48	20872
865.612	20872
865.743	20982
865.875	20941
866.006	20838
866.137	20811
866.269	20796
866.4	20769
866.531	20720
866.662	20724
866.793	20682
866.924	20811
867.055	20689
867.186	20750
867.317	20765
867.448	20575
867.579	20830
867.71	20697
867.841	20735
867.972	20712
868.103	20659
868.233	20811
868.364	20769
868.495	20910
868.625	20998
868.756	20986
868.886	20842
869.017	20979
869.147	21051
869.278	21150
869.408	20979
869.539	20830
869.669	21043
869.799	21043
869.929	21055
870.06	21165
870.19	21291
870.32	21256
870.45	21249
870.58	21382
870.71	21443
870.84	21462
870.97	21336
871.1	21469
871.23	21576
871.36	21526
871.489	21473
871.619	21534
871.749	21732
871.879	21466
872.008	21660
872.138	21572
872.267	21576
872.397	21378
872.526	21382
872.656	21454
872.785	21367
872.915	21583
873.044	21667
873.173	21557
873.303	21686
873.432	21694
873.561	21644
873.69	21633
873.819	21648
873.948	21682
874.077	21728
874.206	21599
874.335	21576
874.464	21713
874.593	21827
874.722	21861
874.851	21838
874.979	21793
875.108	21949
875.237	21774
875.365	21812
875.494	21797
875.623	22036
875.751	21739
875.88	21888
876.008	21960
876.136	22067
876.265	22246
876.393	22246
876.521	22249
876.65	22249
876.778	22219
876.906	22139
877.034	22090
877.162	22173
877.29	22158
877.418	22105
877.546	22173
877.674	22116
877.802	22162
877.93	22265
878.058	22074
878.185	22029
878.313	22249
878.441	22207
878.568	22032
878.696	22207
878.824	22211
878.951	22162
879.079	22356
879.206	22512
879.333	22337
879.461	22272
879.588	22211
879.715	22356
879.842	22459
879.97	22303
880.097	22063
880.224	21979
880.351	21987
880.478	22082
880.605	21876
880.732	21994
880.859	22291
880.986	22040
881.112	21941
881.239	21857
881.366	21747
881.493	21637
881.619	21622
881.746	21557
881.872	21576
881.999	21629
882.125	21485
882.252	21572
882.378	21538
882.505	21682
882.631	21488
882.757	21393
882.883	21393
883.01	21344
883.136	21306
883.262	21211
883.388	21047
883.514	21351
883.64	21302
883.766	21195
883.892	21043
884.018	21077
884.143	21321
884.269	21287
884.395	20921
884.52	20971
884.646	21039
884.772	20853
884.897	20800
885.023	20941
885.148	20963
885.274	21017
885.399	21055
885.524	20861
885.65	21013
885.775	20937
885.9	20906
886.025	21135
886.15	21036
886.275	20823
886.4	20800
886.525	20899
886.65	20834
886.775	20899
886.9	20891
887.025	21207
887.149	20823
887.274	20792
887.399	20708
887.523	20705
887.648	20602
887.773	20537
887.897	20705
888.021	20720
888.146	20670
888.27	20743
888.395	20887
888.519	20739
888.643	20697
888.767	20743
888.891	20552
889.015	20484
889.139	20556
889.263	20454
889.387	20575
889.511	20754
889.635	20598
889.759	20457
889.883	20454
890.006	20362
890.13	20613
890.254	20450
890.377	20324
890.501	20263
890.624	20202
890.748	20317
890.871	20130
890.995	20168
891.118	19951
891.241	20157
891.364	19986
891.488	20298
891.611	20103
891.734	20122
891.857	20126
891.98	20206
892.103	20191
892.226	20107
892.349	19932
892.471	19830
892.594	20062
892.717	19936
892.839	19986
892.962	19917
893.085	20050
893.207	19932
893.33	19791
893.452	19841
893.575	19986
893.697	19913
893.819	20050
893.941	20183
894.064	20024
894.186	20050
894.308	19788
894.43	20069
894.552	20180
894.674	20164
894.796	19822
894.918	19951
895.04	19921
895.161	20126
895.283	20035
895.405	19913
895.526	20073
895.648	19932
895.769	19913
895.891	19967
896.012	20062
896.134	20233
896.255	20012
896.376	19940
896.498	19978
896.619	20077
896.74	19921
896.861	20130
896.982	20282
897.103	20431
897.224	20320
897.345	20157
897.466	20164
897.587	20252
897.708	20412
897.828	20218
897.949	20206
898.07	20073
898.19	20126
898.311	20301
898.431	20221
898.552	20221
898.672	20313
898.792	20172
898.913	20237
899.033	20050
899.153	20012
899.273	20058
899.393	19982
899.513	20020
899.633	19928
899.753	19978
899.873	19906
899.993	19932
900.113	19883
900.232	19887
900.352	19841
900.472	19856
900.591	19700
900.711	19788
900.83	19647
900.95	19693
901.069	19940
901.189	19670
901.308	19358
901.427	19373
901.546	19312
901.665	19255
901.784	19335
901.904	19244
902.023	19076
902.141	18916
902.26	18844
902.379	18909
902.498	18867
902.617	18833
902.735	18806
902.854	18840
902.973	18741
903.091	18547
903.21	18547
903.328	18528
903.446	18384
903.565	18292
903.683	18342
903.801	18194
903.919	18289
904.038	18285
904.156	18201
904.274	18110
904.392	18038
904.51	18057
904.627	17977
904.745	18182
904.863	18133
904.981	17859
905.098	17748
905.216	17710
905.334	17843
905.451	17741
905.569	17741
905.686	17805
905.803	17733
905.921	17554
906.038	17627
906.155	17668
906.272	17395
906.389	17577
906.506	17212
906.623	17345
906.74	17250
906.857	17288
906.974	17231
907.091	17376
907.208	17372
907.324	17379
907.441	17178
907.557	16968
907.674	17041
907.79	17029
907.907	16866
908.023	16984
908.139	16976
908.256	16942
908.372	16873
908.488	16816
908.604	16752
908.72	16634
908.836	16740
908.952	16675
909.068	16771
909.184	16839
909.3	16733
909.415	16687
909.531	16675
909.647	16440
909.762	16497
909.878	16405
909.993	16462
910.108	16379
910.224	16421
910.339	16451
910.454	16352
910.57	16226
910.685	16154
910.8	16394
910.915	16432
911.03	16215
911.145	16025
911.259	16029
911.374	16044
911.489	15983
911.604	15892
911.718	15736
911.833	15827
911.947	15690
912.062	15587
912.176	15800
912.291	15774
912.405	15819
912.519	15964
912.633	15964
912.748	15797
912.862	15686
912.976	15603
913.09	15500
913.204	15530
913.318	15614
913.431	15648
913.545	15629
913.659	15705
913.772	15549
913.886	15428
914	15435
914.113	15389
914.226	15389
914.34	15515
914.453	15325
914.566	15351
914.68	15355
914.793	15252
914.906	15154
915.019	14952
915.132	14948
915.245	14971
915.358	15100
915.47	15017
915.583	15009
915.696	15066
915.809	15123
915.921	15142
916.034	14944
916.146	14914
916.259	14876
916.371	15043
916.483	14971
916.595	14838
916.708	14864
916.82	14819
916.932	14796
917.044	14705
917.156	14785
917.268	14613
917.38	14701
917.491	14724
917.603	14739
917.715	14693
917.826	14796
917.938	14587
918.049	14583
918.161	14617
918.272	14708
918.384	14769
918.495	14583
918.606	14469
918.717	14419
918.828	14438
918.939	14457
919.05	14419
919.161	14457
919.272	14111
919.383	14259
919.494	14290
919.604	14556
919.715	14408
919.826	14358
919.936	14400
920.047	14495
920.157	14396
920.267	14507
920.378	14370
920.488	14385
920.598	14621
920.708	14693
920.818	14514
920.928	14511
921.038	14682
921.148	14541
921.258	14347
921.368	14294
921.477	14084
921.587	14092
921.697	13963
921.806	14172
921.916	13921
922.025	13883
922.134	13742
922.244	13712
922.353	13818
922.462	13696
922.571	13582
922.68	13483
922.789	13411
922.898	13468
923.007	13369
923.116	13533
923.224	13396
923.333	13365
923.442	13301
923.55	13324
923.659	13263
923.767	13301
923.876	13160
923.984	13301
924.092	13012
924.201	13198
924.309	13145
924.417	13168
924.525	13076
924.633	13187
924.741	13845
924.849	12947
924.956	13050
925.064	12943
925.172	12779
925.279	12745
925.387	12837
925.494	12863
925.602	12916
925.709	12947
925.816	12719
925.924	12802
926.031	12806
926.138	12738
926.245	12814
926.352	12726
926.459	12829
926.566	12890
926.673	12795
926.779	12623
926.886	12608
926.993	12422
927.099	12445
927.206	12407
927.312	12452
927.419	12460
927.525	12441
927.631	12357
927.737	12315
927.843	12251
927.95	12076
928.056	12243
928.162	12289
928.267	12216
928.373	12905
928.479	12292
928.585	12106
928.69	12365
928.796	12148
928.901	12095
929.007	11988
929.112	12068
929.218	12106
929.323	12026
929.428	11916
929.533	12019
929.638	11946
929.743	11916
929.848	11935
929.953	11889
930.058	11870
930.163	11619
930.267	11676
930.372	11733
930.477	11615
930.581	11840
930.685	11688
930.79	11592
930.894	11573
930.998	11493
931.103	11623
931.207	11345
931.311	11193
931.415	11284
931.519	10999
931.623	10881
