Data from test_V78500241_882.txt Node
Date: Fri Mar 25 15:47:54 CST 2022
User: usil
Spectrometer: V785-0024
Trigger mode: 0
Integration Time (sec): 4.000000E-1
Scans to average: 1
Nonlinearity correction enabled: false
Boxcar width: 0
Storing dark spectrum: false
XAxis mode: Wavelengths
Number of Pixels in Spectrum: 1024
>>>>>Begin Spectral Data<<<<<
801.071	28021
801.214	27934
801.356	27793
801.499	27698
801.641	27515
801.783	27553
801.926	27633
802.068	27644
802.211	27378
802.353	27492
802.496	27241
802.638	27222
802.78	27272
802.923	27199
803.065	27077
803.208	27169
803.35	27310
803.492	27431
803.635	27576
803.777	27230
803.919	27382
804.061	27671
804.204	27591
804.346	27397
804.488	27317
804.63	27378
804.773	27389
804.915	27477
805.057	27583
805.199	27336
805.341	27450
805.483	27488
805.626	27500
805.768	27405
805.91	27690
806.052	27507
806.194	27538
806.336	27739
806.478	27583
806.62	27595
806.762	27774
806.904	27907
807.046	28131
807.188	27956
807.33	27991
807.472	28093
807.614	28086
807.756	28086
807.898	28040
808.04	27705
808.182	27892
808.324	27895
808.465	27724
808.607	28120
808.749	28253
808.891	28287
809.033	28462
809.174	28219
809.316	28299
809.458	28268
809.6	28253
809.741	28367
809.883	28466
810.025	28554
810.166	28508
810.308	28584
810.45	28485
810.591	28325
810.733	28188
810.875	28291
811.016	28166
811.158	28101
811.299	28413
811.441	28546
811.582	28405
811.724	28390
811.865	28215
812.007	28436
812.148	28234
812.29	28310
812.431	28489
812.573	28554
812.714	28733
812.855	28812
812.997	28942
813.138	29014
813.279	28835
813.421	28858
813.562	28801
813.703	28588
813.845	28417
813.986	28204
814.127	28093
814.268	27922
814.41	27793
814.551	27774
814.692	27998
814.833	27930
814.974	27884
815.115	27991
815.256	27892
815.397	27778
815.539	27831
815.68	27793
815.821	27690
815.962	27869
816.103	27682
816.244	27701
816.385	27641
816.526	27568
816.666	27466
816.807	27237
816.948	27367
817.089	27466
817.23	27207
817.371	27252
817.512	27180
817.653	27135
817.793	27108
817.934	27230
818.075	27287
818.216	27218
818.356	27374
818.497	27142
818.638	26872
818.778	27032
818.919	26952
819.06	27119
819.2	27165
819.341	27157
819.481	27310
819.622	27504
819.762	27549
819.903	27507
820.043	27397
820.184	27412
820.324	27439
820.465	27351
820.605	27466
820.746	27427
820.886	27272
821.026	27359
821.167	27176
821.307	27424
821.447	27325
821.588	27169
821.728	27024
821.868	26887
822.008	26804
822.149	26720
822.289	26552
822.429	26507
822.569	26358
822.709	26396
822.849	26366
822.99	26168
823.13	26157
823.27	26259
823.41	26043
823.55	26043
823.69	26122
823.83	26149
823.97	26092
824.11	25826
824.25	25769
824.389	25830
824.529	25974
824.669	26073
824.809	25947
824.949	25944
825.089	25966
825.228	25974
825.368	25727
825.508	25727
825.648	25852
825.787	25845
825.927	25906
826.067	25769
826.206	25837
826.346	25837
826.485	25818
826.625	25811
826.765	25925
826.904	25746
827.044	25605
827.183	25499
827.323	25502
827.462	25510
827.601	25540
827.741	25411
827.88	25457
828.02	25304
828.159	25422
828.298	25590
828.437	25548
828.577	25415
828.716	25578
828.855	25373
828.994	25152
829.134	25213
829.273	25206
829.412	25145
829.551	25057
829.69	25228
829.829	25156
829.968	25148
830.107	25266
830.246	25088
830.385	25008
830.524	25000
830.663	25015
830.802	24973
830.941	24764
831.08	24738
831.219	24795
831.357	24810
831.496	25019
831.635	24825
831.774	24833
831.913	24623
832.051	24494
832.19	24414
832.329	24620
832.467	24407
832.606	24426
832.744	24376
832.883	24471
833.022	24361
833.16	24422
833.299	24498
833.437	24486
833.576	24483
833.714	24441
833.852	24715
833.991	24528
834.129	24536
834.267	24578
834.406	24589
834.544	24540
834.682	24540
834.821	24509
834.959	24677
835.097	24471
835.235	24517
835.373	24399
835.511	24505
835.65	24388
835.788	24399
835.926	24182
836.064	24197
836.202	24182
836.34	24342
836.478	24395
836.615	24232
836.753	24273
836.891	24323
837.029	24330
837.167	24216
837.305	24262
837.443	24346
837.58	24148
837.718	24270
837.856	24106
837.993	24186
838.131	24270
838.269	24079
838.406	24087
838.544	23942
838.681	23904
838.819	23653
838.956	23596
839.094	23634
839.231	23737
839.369	23863
839.506	24068
839.643	23927
839.781	23547
839.918	23577
840.055	23589
840.193	23611
840.33	23668
840.467	23661
840.604	23581
840.742	23794
840.879	23395
841.016	23497
841.153	23398
841.29	23623
841.427	23661
841.564	23638
841.701	23474
841.838	23554
841.975	23478
842.112	23467
842.249	23269
842.385	23334
842.522	23600
842.659	23322
842.796	23315
842.933	23265
843.069	23220
843.206	23242
843.343	23364
843.479	23368
843.616	23315
843.752	23140
843.889	23166
844.025	23254
844.162	23109
844.298	23193
844.435	22915
844.571	23018
844.708	23056
844.844	23193
844.98	23204
845.117	23223
845.253	22972
845.389	22980
845.525	22911
845.661	22972
845.798	22778
845.934	22850
846.07	22702
846.206	22847
846.342	22991
846.478	22831
846.614	22607
846.75	22569
846.886	22554
847.022	22637
847.158	22569
847.294	22599
847.429	22656
847.565	22375
847.701	22725
847.837	22234
847.972	22230
848.108	22314
848.244	22265
848.379	22185
848.515	22253
848.65	22093
848.786	22200
848.921	22246
849.057	22295
849.192	22169
849.328	22284
849.463	22048
849.598	22131
849.734	22124
849.869	21953
850.004	22021
850.14	21819
850.275	21903
850.41	21831
850.545	21899
850.68	21838
850.815	21899
850.95	21789
851.085	22002
851.22	22090
851.355	21857
851.49	21835
851.625	21934
851.76	21816
851.895	21778
852.03	21846
852.165	21895
852.299	21983
852.434	21949
852.569	21972
852.703	22032
852.838	21922
852.973	22067
853.107	22048
853.242	21991
853.376	21698
853.511	21648
853.645	21663
853.78	21865
853.914	21743
854.048	21720
854.183	21717
854.317	21625
854.451	21895
854.585	21679
854.72	21530
854.854	21713
854.988	21656
855.122	21679
855.256	21542
855.39	21698
855.524	21835
855.658	21728
855.792	21804
855.926	21713
856.06	21728
856.194	21804
856.327	21751
856.461	21667
856.595	21709
856.729	21713
856.862	21759
856.996	21766
857.13	21694
857.263	21785
857.397	21774
857.53	21682
857.664	21831
857.797	21766
857.931	21846
858.064	21698
858.197	21831
858.331	21793
858.464	21599
858.597	21591
858.731	21587
858.864	21690
858.997	21599
859.13	21766
859.263	21781
859.396	21785
859.529	21701
859.662	21698
859.795	21667
859.928	21766
860.061	21907
860.194	21899
860.327	21675
860.46	21766
860.592	21812
860.725	21922
860.858	21747
860.99	21797
861.123	21660
861.256	21671
861.388	21835
861.521	22295
861.653	21473
861.786	21405
861.918	21599
862.05	21587
862.183	21610
862.315	21663
862.447	21679
862.58	21675
862.712	21420
862.844	21382
862.976	21660
863.108	21534
863.24	21857
863.372	21310
863.504	21359
863.636	21416
863.768	21412
863.9	21370
864.032	21336
864.164	21351
864.296	21439
864.428	21561
864.559	21420
864.691	21355
864.823	21382
864.954	21408
865.086	21397
865.217	21439
865.349	21199
865.48	21344
865.612	21355
865.743	21507
865.875	21279
866.006	21180
866.137	21260
866.269	21351
866.4	21348
866.531	21249
866.662	21207
866.793	21363
866.924	21214
867.055	21283
867.186	21157
867.317	21241
867.448	21188
867.579	21256
867.71	21184
867.841	21138
867.972	21325
868.103	21131
868.233	21351
868.364	21332
868.495	21492
868.625	21515
868.756	21526
868.886	21477
869.017	21420
869.147	21477
869.278	21610
869.408	21545
869.539	21466
869.669	21507
869.799	21538
869.929	21679
870.06	21660
870.19	21797
870.32	21720
870.45	21861
870.58	21842
870.71	22086
870.84	21953
870.97	21842
871.1	21911
871.23	22082
871.36	21991
871.489	21972
871.619	22063
871.749	22078
871.879	22128
872.008	22169
872.138	22070
872.267	22116
872.397	21838
872.526	21823
872.656	21972
872.785	21998
872.915	22082
873.044	22128
873.173	22044
873.303	22124
873.432	22238
873.561	22200
873.69	22090
873.819	22173
873.948	22162
874.077	22067
874.206	22078
874.335	22090
874.464	22272
874.593	22291
874.722	22177
874.851	22428
874.979	22356
875.108	22421
875.237	22325
875.365	22204
875.494	22215
875.623	22436
875.751	22242
875.88	22314
876.008	22512
876.136	22481
876.265	22729
876.393	22946
876.521	22801
876.65	22809
876.778	22736
876.906	22588
877.034	22744
877.162	22736
877.29	22630
877.418	22672
877.546	22721
877.674	22767
877.802	22546
877.93	22664
878.058	22618
878.185	22561
878.313	22759
878.441	22596
878.568	22394
878.696	22649
878.824	22801
878.951	22653
879.079	22805
879.206	23025
879.333	22733
879.461	22729
879.588	22653
879.715	22881
879.842	22934
879.97	22637
880.097	22508
880.224	22538
880.351	22531
880.478	22542
880.605	22325
880.732	22504
880.859	22626
880.986	22489
881.112	22371
881.239	22417
881.366	22219
881.493	22204
881.619	22070
881.746	22044
881.872	22097
881.999	22051
882.125	22051
882.252	22036
882.378	22067
882.505	22097
882.631	21873
882.757	21926
882.883	21888
883.01	21755
883.136	21538
883.262	21572
883.388	21644
883.514	21812
883.64	21778
883.766	21648
883.892	21492
884.018	21542
884.143	21614
884.269	21709
884.395	21511
884.52	21340
884.646	21485
884.772	21332
884.897	21313
885.023	21283
885.148	21393
885.274	21580
885.399	21450
885.524	21363
885.65	21382
885.775	21359
885.9	21450
886.025	21481
886.15	21435
886.275	21241
886.4	21336
886.525	21431
886.65	21389
886.775	21184
886.9	21473
887.025	21572
887.149	21294
887.274	21207
887.399	21104
887.523	21150
887.648	21188
887.773	21066
887.897	21275
888.021	21214
888.146	21127
888.27	21302
888.395	21096
888.519	21146
888.643	21142
888.767	21077
888.891	21036
889.015	20845
889.139	21020
889.263	20941
889.387	21055
889.511	21108
889.635	21051
889.759	20937
889.883	20807
890.006	20979
890.13	21085
890.254	20830
890.377	20857
890.501	20781
890.624	20674
890.748	20731
890.871	20602
890.995	20495
891.118	20499
891.241	20533
891.364	20461
891.488	20560
891.611	20484
891.734	20575
891.857	20602
891.98	20530
892.103	20556
892.226	20587
892.349	20423
892.471	20298
892.594	20347
892.717	20450
892.839	20415
892.962	20461
893.085	20328
893.207	20537
893.33	20347
893.452	20286
893.575	20461
893.697	20286
893.819	20659
893.941	20625
894.064	20507
894.186	20313
894.308	20313
894.43	20503
894.552	20644
894.674	20465
894.796	20290
894.918	20347
895.04	20351
895.161	20499
895.283	20355
895.405	20336
895.526	20446
895.648	20377
895.769	20442
895.891	20465
896.012	20404
896.134	20385
896.255	20423
896.376	20305
896.498	20507
896.619	20400
896.74	20442
896.861	20568
896.982	20712
897.103	20899
897.224	20727
897.345	20602
897.466	20446
897.587	20609
897.708	20716
897.828	20686
897.949	20636
898.07	20431
898.19	20587
898.311	20708
898.431	20640
898.552	20705
898.672	20636
898.792	20629
898.913	20590
899.033	20564
899.153	20427
899.273	20393
899.393	20347
899.513	20446
899.633	20233
899.753	20450
899.873	20221
899.993	20313
900.113	20286
900.232	20381
900.352	20282
900.472	20134
900.591	20054
900.711	20218
900.83	20115
900.95	20187
901.069	20199
901.189	19974
901.308	19772
901.427	19765
901.546	19765
901.665	19715
901.784	19731
901.904	19559
902.023	19365
902.141	19362
902.26	19251
902.379	19312
902.498	19221
902.617	19236
902.735	19278
902.854	19240
902.973	19088
903.091	18924
903.21	18958
903.328	18935
903.446	18722
903.565	18791
903.683	18734
903.801	18547
903.919	18597
904.038	18578
904.156	18509
904.274	18566
904.392	18334
904.51	18403
904.627	18357
904.745	18547
904.863	18532
904.981	18159
905.098	18216
905.216	18060
905.334	18148
905.451	18102
905.569	18129
905.686	18190
905.803	18095
905.921	17946
906.038	17980
906.155	17904
906.272	17748
906.389	17851
906.506	17726
906.623	17710
906.74	17611
906.857	17497
906.974	17505
907.091	17646
907.208	17653
907.324	17646
907.441	17661
907.557	17448
907.674	17406
907.79	17356
907.907	17337
908.023	17448
908.139	17391
908.256	17345
908.372	17197
908.488	17227
908.604	17132
908.72	17124
908.836	17067
908.952	16984
909.068	17220
909.184	17216
909.3	16957
909.415	17083
909.531	17086
909.647	16847
909.762	16862
909.878	16767
909.993	16831
910.108	16797
910.224	16736
910.339	16828
910.454	16611
910.57	16675
910.685	16641
910.8	16896
910.915	16816
911.03	16596
911.145	16394
911.259	16413
911.374	16409
911.489	16375
911.604	16261
911.718	16139
911.833	16265
911.947	16032
912.062	16029
912.176	16238
912.291	16215
912.405	16196
912.519	16371
912.633	16341
912.748	16154
912.862	16124
912.976	16078
913.09	15953
913.204	15945
913.318	16017
913.431	16021
913.545	16105
913.659	16059
913.772	15983
913.886	15831
914	15766
914.113	15842
914.226	15968
914.34	15857
914.453	15736
914.566	15789
914.68	15679
914.793	15606
914.906	15488
915.019	15321
915.132	15310
915.245	15351
915.358	15317
915.47	15458
915.583	15332
915.696	15488
915.809	15557
915.921	15477
916.034	15294
916.146	15306
916.259	15218
916.371	15329
916.483	15260
916.595	15176
916.708	15184
916.82	15260
916.932	15123
917.044	15188
917.156	15093
917.268	15024
917.38	15119
917.491	14921
917.603	15017
917.715	15154
917.826	15024
917.938	14902
918.049	14701
918.161	15032
918.272	15218
918.384	15142
918.495	14967
918.606	14887
918.717	14712
918.828	14804
918.939	14941
919.05	14731
919.161	14796
919.272	14461
919.383	14552
919.494	14815
919.604	14937
919.715	14697
919.826	14697
919.936	14735
920.047	14754
920.157	14705
920.267	14899
920.378	14716
920.488	14762
920.598	14910
920.708	15104
920.818	14952
920.928	14796
921.038	15058
921.148	15001
921.258	14777
921.368	14537
921.477	14549
921.587	14461
921.697	14343
921.806	14499
921.916	14248
922.025	14225
922.134	14161
922.244	14092
922.353	14138
922.462	13974
922.571	13940
922.68	13784
922.789	13719
922.898	13776
923.007	13655
923.116	13822
923.224	13795
923.333	13731
923.442	13632
923.55	13609
923.659	13616
923.767	13727
923.876	13403
923.984	13616
924.092	13506
924.201	13537
924.309	13415
924.417	13392
924.525	13381
924.633	13346
924.741	14286
924.849	13320
924.956	13304
925.064	13187
925.172	13076
925.279	13072
925.387	13183
925.494	13164
925.602	13312
925.709	13179
925.816	13053
925.924	13145
926.031	13145
926.138	13179
926.245	13114
926.352	12954
926.459	13175
926.566	13190
926.673	12924
926.779	12996
926.886	12837
926.993	12776
927.099	12730
927.206	12730
927.312	12665
927.419	12814
927.525	12635
927.631	12650
927.737	12616
927.843	12604
927.95	12399
928.056	12540
928.162	12532
928.267	12601
928.373	13126
928.479	12642
928.585	12334
928.69	12376
928.796	12635
928.901	12445
929.007	12213
929.112	12445
929.218	12361
929.323	12247
929.428	12262
929.533	12399
929.638	12197
929.743	12171
929.848	12277
929.953	12258
930.058	12133
930.163	11999
930.267	11992
930.372	12049
930.477	11908
930.581	12133
930.685	11912
930.79	11779
930.894	11882
930.998	11802
931.103	11843
931.207	11558
931.311	11509
931.415	11349
931.519	11284
931.623	11250
