Data from test_V78500241_3508.txt Node
Date: Fri Mar 25 16:06:06 CST 2022
User: usil
Spectrometer: V785-0024
Trigger mode: 0
Integration Time (sec): 4.000000E-1
Scans to average: 1
Nonlinearity correction enabled: false
Boxcar width: 0
Storing dark spectrum: false
XAxis mode: Wavelengths
Number of Pixels in Spectrum: 1024
>>>>>Begin Spectral Data<<<<<
801.071	28816
801.214	28828
801.356	28592
801.499	28504
801.641	28238
801.783	28284
801.926	28523
802.068	28447
802.211	28325
802.353	28489
802.496	28105
802.638	28112
802.78	28207
802.923	28044
803.065	27968
803.208	28006
803.35	28185
803.492	28257
803.635	28440
803.777	28211
803.919	28344
804.061	28812
804.204	28481
804.346	28352
804.488	28246
804.63	28386
804.773	28242
804.915	28421
805.057	28580
805.199	28325
805.341	28516
805.483	28542
805.626	28455
805.768	28447
805.91	28557
806.052	28584
806.194	28428
806.336	28641
806.478	28489
806.62	28592
806.762	28596
806.904	28660
807.046	29098
807.188	29109
807.33	28957
807.472	29037
807.614	28942
807.756	28942
807.898	28763
808.04	28702
808.182	28763
808.324	28847
808.465	28831
808.607	29025
808.749	29193
808.891	29204
809.033	29402
809.174	29284
809.316	29280
809.458	29242
809.6	29204
809.741	29360
809.883	29421
810.025	29524
810.166	29558
810.308	29436
810.45	29505
810.591	29387
810.733	29231
810.875	29436
811.016	29258
811.158	29128
811.299	29463
811.441	29356
811.582	29398
811.724	29193
811.865	29204
812.007	29208
812.148	29410
812.29	29227
812.431	29421
812.573	29710
812.714	29665
812.855	29764
812.997	29916
813.138	29961
813.279	29927
813.421	29767
813.562	29703
813.703	29524
813.845	29402
813.986	29105
814.127	28904
814.268	28896
814.41	28881
814.551	28835
814.692	28946
814.833	28934
814.974	28934
815.115	29048
815.256	28892
815.397	28869
815.539	28877
815.68	28828
815.821	28774
815.962	28786
816.103	28687
816.244	28656
816.385	28527
816.526	28493
816.666	28344
816.807	28219
816.948	28329
817.089	28375
817.23	28379
817.371	28284
817.512	28367
817.653	28219
817.793	28249
817.934	28341
818.075	28322
818.216	28303
818.356	28360
818.497	28207
818.638	27846
818.778	27994
818.919	28070
819.06	28135
819.2	28135
819.341	28268
819.481	28306
819.622	28470
819.762	28630
819.903	28478
820.043	28565
820.184	28440
820.324	28500
820.465	28413
820.605	28462
820.746	28554
820.886	28253
821.026	28371
821.167	28344
821.307	28379
821.447	28356
821.588	28173
821.728	28059
821.868	28010
822.008	27701
822.149	27854
822.289	27686
822.429	27545
822.569	27553
822.709	27538
822.849	27287
822.99	27450
823.13	27192
823.27	27192
823.41	27096
823.55	27036
823.69	27036
823.83	27108
823.97	26940
824.11	26948
824.25	26895
824.389	26872
824.529	26963
824.669	26971
824.809	27093
824.949	26899
825.089	26937
825.228	26979
825.368	26777
825.508	26853
825.648	26868
825.787	26849
825.927	26929
826.067	26895
826.206	26872
826.346	26724
826.485	26895
826.625	26762
826.765	26990
826.904	26998
827.044	26701
827.183	26598
827.323	26568
827.462	26602
827.601	26575
827.741	26503
827.88	26689
828.02	26374
828.159	26568
828.298	26648
828.437	26503
828.577	26400
828.716	26613
828.855	26473
828.994	26244
829.134	26248
829.273	26374
829.412	26142
829.551	26233
829.69	26130
829.829	26240
829.968	26309
830.107	26244
830.246	26161
830.385	26168
830.524	26119
830.663	26081
830.802	25799
830.941	25830
831.08	25723
831.219	25986
831.357	25894
831.496	26084
831.635	25799
831.774	25613
831.913	25658
832.051	25624
832.19	25677
832.329	25658
832.467	25464
832.606	25415
832.744	25518
832.883	25609
833.022	25464
833.16	25510
833.299	25533
833.437	25537
833.576	25453
833.714	25658
833.852	25590
833.991	25567
834.129	25723
834.267	25575
834.406	25540
834.544	25647
834.682	25613
834.821	25563
834.959	25742
835.097	25491
835.235	25605
835.373	25533
835.511	25544
835.65	25510
835.788	25430
835.926	25301
836.064	25266
836.202	25270
836.34	25373
836.478	25499
836.615	25304
836.753	25518
836.891	25434
837.029	25354
837.167	25358
837.305	25240
837.443	25084
837.58	25202
837.718	25274
837.856	25301
837.993	25122
838.131	25179
838.269	25091
838.406	25152
838.544	25095
838.681	24776
838.819	24730
838.956	24692
839.094	24707
839.231	24760
839.369	24760
839.506	24996
839.643	24867
839.781	24635
839.918	24566
840.055	24722
840.193	24627
840.33	24460
840.467	24639
840.604	24642
840.742	24829
840.879	24521
841.016	24559
841.153	24369
841.29	24585
841.427	24528
841.564	24612
841.701	24528
841.838	24479
841.975	24422
842.112	24445
842.249	24422
842.385	24334
842.522	24547
842.659	24429
842.796	24247
842.933	24247
843.069	24289
843.206	24148
843.343	24464
843.479	24327
843.616	24235
843.752	24140
843.889	24095
844.025	24258
844.162	24060
844.298	24148
844.435	24072
844.571	23984
844.708	24144
844.844	24327
844.98	24372
845.117	24110
845.253	24129
845.389	23977
845.525	23920
845.661	23958
845.798	23790
845.934	23969
846.07	23824
846.206	23874
846.342	23992
846.478	23859
846.614	23551
846.75	23531
846.886	23524
847.022	23684
847.158	23661
847.294	23493
847.429	23608
847.565	23406
847.701	23718
847.837	23178
847.972	23288
848.108	23433
848.244	23436
848.379	23265
848.515	23083
848.65	23083
848.786	23174
848.921	23261
849.057	23269
849.192	23223
849.328	23303
849.463	23014
849.598	23147
849.734	23022
849.869	23094
850.004	22892
850.14	22866
850.275	22809
850.41	22801
850.545	22786
850.68	22946
850.815	22911
850.95	22900
851.085	23052
851.22	23064
851.355	22972
851.49	22885
851.625	22900
851.76	22984
851.895	22892
852.03	22782
852.165	22782
852.299	22904
852.434	23056
852.569	23003
852.703	22938
852.838	22984
852.973	22991
853.107	23014
853.242	22946
853.376	22793
853.511	22767
853.645	22672
853.78	22980
853.914	22733
854.048	22873
854.183	22736
854.317	22881
854.451	23014
854.585	22774
854.72	22740
854.854	22927
854.988	22596
855.122	22713
855.256	22679
855.39	22790
855.524	22683
855.658	22809
855.792	22774
855.926	22759
856.06	22869
856.194	22729
856.327	22752
856.461	22759
856.595	22687
856.729	22778
856.862	22927
856.996	22767
857.13	22915
857.263	22984
857.397	22812
857.53	22805
857.664	22881
857.797	22896
857.931	22740
858.064	22752
858.197	22824
858.331	22763
858.464	22805
858.597	22740
858.731	22721
858.864	22687
858.997	22653
859.13	22687
859.263	22675
859.396	22782
859.529	22748
859.662	22824
859.795	22717
859.928	22763
860.061	22972
860.194	22938
860.327	22828
860.46	22820
860.592	22877
860.725	22942
860.858	22850
860.99	22698
861.123	22637
861.256	22626
861.388	22729
861.521	23433
861.653	22759
861.786	22500
861.918	22481
862.05	22618
862.183	22660
862.315	22630
862.447	22717
862.58	22698
862.712	22538
862.844	22386
862.976	22504
863.108	22421
863.24	22809
863.372	22497
863.504	22417
863.636	22538
863.768	22497
863.9	22573
864.032	22485
864.164	22386
864.296	22390
864.428	22432
864.559	22561
864.691	22481
864.823	22440
864.954	22325
865.086	22402
865.217	22299
865.349	22204
865.48	22219
865.612	22363
865.743	22363
865.875	22379
866.006	22303
866.137	22272
866.269	22356
866.4	22284
866.531	22299
866.662	22280
866.793	22272
866.924	22371
867.055	22402
867.186	22219
867.317	22276
867.448	22268
867.579	22257
867.71	22097
867.841	22299
867.972	22196
868.103	22204
868.233	22246
868.364	22204
868.495	22314
868.625	22413
868.756	22626
868.886	22348
869.017	22523
869.147	22489
869.278	22668
869.408	22500
869.539	22504
869.669	22641
869.799	22584
869.929	22535
870.06	22634
870.19	22862
870.32	22748
870.45	22866
870.58	22889
870.71	22869
870.84	22995
870.97	22805
871.1	22877
871.23	23155
871.36	23041
871.489	22984
871.619	23003
871.749	23117
871.879	23075
872.008	23231
872.138	23128
872.267	23166
872.397	22953
872.526	22915
872.656	22972
872.785	22881
872.915	23060
873.044	23185
873.173	23121
873.303	23162
873.432	23121
873.561	23193
873.69	23132
873.819	23071
873.948	23170
874.077	23178
874.206	23098
874.335	23048
874.464	23231
874.593	23421
874.722	23162
874.851	23402
874.979	23360
875.108	23345
875.237	23334
875.365	23193
875.494	23372
875.623	23452
875.751	23402
875.88	23406
876.008	23455
876.136	23551
876.265	23661
876.393	23783
876.521	23809
876.65	23840
876.778	23710
876.906	23623
877.034	23714
877.162	23657
877.29	23551
877.418	23619
877.546	23551
877.674	23638
877.802	23623
877.93	23604
878.058	23604
878.185	23543
878.313	23573
878.441	23604
878.568	23478
878.696	23440
878.824	23794
878.951	23634
879.079	23794
879.206	23904
879.333	23836
879.461	23737
879.588	23783
879.715	23748
879.842	23942
879.97	23802
880.097	23478
880.224	23398
880.351	23444
880.478	23455
880.605	23425
880.732	23490
880.859	23718
880.986	23421
881.112	23558
881.239	23280
881.366	23303
881.493	23223
881.619	22999
881.746	23109
881.872	23105
881.999	23003
882.125	22980
882.252	23071
882.378	23090
882.505	23098
882.631	22953
882.757	22866
882.883	22637
883.01	22774
883.136	22622
883.262	22599
883.388	22516
883.514	22713
883.64	22713
883.766	22649
883.892	22451
884.018	22402
884.143	22611
884.269	22706
884.395	22459
884.52	22272
884.646	22337
884.772	22185
884.897	22162
885.023	22462
885.148	22500
885.274	22546
885.399	22451
885.524	22322
885.65	22371
885.775	22356
885.9	22261
886.025	22516
886.15	22360
886.275	22390
886.4	22242
886.525	22310
886.65	22181
886.775	22234
886.9	22386
887.025	22516
887.149	22306
887.274	22154
887.399	21983
887.523	22082
887.648	22051
887.773	21960
887.897	22051
888.021	22116
888.146	22017
888.27	22181
888.395	22166
888.519	22173
888.643	22044
888.767	22112
888.891	21934
889.015	21964
889.139	21979
889.263	21774
889.387	21903
889.511	22143
889.635	21994
889.759	21808
889.883	21937
890.006	21800
890.13	21945
890.254	21816
890.377	21892
890.501	21587
890.624	21606
890.748	21690
890.871	21530
890.995	21485
891.118	21355
891.241	21500
891.364	21359
891.488	21477
891.611	21344
891.734	21458
891.857	21504
891.98	21306
892.103	21473
892.226	21428
892.349	21428
892.471	21317
892.594	21401
892.717	21424
892.839	21176
892.962	21310
893.085	21348
893.207	21291
893.33	21294
893.452	21294
893.575	21359
893.697	21294
893.819	21416
893.941	21477
894.064	21325
894.186	21211
894.308	21188
894.43	21405
894.552	21458
894.674	21351
894.796	21218
894.918	21313
895.04	21207
895.161	21389
895.283	21378
895.405	21207
895.526	21344
895.648	21317
895.769	21272
895.891	21336
896.012	21370
896.134	21370
896.255	21332
896.376	21405
896.498	21279
896.619	21325
896.74	21348
896.861	21340
896.982	21690
897.103	21679
897.224	21511
897.345	21568
897.466	21367
897.587	21507
897.708	21610
897.828	21507
897.949	21447
898.07	21245
898.19	21530
898.311	21378
898.431	21443
898.552	21534
898.672	21545
898.792	21568
898.913	21374
899.033	21348
899.153	21237
899.273	21230
899.393	21116
899.513	21359
899.633	21230
899.753	21237
899.873	21138
899.993	21283
900.113	21100
900.232	21188
900.352	21157
900.472	21043
900.591	20891
900.711	20921
900.83	20910
900.95	21123
901.069	21104
901.189	20944
901.308	20651
901.427	20461
901.546	20606
901.665	20530
901.784	20571
901.904	20412
902.023	20248
902.141	20195
902.26	20191
902.379	20111
902.498	20039
902.617	20088
902.735	20157
902.854	20035
902.973	19951
903.091	19628
903.21	19693
903.328	19605
903.446	19514
903.565	19449
903.683	19441
903.801	19373
903.919	19525
904.038	19464
904.156	19259
904.274	19411
904.392	19316
904.51	19232
904.627	19122
904.745	19152
904.863	19266
904.981	19050
905.098	18779
905.216	18928
905.334	18973
905.451	18928
905.569	18817
905.686	18890
905.803	18973
905.921	18700
906.038	18833
906.155	18700
906.272	18563
906.389	18521
906.506	18448
906.623	18483
906.74	18452
906.857	18334
906.974	18384
907.091	18479
907.208	18551
907.324	18429
907.441	18289
907.557	18220
907.674	18091
907.79	18106
907.907	18152
908.023	18129
908.139	18129
908.256	18098
908.372	18011
908.488	17946
908.604	17882
908.72	17722
908.836	17851
908.952	17840
909.068	17824
909.184	17878
909.3	17798
909.415	17885
909.531	17752
909.647	17566
909.762	17600
909.878	17482
909.993	17577
910.108	17497
910.224	17490
910.339	17509
910.454	17440
910.57	17345
910.685	17261
910.8	17387
910.915	17425
911.03	17417
911.145	17223
911.259	17071
911.374	17128
911.489	17003
911.604	16900
911.718	16862
911.833	16946
911.947	16869
912.062	16812
912.176	16896
912.291	16881
912.405	16816
912.519	17109
912.633	17037
912.748	16877
912.862	16755
912.976	16626
913.09	16519
913.204	16645
913.318	16641
913.431	16767
913.545	16721
913.659	16771
913.772	16687
913.886	16489
914	16474
914.113	16504
914.226	16656
914.34	16466
914.453	16379
914.566	16485
914.68	16356
914.793	16341
914.906	16116
915.019	15983
915.132	15937
915.245	15998
915.358	16093
915.47	15930
915.583	16074
915.696	16128
915.809	16120
915.921	16055
916.034	15994
916.146	15937
916.259	15873
916.371	15956
916.483	15975
916.595	15968
916.708	15846
916.82	15835
916.932	15759
917.044	15793
917.156	15762
917.268	15667
917.38	15610
917.491	15618
917.603	15618
917.715	15762
917.826	15713
917.938	15686
918.049	15568
918.161	15633
918.272	15743
918.384	15747
918.495	15652
918.606	15435
918.717	15386
918.828	15428
918.939	15458
919.05	15313
919.161	15428
919.272	15241
919.383	15169
919.494	15389
919.604	15572
919.715	15355
919.826	15272
919.936	15348
920.047	15412
920.157	15405
920.267	15561
920.378	15428
920.488	15344
920.598	15431
920.708	15610
920.818	15454
920.928	15420
921.038	15614
921.148	15576
921.258	15306
921.368	15195
921.477	14982
921.587	15032
921.697	14857
921.806	15024
921.916	14960
922.025	14785
922.134	14765
922.244	14602
922.353	14689
922.462	14610
922.571	14488
922.68	14332
922.789	14324
922.898	14317
923.007	14290
923.116	14347
923.224	14301
923.333	14248
923.442	14199
923.55	14180
923.659	14157
923.767	14172
923.876	14107
923.984	14073
924.092	14058
924.201	14168
924.309	14073
924.417	14050
924.525	14031
924.633	14001
924.741	14994
924.849	13750
924.956	13982
925.064	13795
925.172	13670
925.279	13662
925.387	13651
925.494	13700
925.602	13864
925.709	13681
925.816	13590
925.924	13609
926.031	13811
926.138	13681
926.245	13677
926.352	13544
926.459	13742
926.566	13799
926.673	13518
926.779	13392
926.886	13362
926.993	13316
927.099	13316
927.206	13137
927.312	13228
927.419	13198
927.525	13194
927.631	13194
927.737	13137
927.843	13091
927.95	12935
928.056	13004
928.162	13031
928.267	13042
928.373	13677
928.479	13050
928.585	12856
928.69	12932
928.796	12981
928.901	12882
929.007	12760
929.112	12913
929.218	12913
929.323	12726
929.428	12745
929.533	12817
929.638	12738
929.743	12662
929.848	12688
929.953	12639
930.058	12585
930.163	12479
930.267	12350
930.372	12498
930.477	12251
930.581	12525
930.685	12441
930.79	12251
930.894	12380
930.998	12270
931.103	12410
931.207	12072
931.311	11954
931.415	11847
931.519	11638
931.623	11699
