Data from test_V78500241_2597.txt Node
Date: Fri Mar 25 15:59:47 CST 2022
User: usil
Spectrometer: V785-0024
Trigger mode: 0
Integration Time (sec): 4.000000E-1
Scans to average: 1
Nonlinearity correction enabled: false
Boxcar width: 0
Storing dark spectrum: false
XAxis mode: Wavelengths
Number of Pixels in Spectrum: 1024
>>>>>Begin Spectral Data<<<<<
801.071	28443
801.214	28337
801.356	28135
801.499	28032
801.641	27960
801.783	27941
801.926	27873
802.068	27941
802.211	27831
802.353	27781
802.496	27671
802.638	27610
802.78	27549
802.923	27481
803.065	27515
803.208	27553
803.35	27583
803.492	27774
803.635	27732
803.777	27751
803.919	27793
804.061	28139
804.204	27823
804.346	27762
804.488	27724
804.63	27755
804.773	27842
804.915	28010
805.057	28048
805.199	27838
805.341	27914
805.483	27827
805.626	27945
805.768	27907
805.91	27892
806.052	28097
806.194	27926
806.336	28067
806.478	27873
806.62	27991
806.762	27994
806.904	28310
807.046	28481
807.188	28436
807.33	28440
807.472	28421
807.614	28360
807.756	28421
807.898	28249
808.04	28147
808.182	28196
808.324	28272
808.465	28268
808.607	28504
808.749	28694
808.891	28733
809.033	28820
809.174	28778
809.316	28546
809.458	28755
809.6	28580
809.741	28759
809.883	28603
810.025	29014
810.166	28877
810.308	28919
810.45	28824
810.591	28900
810.733	28702
810.875	28683
811.016	28459
811.158	28660
811.299	28694
811.441	28858
811.582	28896
811.724	28767
811.865	28656
812.007	28615
812.148	28679
812.29	28622
812.431	28797
812.573	28972
812.714	29090
812.855	29261
812.997	29212
813.138	29265
813.279	29326
813.421	29136
813.562	29132
813.703	28976
813.845	28850
813.986	28577
814.127	28561
814.268	28276
814.41	28287
814.551	28367
814.692	28504
814.833	28253
814.974	28219
815.115	28337
815.256	28367
815.397	28169
815.539	28246
815.68	28268
815.821	28051
815.962	28139
816.103	28139
816.244	28040
816.385	27831
816.526	28017
816.666	27595
816.807	27743
816.948	27720
817.089	27785
817.23	27511
817.371	27743
817.512	27789
817.653	27599
817.793	27637
817.934	27644
818.075	27644
818.216	27637
818.356	27637
818.497	27595
818.638	27405
818.778	27427
818.919	27492
819.06	27435
819.2	27488
819.341	27739
819.481	27698
819.622	27743
819.762	27941
819.903	27926
820.043	27922
820.184	27812
820.324	27656
820.465	27846
820.605	27812
820.746	27762
820.886	27671
821.026	27652
821.167	27717
821.307	27679
821.447	27576
821.588	27526
821.728	27511
821.868	27408
822.008	27211
822.149	27081
822.289	27055
822.429	26868
822.569	26861
822.709	26811
822.849	26682
822.99	26545
823.13	26659
823.27	26568
823.41	26450
823.55	26412
823.69	26617
823.83	26609
823.97	26400
824.11	26210
824.25	26286
824.389	26294
824.529	26355
824.669	26172
824.809	26263
824.949	26377
825.089	26309
825.228	26324
825.368	26096
825.508	26107
825.648	26256
825.787	26244
825.927	26195
826.067	26054
826.206	26187
826.346	26286
826.485	26278
826.625	26180
826.765	26221
826.904	26073
827.044	25871
827.183	25902
827.323	26046
827.462	25890
827.601	25936
827.741	25887
827.88	25940
828.02	25708
828.159	25761
828.298	25894
828.437	25921
828.577	25753
828.716	25837
828.855	25795
828.994	25491
829.134	25476
829.273	25594
829.412	25578
829.551	25445
829.69	25552
829.829	25605
829.968	25662
830.107	25540
830.246	25632
830.385	25620
830.524	25403
830.663	25388
830.802	25251
830.941	25072
831.08	25179
831.219	25285
831.357	25137
831.496	25403
831.635	25301
831.774	25069
831.913	25084
832.051	24932
832.19	24973
832.329	25152
832.467	24920
832.606	24669
832.744	24749
832.883	24894
833.022	24776
833.16	24810
833.299	24882
833.437	24783
833.576	24856
833.714	24798
833.852	24996
833.991	24882
834.129	25012
834.267	25027
834.406	24909
834.544	25015
834.682	24977
834.821	24867
834.959	25023
835.097	24882
835.235	24894
835.373	25000
835.511	24848
835.65	24802
835.788	24833
835.926	24787
836.064	24551
836.202	24536
836.34	24863
836.478	24795
836.615	24688
836.753	24601
836.891	24856
837.029	24749
837.167	24646
837.305	24661
837.443	24593
837.58	24437
837.718	24627
837.856	24760
837.993	24494
838.131	24582
838.269	24532
838.406	24601
838.544	24456
838.681	24197
838.819	24292
838.956	23996
839.094	23920
839.231	24167
839.369	24110
839.506	24407
839.643	24228
839.781	24068
839.918	23821
840.055	23912
840.193	24064
840.33	23878
840.467	23961
840.604	23927
840.742	24228
840.879	23760
841.016	23794
841.153	23794
841.29	23847
841.427	23809
841.564	23977
841.701	23870
841.838	23935
841.975	23821
842.112	23798
842.249	23760
842.385	23798
842.522	23809
842.659	23805
842.796	23802
842.933	23611
843.069	23707
843.206	23577
843.343	23707
843.479	23783
843.616	23619
843.752	23349
843.889	23512
844.025	23577
844.162	23414
844.298	23398
844.435	23337
844.571	23455
844.708	23627
844.844	23653
844.98	23668
845.117	23440
845.253	23402
845.389	23277
845.525	23398
845.661	23345
845.798	23246
845.934	23140
846.07	23185
846.206	23197
846.342	23299
846.478	23204
846.614	22987
846.75	22911
846.886	22938
847.022	22991
847.158	22862
847.294	22991
847.429	22900
847.565	22816
847.701	23155
847.837	22736
847.972	22675
848.108	22831
848.244	22801
848.379	22504
848.515	22516
848.65	22516
848.786	22588
848.921	22459
849.057	22519
849.192	22660
849.328	22516
849.463	22550
849.598	22493
849.734	22417
849.869	22382
850.004	22287
850.14	22306
850.275	22299
850.41	22166
850.545	22097
850.68	22257
850.815	22356
850.95	22211
851.085	22344
851.22	22405
851.355	22234
851.49	22246
851.625	22257
851.76	22223
851.895	22246
852.03	22253
852.165	22394
852.299	22409
852.434	22348
852.569	22268
852.703	22333
852.838	22402
852.973	22360
853.107	22314
853.242	22219
853.376	22124
853.511	21987
853.645	22036
853.78	22207
853.914	22139
854.048	22143
854.183	22090
854.317	22093
854.451	22280
854.585	22105
854.72	22169
854.854	22154
854.988	22097
855.122	22109
855.256	21983
855.39	22166
855.524	22082
855.658	22158
855.792	22082
855.926	22169
856.06	22173
856.194	22158
856.327	22017
856.461	21937
856.595	22040
856.729	22025
856.862	22204
856.996	22090
857.13	22143
857.263	22249
857.397	22166
857.53	22063
857.664	22154
857.797	22147
857.931	22291
858.064	22242
858.197	22162
858.331	22097
858.464	22086
858.597	21968
858.731	22090
858.864	21937
858.997	22051
859.13	22044
859.263	21964
859.396	22310
859.529	22109
859.662	22162
859.795	22025
859.928	22188
860.061	22257
860.194	22204
860.327	22032
860.46	22112
860.592	22295
860.725	22306
860.858	22166
860.99	22242
861.123	22002
861.256	21979
861.388	22162
861.521	22824
861.653	21930
861.786	21930
861.918	21895
862.05	21888
862.183	22116
862.315	22063
862.447	22040
862.58	21934
862.712	21766
862.844	21614
862.976	21835
863.108	21937
863.24	22204
863.372	21831
863.504	21835
863.636	21873
863.768	21956
863.9	21941
864.032	21701
864.164	21789
864.296	21869
864.428	21911
864.559	21937
864.691	21911
864.823	21926
864.954	21823
865.086	21804
865.217	21747
865.349	21686
865.48	21671
865.612	21568
865.743	21865
865.875	21755
866.006	21724
866.137	21633
866.269	21618
866.4	21637
866.531	21561
866.662	21603
866.793	21549
866.924	21599
867.055	21641
867.186	21595
867.317	21675
867.448	21488
867.579	21660
867.71	21576
867.841	21568
867.972	21698
868.103	21572
868.233	21682
868.364	21648
868.495	21781
868.625	21850
868.756	21888
868.886	21785
869.017	21869
869.147	21949
869.278	22059
869.408	21983
869.539	21838
869.669	21941
869.799	21865
869.929	22074
870.06	22017
870.19	22166
870.32	22070
870.45	22211
870.58	22192
870.71	22371
870.84	22249
870.97	22287
871.1	22325
871.23	22459
871.36	22409
871.489	22344
871.619	22398
871.749	22382
871.879	22523
872.008	22588
872.138	22474
872.267	22440
872.397	22238
872.526	22257
872.656	22257
872.785	22325
872.915	22523
873.044	22592
873.173	22584
873.303	22519
873.432	22462
873.561	22691
873.69	22478
873.819	22443
873.948	22626
874.077	22519
874.206	22284
874.335	22557
874.464	22592
874.593	22771
874.722	22580
874.851	22687
874.979	22801
875.108	22713
875.237	22592
875.365	22618
875.494	22596
875.623	22809
875.751	22740
875.88	22748
876.008	22782
876.136	22797
876.265	23090
876.393	23239
876.521	23113
876.65	23162
876.778	23143
876.906	23128
877.034	23166
877.162	23044
877.29	22968
877.418	23052
877.546	23003
877.674	23018
877.802	23113
877.93	22927
878.058	22957
878.185	22923
878.313	22995
878.441	22923
878.568	22843
878.696	22949
878.824	22984
878.951	23102
879.079	23239
879.206	23360
879.333	23151
879.461	23102
879.588	23136
879.715	23105
879.842	23410
879.97	23102
880.097	22965
880.224	22919
880.351	22835
880.478	22820
880.605	22843
880.732	22816
880.859	23113
880.986	22984
881.112	22801
881.239	22786
881.366	22573
881.493	22599
881.619	22325
881.746	22421
881.872	22447
881.999	22432
882.125	22367
882.252	22356
882.378	22413
882.505	22615
882.631	22226
882.757	22150
882.883	22261
883.01	22128
883.136	22074
883.262	21930
883.388	21941
883.514	22181
883.64	22112
883.766	21960
883.892	21930
884.018	21876
884.143	22086
884.269	22040
884.395	21774
884.52	21660
884.646	21797
884.772	21591
884.897	21648
885.023	21823
885.148	21835
885.274	21869
885.399	21816
885.524	21720
885.65	21717
885.775	21660
885.9	21709
886.025	21797
886.15	21846
886.275	21698
886.4	21682
886.525	21720
886.65	21739
886.775	21633
886.9	21854
887.025	21831
887.149	21629
887.274	21507
887.399	21633
887.523	21504
887.648	21416
887.773	21351
887.897	21526
888.021	21580
888.146	21447
888.27	21485
888.395	21492
888.519	21572
888.643	21488
888.767	21717
888.891	21450
889.015	21230
889.139	21310
889.263	21233
889.387	21348
889.511	21447
889.635	21386
889.759	21260
889.883	21355
890.006	21431
890.13	21275
890.254	21272
890.377	21203
890.501	21119
890.624	21009
890.748	21081
890.871	20994
890.995	20861
891.118	20781
891.241	20941
891.364	20830
891.488	20994
891.611	20830
891.734	20842
891.857	20994
891.98	20929
892.103	20788
892.226	20853
892.349	20743
892.471	20773
892.594	20800
892.717	20724
892.839	20785
892.962	20739
893.085	20781
893.207	20670
893.33	20663
893.452	20697
893.575	20800
893.697	20773
893.819	20857
893.941	20830
894.064	20864
894.186	20670
894.308	20644
894.43	20796
894.552	20952
894.674	20762
894.796	20777
894.918	20655
895.04	20758
895.161	20906
895.283	20739
895.405	20758
895.526	20765
895.648	20663
895.769	20781
895.891	20811
896.012	20785
896.134	20800
896.255	20667
896.376	20724
896.498	20823
896.619	20754
896.74	20667
896.861	20731
896.982	21032
897.103	21127
897.224	21074
897.345	21024
897.466	20819
897.587	20868
897.708	20998
897.828	20986
897.949	20864
898.07	20883
898.19	20842
898.311	21131
898.431	20834
898.552	20918
898.672	20990
898.792	20956
898.913	20963
899.033	20899
899.153	20670
899.273	20739
899.393	20705
899.513	20743
899.633	20663
899.753	20754
899.873	20724
899.993	20667
900.113	20682
900.232	20667
900.352	20499
900.472	20537
900.591	20446
900.711	20492
900.83	20511
900.95	20560
901.069	20602
901.189	20263
901.308	20233
901.427	20035
901.546	20092
901.665	20062
901.784	19986
901.904	19879
902.023	19681
902.141	19620
902.26	19632
902.379	19613
902.498	19537
902.617	19434
902.735	19609
902.854	19491
902.973	19415
903.091	19255
903.21	19160
903.328	19266
903.446	19095
903.565	18966
903.683	19023
903.801	18905
903.919	18947
904.038	19038
904.156	18848
904.274	18875
904.392	18677
904.51	18719
904.627	18707
904.745	18776
904.863	18776
904.981	18544
905.098	18475
905.216	18445
905.334	18528
905.451	18525
905.569	18414
905.686	18475
905.803	18426
905.921	18292
906.038	18251
906.155	18220
906.272	18091
906.389	18121
906.506	17889
906.623	17923
906.74	17916
906.857	17817
906.974	17965
907.091	17836
907.208	18174
907.324	17950
907.441	17809
907.557	17729
907.674	17577
907.79	17608
907.907	17630
908.023	17707
908.139	17691
908.256	17547
908.372	17566
908.488	17558
908.604	17482
908.72	17376
908.836	17417
908.952	17315
909.068	17463
909.184	17520
909.3	17292
909.415	17558
909.531	17387
909.647	17216
909.762	17086
909.878	17079
909.993	17003
910.108	17098
910.224	17003
910.339	17113
910.454	16828
910.57	16885
910.685	16828
910.8	17128
910.915	16984
911.03	16972
911.145	16694
911.259	16725
911.374	16725
911.489	16577
911.604	16485
911.718	16405
911.833	16409
911.947	16322
912.062	16295
912.176	16512
912.291	16402
912.405	16394
912.519	16592
912.633	16626
912.748	16508
912.862	16371
912.976	16287
913.09	16230
913.204	16238
913.318	16253
913.431	16344
913.545	16284
913.659	16268
913.772	16185
913.886	16032
914	15987
914.113	16116
914.226	16192
914.34	16013
914.453	15918
914.566	16063
914.68	15827
914.793	15892
914.906	15743
915.019	15603
915.132	15511
915.245	15466
915.358	15728
915.47	15648
915.583	15637
915.696	15644
915.809	15736
915.921	15709
916.034	15549
916.146	15462
916.259	15454
916.371	15584
916.483	15515
916.595	15473
916.708	15447
916.82	15428
916.932	15325
917.044	15336
917.156	15348
917.268	15233
917.38	15272
917.491	15203
917.603	15241
917.715	15340
917.826	15268
917.938	15161
918.049	15089
918.161	15195
918.272	15416
918.384	15207
918.495	15142
918.606	14998
918.717	14933
918.828	14967
918.939	15062
919.05	14933
919.161	14971
919.272	14796
919.383	14902
919.494	14937
919.604	15100
919.715	14941
919.826	14815
919.936	14906
920.047	15039
920.157	14914
920.267	15100
920.378	14975
920.488	14887
920.598	15077
920.708	15233
920.818	15009
920.928	14933
921.038	15195
921.148	15207
921.258	14872
921.368	14781
921.477	14636
921.587	14606
921.697	14465
921.806	14712
921.916	14507
922.025	14328
922.134	14351
922.244	14336
922.353	14404
922.462	14191
922.571	14164
922.68	13986
922.789	13936
922.898	13978
923.007	13940
923.116	13997
923.224	14043
923.333	13868
923.442	13849
923.55	13742
923.659	13776
923.767	13947
923.876	13666
923.984	13780
924.092	13776
924.201	13651
924.309	13658
924.417	13723
924.525	13567
924.633	13597
924.741	14549
924.849	13430
924.956	13563
925.064	13354
925.172	13293
925.279	13365
925.387	13362
925.494	13304
925.602	13487
925.709	13312
925.816	13266
925.924	13244
926.031	13350
926.138	13190
926.245	13350
926.352	13183
926.459	13301
926.566	13335
926.673	13270
926.779	13103
926.886	13031
926.993	12954
927.099	12886
927.206	12894
927.312	12772
927.419	12913
927.525	12875
927.631	12928
927.737	12821
927.843	12715
927.95	12570
928.056	12681
928.162	12738
928.267	12840
928.373	13228
928.479	12719
928.585	12498
928.69	12585
928.796	12669
928.901	12707
929.007	12536
929.112	12506
929.218	12525
929.323	12403
929.428	12342
929.533	12589
929.638	12334
929.743	12372
929.848	12456
929.953	12410
930.058	12243
930.163	12144
930.267	12083
930.372	12262
930.477	12083
930.581	12232
930.685	12152
930.79	12064
930.894	11996
930.998	11965
931.103	12121
931.207	11756
931.311	11608
931.415	11493
931.519	11379
931.623	11368
