Data from test_V78500241_2891.txt Node
Date: Fri Mar 25 16:01:49 CST 2022
User: usil
Spectrometer: V785-0024
Trigger mode: 0
Integration Time (sec): 4.000000E-1
Scans to average: 1
Nonlinearity correction enabled: false
Boxcar width: 0
Storing dark spectrum: false
XAxis mode: Wavelengths
Number of Pixels in Spectrum: 1024
>>>>>Begin Spectral Data<<<<<
801.071	28615
801.214	28656
801.356	28637
801.499	28440
801.641	28284
801.783	28303
801.926	28443
802.068	28306
802.211	28215
802.353	28147
802.496	28063
802.638	28021
802.78	27968
802.923	27907
803.065	27937
803.208	28070
803.35	28059
803.492	28226
803.635	28238
803.777	28139
803.919	28249
804.061	28550
804.204	28367
804.346	28284
804.488	28116
804.63	28322
804.773	28166
804.915	28337
805.057	28405
805.199	28371
805.341	28234
805.483	28542
805.626	28451
805.768	28188
805.91	28538
806.052	28466
806.194	28329
806.336	28554
806.478	28322
806.62	28455
806.762	28622
806.904	28717
807.046	28938
807.188	28934
807.33	28885
807.472	28949
807.614	28888
807.756	28850
807.898	28733
808.04	28634
808.182	28771
808.324	28645
808.465	28774
808.607	28911
808.749	29174
808.891	29326
809.033	29200
809.174	29159
809.316	29083
809.458	29117
809.6	28885
809.741	29231
809.883	29353
810.025	29417
810.166	29444
810.308	29531
810.45	29482
810.591	29315
810.733	29223
810.875	29185
811.016	29098
811.158	29010
811.299	29242
811.441	29220
811.582	29315
811.724	29261
811.865	29105
812.007	29277
812.148	29140
812.29	29273
812.431	29151
812.573	29478
812.714	29646
812.855	29642
812.997	29726
813.138	29946
813.279	29805
813.421	29646
813.562	29516
813.703	29372
813.845	29307
813.986	29113
814.127	28900
814.268	28828
814.41	28873
814.551	28881
814.692	28972
814.833	28888
814.974	28752
815.115	28904
815.256	28797
815.397	28828
815.539	28862
815.68	28683
815.821	28713
815.962	28641
816.103	28725
816.244	28641
816.385	28531
816.526	28432
816.666	28280
816.807	28063
816.948	28188
817.089	28341
817.23	28333
817.371	28150
817.512	28139
817.653	28147
817.793	28200
817.934	28226
818.075	28169
818.216	28120
818.356	28029
818.497	28059
818.638	27918
818.778	27922
818.919	27926
819.06	27884
819.2	28059
819.341	28093
819.481	28196
819.622	28284
819.762	28512
819.903	28409
820.043	28371
820.184	28207
820.324	28310
820.465	28356
820.605	28303
820.746	28265
820.886	28124
821.026	28314
821.167	28204
821.307	28322
821.447	28204
821.588	28181
821.728	27930
821.868	27819
822.008	27701
822.149	27781
822.289	27526
822.429	27416
822.569	27294
822.709	27359
822.849	27207
822.99	27047
823.13	27169
823.27	27096
823.41	27017
823.55	26826
823.69	26872
823.83	27017
823.97	26982
824.11	26632
824.25	26842
824.389	26762
824.529	26891
824.669	26792
824.809	26975
824.949	26876
825.089	26948
825.228	26838
825.368	26659
825.508	26682
825.648	26739
825.787	26640
825.927	26697
826.067	26640
826.206	26499
826.346	26769
826.485	26648
826.625	26781
826.765	26788
826.904	26758
827.044	26556
827.183	26423
827.323	26389
827.462	26446
827.601	26381
827.741	26393
827.88	26412
828.02	26347
828.159	26419
828.298	26431
828.437	26545
828.577	26347
828.716	26511
828.855	26286
828.994	26073
829.134	25989
829.273	26301
829.412	26126
829.551	25978
829.69	26100
829.829	26050
829.968	26145
830.107	26237
830.246	26195
830.385	25856
830.524	26092
830.663	25875
830.802	25830
830.941	25746
831.08	25681
831.219	25731
831.357	25913
831.496	26005
831.635	25681
831.774	25620
831.913	25571
832.051	25506
832.19	25453
832.329	25548
832.467	25285
832.606	25411
832.744	25293
832.883	25407
833.022	25289
833.16	25175
833.299	25388
833.437	25403
833.576	25403
833.714	25445
833.852	25502
833.991	25453
834.129	25540
834.267	25609
834.406	25343
834.544	25521
834.682	25487
834.821	25320
834.959	25601
835.097	25468
835.235	25453
835.373	25441
835.511	25381
835.65	25270
835.788	25266
835.926	25145
836.064	25164
836.202	25164
836.34	25228
836.478	25278
836.615	25316
836.753	25160
836.891	25225
837.029	25247
837.167	25240
837.305	25247
837.443	25133
837.58	24913
837.718	25160
837.856	25084
837.993	25133
838.131	25038
838.269	24996
838.406	25061
838.544	24821
838.681	24623
838.819	24684
838.956	24517
839.094	24521
839.231	24700
839.369	24772
839.506	24985
839.643	24791
839.781	24616
839.918	24544
840.055	24479
840.193	24593
840.33	24460
840.467	24498
840.604	24494
840.742	24658
840.879	24296
841.016	24479
841.153	24315
841.29	24589
841.427	24338
841.564	24502
841.701	24441
841.838	24376
841.975	24319
842.112	24372
842.249	24289
842.385	24228
842.522	24437
842.659	24311
842.796	24247
842.933	24270
843.069	24209
843.206	24209
843.343	24163
843.479	24232
843.616	24262
843.752	23984
843.889	24091
844.025	24091
844.162	23950
844.298	24068
844.435	23954
844.571	23942
844.708	23984
844.844	24038
844.98	24152
845.117	24133
845.253	23904
845.389	23760
845.525	23923
845.661	23813
845.798	23619
845.934	23786
846.07	23596
846.206	23790
846.342	23805
846.478	23813
846.614	23414
846.75	23383
846.886	23490
847.022	23619
847.158	23444
847.294	23497
847.429	23455
847.565	23535
847.701	23634
847.837	23223
847.972	23166
848.108	23307
848.244	23178
848.379	23052
848.515	23079
848.65	22942
848.786	23105
848.921	22934
849.057	23124
849.192	23098
849.328	23113
849.463	23090
849.598	22900
849.734	22953
849.869	22831
850.004	22759
850.14	22892
850.275	22706
850.41	22797
850.545	22740
850.68	22721
850.815	22713
850.95	22797
851.085	22885
851.22	22889
851.355	22866
851.49	22812
851.625	22793
851.76	22588
851.895	22717
852.03	22698
852.165	22702
852.299	22816
852.434	22885
852.569	22896
852.703	22755
852.838	22847
852.973	22904
853.107	22930
853.242	22824
853.376	22683
853.511	22405
853.645	22550
853.78	22729
853.914	22557
854.048	22500
854.183	22702
854.317	22565
854.451	22828
854.585	22603
854.72	22634
854.854	22557
854.988	22664
855.122	22599
855.256	22691
855.39	22554
855.524	22721
855.658	22683
855.792	22694
855.926	22573
856.06	22546
856.194	22702
856.327	22580
856.461	22607
856.595	22577
856.729	22630
856.862	22759
856.996	22672
857.13	22641
857.263	22634
857.397	22607
857.53	22599
857.664	22634
857.797	22656
857.931	22847
858.064	22679
858.197	22710
858.331	22622
858.464	22478
858.597	22489
858.731	22569
858.864	22577
858.997	22500
859.13	22584
859.263	22664
859.396	22744
859.529	22531
859.662	22641
859.795	22592
859.928	22554
860.061	22774
860.194	22850
860.327	22752
860.46	22565
860.592	22672
860.725	22725
860.858	22816
860.99	22626
861.123	22660
861.256	22645
861.388	22706
861.521	23311
861.653	22508
861.786	22440
861.918	22440
862.05	22363
862.183	22599
862.315	22546
862.447	22516
862.58	22615
862.712	22295
862.844	22363
862.976	22428
863.108	22402
863.24	22778
863.372	22367
863.504	22489
863.636	22185
863.768	22268
863.9	22386
864.032	22348
864.164	22150
864.296	22299
864.428	22440
864.559	22375
864.691	22485
864.823	22344
864.954	22265
865.086	22287
865.217	22219
865.349	22093
865.48	22234
865.612	22158
865.743	22367
865.875	22280
866.006	22185
866.137	22207
866.269	22051
866.4	22086
866.531	22215
866.662	22059
866.793	22192
866.924	22105
867.055	22166
867.186	22196
867.317	22207
867.448	22051
867.579	21987
867.71	22036
867.841	22101
867.972	22204
868.103	22192
868.233	22261
868.364	22246
868.495	22219
868.625	22341
868.756	22519
868.886	22371
869.017	22421
869.147	22478
869.278	22489
869.408	22497
869.539	22428
869.669	22470
869.799	22421
869.929	22626
870.06	22653
870.19	22721
870.32	22561
870.45	22816
870.58	22679
870.71	22927
870.84	22873
870.97	22843
871.1	22927
871.23	22949
871.36	23018
871.489	22911
871.619	22889
871.749	22862
871.879	23010
872.008	23151
872.138	22915
872.267	23113
872.397	22854
872.526	22812
872.656	22816
872.785	22866
872.915	23071
873.044	23086
873.173	22991
873.303	23086
873.432	23048
873.561	23109
873.69	22946
873.819	23067
873.948	23124
874.077	23136
874.206	23037
874.335	22961
874.464	23117
874.593	23212
874.722	23299
874.851	23200
874.979	23220
875.108	23284
875.237	23136
875.365	23189
875.494	23159
875.623	23117
875.751	23322
875.88	23136
876.008	23212
876.136	23334
876.265	23687
876.393	23707
876.521	23615
876.65	23779
876.778	23611
876.906	23406
877.034	23577
877.162	23558
877.29	23554
877.418	23573
877.546	23687
877.674	23661
877.802	23471
877.93	23562
878.058	23471
878.185	23448
878.313	23554
878.441	23512
878.568	23455
878.696	23585
878.824	23680
878.951	23585
879.079	23718
879.206	23805
879.333	23619
879.461	23539
879.588	23665
879.715	23847
879.842	23798
879.97	23687
880.097	23429
880.224	23299
880.351	23501
880.478	23345
880.605	23436
880.732	23273
880.859	23638
880.986	23425
881.112	23372
881.239	23246
881.366	23056
881.493	22965
881.619	22889
881.746	23124
881.872	22987
881.999	22908
882.125	22938
882.252	22949
882.378	22900
882.505	22995
882.631	22835
882.757	22679
882.883	22626
883.01	22527
883.136	22664
883.262	22504
883.388	22402
883.514	22573
883.64	22694
883.766	22634
883.892	22417
884.018	22443
884.143	22615
884.269	22550
884.395	22318
884.52	22158
884.646	22348
884.772	22211
884.897	22086
885.023	22207
885.148	22394
885.274	22322
885.399	22276
885.524	22272
885.65	22318
885.775	22333
885.9	22143
886.025	22219
886.15	22428
886.275	22272
886.4	22135
886.525	22181
886.65	22105
886.775	22120
886.9	22409
887.025	22413
887.149	22242
887.274	22021
887.399	21949
887.523	21983
887.648	22013
887.773	21998
887.897	22025
888.021	22063
888.146	21907
888.27	22188
888.395	22082
888.519	22063
888.643	22010
888.767	21975
888.891	21907
889.015	21895
889.139	21850
889.263	21766
889.387	21895
889.511	21987
889.635	21827
889.759	21865
889.883	21823
890.006	21778
890.13	21846
890.254	21682
890.377	21736
890.501	21538
890.624	21454
890.748	21488
890.871	21374
890.995	21370
891.118	21188
891.241	21450
891.364	21245
891.488	21374
891.611	21447
891.734	21428
891.857	21416
891.98	21355
892.103	21416
892.226	21363
892.349	21294
892.471	21165
892.594	21089
892.717	21310
892.839	21199
892.962	21237
893.085	21348
893.207	21108
893.33	21154
893.452	21272
893.575	21325
893.697	21192
893.819	21355
893.941	21386
894.064	21420
894.186	21237
894.308	21348
894.43	21214
894.552	21321
894.674	21287
894.796	21077
894.918	21207
895.04	21195
895.161	21325
895.283	21169
895.405	21184
895.526	21146
895.648	21104
895.769	21260
895.891	21435
896.012	21214
896.134	21245
896.255	21211
896.376	21218
896.498	21336
896.619	21249
896.74	21207
896.861	21256
896.982	21553
897.103	21614
897.224	21492
897.345	21485
897.466	21393
897.587	21428
897.708	21462
897.828	21469
897.949	21230
898.07	21260
898.19	21241
898.311	21439
898.431	21348
898.552	21351
898.672	21393
898.792	21515
898.913	21408
899.033	21218
899.153	21298
899.273	20956
899.393	21112
899.513	21165
899.633	21154
899.753	21104
899.873	21135
899.993	21142
900.113	21017
900.232	21157
900.352	21036
900.472	21039
900.591	20811
900.711	20979
900.83	20887
900.95	20933
901.069	20880
901.189	20735
901.308	20545
901.427	20351
901.546	20393
901.665	20404
901.784	20507
901.904	20320
902.023	20408
902.141	19871
902.26	19932
902.379	20012
902.498	20001
902.617	19932
902.735	20001
902.854	20001
902.973	19909
903.091	19693
903.21	19624
903.328	19563
903.446	19495
903.565	19354
903.683	19518
903.801	19373
903.919	19358
904.038	19335
904.156	19168
904.274	19213
904.392	19091
904.51	19145
904.627	19152
904.745	19320
904.863	19183
904.981	18947
905.098	18806
905.216	18840
905.334	18878
905.451	18833
905.569	18741
905.686	18894
905.803	18734
905.921	18544
906.038	18639
906.155	18620
906.272	18486
906.389	18665
906.506	18391
906.623	18479
906.74	18350
906.857	18216
906.974	18258
907.091	18460
907.208	18410
907.324	18517
907.441	18216
907.557	18110
907.674	18159
907.79	18022
907.907	17939
908.023	18076
908.139	18091
908.256	18121
908.372	17942
908.488	17977
908.604	17855
908.72	17847
908.836	17893
908.952	17821
909.068	17851
909.184	17927
909.3	17798
909.415	17779
909.531	17684
909.647	17547
909.762	17493
909.878	17535
909.993	17425
910.108	17433
910.224	17455
910.339	17459
910.454	17288
910.57	17360
910.685	17277
910.8	17566
910.915	17318
911.03	17299
911.145	17041
911.259	17075
911.374	17003
911.489	16984
911.604	16961
911.718	16831
911.833	16748
911.947	16694
912.062	16615
912.176	16877
912.291	16866
912.405	16866
912.519	16927
912.633	16991
912.748	16767
912.862	16801
912.976	16588
913.09	16500
913.204	16577
913.318	16634
913.431	16630
913.545	16744
913.659	16763
913.772	16550
913.886	16481
914	16360
914.113	16451
914.226	16470
914.34	16447
914.453	16333
914.566	16348
914.68	16223
914.793	16276
914.906	16032
915.019	16044
915.132	15903
915.245	15873
915.358	15979
915.47	15998
915.583	15972
915.696	16002
915.809	16211
915.921	16067
916.034	15857
916.146	15823
916.259	15857
916.371	15869
916.483	15812
916.595	15713
916.708	15842
916.82	15762
916.932	15701
917.044	15747
917.156	15770
917.268	15580
917.38	15557
917.491	15408
917.603	15603
917.715	15644
917.826	15690
917.938	15504
918.049	15538
918.161	15568
918.272	15717
918.384	15599
918.495	15511
918.606	15412
918.717	15233
918.828	15370
918.939	15321
919.05	15237
919.161	15249
919.272	15138
919.383	15207
919.494	15287
919.604	15523
919.715	15325
919.826	15161
919.936	15302
920.047	15351
920.157	15272
920.267	15466
920.378	15226
920.488	15222
920.598	15416
920.708	15553
920.818	15344
920.928	15344
921.038	15504
921.148	15511
921.258	15184
921.368	15230
921.477	15055
921.587	14986
921.697	14929
921.806	14952
921.916	14868
922.025	14678
922.134	14678
922.244	14606
922.353	14682
922.462	14522
922.571	14461
922.68	14199
922.789	14271
922.898	14210
923.007	14180
923.116	14324
923.224	14187
923.333	14237
923.442	14134
923.55	14145
923.659	14058
923.767	14180
923.876	14054
923.984	14153
924.092	13970
924.201	14043
924.309	13986
924.417	13997
924.525	13921
924.633	13894
924.741	14796
924.849	13723
924.956	13860
925.064	13727
925.172	13605
925.279	13559
925.387	13719
925.494	13575
925.602	13757
925.709	13780
925.816	13548
925.924	13548
926.031	13643
926.138	13578
926.245	13628
926.352	13453
926.459	13670
926.566	13605
926.673	13563
926.779	13381
926.886	13392
926.993	13282
927.099	13194
927.206	13160
927.312	13141
927.419	13270
927.525	13160
927.631	13213
927.737	13091
927.843	12962
927.95	12935
928.056	13046
928.162	13050
928.267	13088
928.373	13605
928.479	13129
928.585	12776
928.69	12905
928.796	12932
928.901	12802
929.007	12734
929.112	12935
929.218	12814
929.323	12654
929.428	12688
929.533	12753
929.638	12665
929.743	12707
929.848	12677
929.953	12578
930.058	12525
930.163	12388
930.267	12361
930.372	12502
930.477	12319
930.581	12506
930.685	12342
930.79	12296
930.894	12262
930.998	12163
931.103	12323
931.207	11901
931.311	11942
931.415	11821
931.519	11611
931.623	11577
