Data from test_V78500241_3105.txt Node
Date: Fri Mar 25 16:03:18 CST 2022
User: usil
Spectrometer: V785-0024
Trigger mode: 0
Integration Time (sec): 4.000000E-1
Scans to average: 1
Nonlinearity correction enabled: false
Boxcar width: 0
Storing dark spectrum: false
XAxis mode: Wavelengths
Number of Pixels in Spectrum: 1024
>>>>>Begin Spectral Data<<<<<
801.071	28618
801.214	28424
801.356	28192
801.499	28067
801.641	28074
801.783	28002
801.926	28013
802.068	28101
802.211	27797
802.353	28010
802.496	27736
802.638	27679
802.78	27545
802.923	27622
803.065	27641
803.208	27622
803.35	27789
803.492	27835
803.635	27960
803.777	27903
803.919	27857
804.061	28329
804.204	28036
804.346	27827
804.488	27854
804.63	27987
804.773	27861
804.915	27937
805.057	27953
805.199	27960
805.341	27869
805.483	28082
805.626	28063
805.768	28021
805.91	27991
806.052	28173
806.194	27937
806.336	28139
806.478	28082
806.62	28162
806.762	28352
806.904	28337
807.046	28683
807.188	28542
807.33	28417
807.472	28557
807.614	28500
807.756	28443
807.898	28223
808.04	28344
808.182	28215
808.324	28390
808.465	28542
808.607	28706
808.749	28649
808.891	28896
809.033	28885
809.174	28763
809.316	28759
809.458	28740
809.6	28801
809.741	28923
809.883	28911
810.025	29044
810.166	29044
810.308	29204
810.45	28934
810.591	28839
810.733	28854
810.875	28782
811.016	28653
811.158	28736
811.299	29037
811.441	28900
811.582	28915
811.724	28858
811.865	28672
812.007	28729
812.148	28694
812.29	28736
812.431	29109
812.573	29143
812.714	29261
812.855	29326
812.997	29501
813.138	29691
813.279	29387
813.421	29204
813.562	29246
813.703	29102
813.845	28991
813.986	28839
814.127	28569
814.268	28462
814.41	28557
814.551	28318
814.692	28512
814.833	28352
814.974	28485
815.115	28527
815.256	28474
815.397	28386
815.539	28398
815.68	28280
815.821	28196
815.962	28337
816.103	28432
816.244	28219
816.385	28025
816.526	28029
816.666	27930
816.807	27778
816.948	27823
817.089	27895
817.23	27850
817.371	27816
817.512	27747
817.653	27808
817.793	27827
817.934	27743
818.075	27854
818.216	27705
818.356	27724
818.497	27701
818.638	27439
818.778	27431
818.919	27481
819.06	27648
819.2	27644
819.341	27812
819.481	27682
819.622	27987
819.762	28185
819.903	27998
820.043	27884
820.184	28002
820.324	27937
820.465	28059
820.605	27972
820.746	27869
820.886	27857
821.026	27941
821.167	27838
821.307	27907
821.447	27774
821.588	27713
821.728	27679
821.868	27557
822.008	27252
822.149	27237
822.289	27344
822.429	27051
822.569	26921
822.709	27036
822.849	26746
822.99	26724
823.13	26750
823.27	26708
823.41	26613
823.55	26374
823.69	26598
823.83	26708
823.97	26492
824.11	26400
824.25	26438
824.389	26305
824.529	26480
824.669	26469
824.809	26549
824.949	26549
825.089	26511
825.228	26583
825.368	26305
825.508	26294
825.648	26381
825.787	26324
825.927	26381
826.067	26119
826.206	26370
826.346	26305
826.485	26278
826.625	26355
826.765	26438
826.904	26339
827.044	26039
827.183	26142
827.323	26130
827.462	26046
827.601	26100
827.741	25887
827.88	26035
828.02	25928
828.159	25932
828.298	26024
828.437	26058
828.577	25944
828.716	26126
828.855	26005
828.994	25712
829.134	25662
829.273	25693
829.412	25742
829.551	25632
829.69	25723
829.829	25727
829.968	25830
830.107	25795
830.246	25734
830.385	25655
830.524	25624
830.663	25518
830.802	25426
830.941	25438
831.08	25259
831.219	25396
831.357	25457
831.496	25540
831.635	25255
831.774	25198
831.913	25118
832.051	25103
832.19	25080
832.329	25080
832.467	25050
832.606	24947
832.744	25069
832.883	25019
833.022	24901
833.16	25042
833.299	25080
833.437	24985
833.576	25099
833.714	24901
833.852	25164
833.991	25107
834.129	25209
834.267	25228
834.406	25050
834.544	25080
834.682	25042
834.821	25012
834.959	25198
835.097	24947
835.235	25076
835.373	25004
835.511	24996
835.65	24817
835.788	24985
835.926	24837
836.064	24760
836.202	24806
836.34	24913
836.478	24943
836.615	24806
836.753	24939
836.891	24989
837.029	24920
837.167	24757
837.305	24776
837.443	24783
837.58	24738
837.718	24791
837.856	24768
837.993	24654
838.131	24688
838.269	24536
838.406	24627
838.544	24490
838.681	24285
838.819	24350
838.956	24194
839.094	24117
839.231	24159
839.369	24342
839.506	24540
839.643	24380
839.781	24148
839.918	24049
840.055	24258
840.193	24064
840.33	24018
840.467	24022
840.604	24136
840.742	24247
840.879	23897
841.016	24098
841.153	23863
841.29	24064
841.427	23996
841.564	24201
841.701	24171
841.838	24034
841.975	23939
842.112	23992
842.249	24041
842.385	23786
842.522	24095
842.659	23859
842.796	23821
842.933	23855
843.069	23882
843.206	23843
843.343	23870
843.479	23847
843.616	23794
843.752	23638
843.889	23718
844.025	23786
844.162	23627
844.298	23764
844.435	23600
844.571	23535
844.708	23676
844.844	23653
844.98	23813
845.117	23710
845.253	23627
845.389	23391
845.525	23425
845.661	23570
845.798	23398
845.934	23269
846.07	23239
846.206	23349
846.342	23554
846.478	23254
846.614	23220
846.75	22957
846.886	23098
847.022	23147
847.158	23094
847.294	23037
847.429	23098
847.565	23010
847.701	23212
847.837	22759
847.972	22767
848.108	22881
848.244	22831
848.379	22721
848.515	22637
848.65	22592
848.786	22702
848.921	22645
849.057	22683
849.192	22630
849.328	22592
849.463	22675
849.598	22656
849.734	22588
849.869	22405
850.004	22478
850.14	22527
850.275	22462
850.41	22459
850.545	22405
850.68	22234
850.815	22527
850.95	22462
851.085	22653
851.22	22489
851.355	22382
851.49	22314
851.625	22382
851.76	22325
851.895	22341
852.03	22272
852.165	22367
852.299	22325
852.434	22493
852.569	22344
852.703	22382
852.838	22554
852.973	22630
853.107	22440
853.242	22341
853.376	22249
853.511	22154
853.645	22215
853.78	22390
853.914	22318
854.048	22249
854.183	22303
854.317	22314
854.451	22531
854.585	22223
854.72	22318
854.854	22295
854.988	22188
855.122	22150
855.256	22181
855.39	22287
855.524	22299
855.658	22360
855.792	22329
855.926	22120
856.06	22253
856.194	22333
856.327	22257
856.461	22143
856.595	22310
856.729	22215
856.862	22276
856.996	22314
857.13	22268
857.263	22299
857.397	22417
857.53	22211
857.664	22287
857.797	22310
857.931	22287
858.064	22337
858.197	22306
858.331	22268
858.464	22280
858.597	22074
858.731	22150
858.864	22226
858.997	22177
859.13	22341
859.263	22265
859.396	22367
859.529	22185
859.662	22185
859.795	22253
859.928	22185
860.061	22428
860.194	22325
860.327	22322
860.46	22265
860.592	22398
860.725	22382
860.858	22348
860.99	22341
861.123	22147
861.256	22166
861.388	22238
861.521	22904
861.653	22082
861.786	22032
861.918	22063
862.05	22128
862.183	22166
862.315	22196
862.447	22249
862.58	22078
862.712	21994
862.844	21899
862.976	22188
863.108	21968
863.24	22421
863.372	21930
863.504	22090
863.636	22021
863.768	22070
863.9	21922
864.032	21915
864.164	21869
864.296	21922
864.428	21960
864.559	22036
864.691	21975
864.823	22006
864.954	21876
865.086	21994
865.217	21903
865.349	21770
865.48	21911
865.612	21762
865.743	21850
865.875	21842
866.006	21778
866.137	21865
866.269	21831
866.4	21945
866.531	21774
866.662	21720
866.793	21713
866.924	21831
867.055	21838
867.186	21800
867.317	21770
867.448	21774
867.579	21770
867.71	21770
867.841	21625
867.972	21728
868.103	21603
868.233	21774
868.364	21800
868.495	21892
868.625	21991
868.756	22105
868.886	21998
869.017	22040
869.147	22169
869.278	22036
869.408	22025
869.539	21949
869.669	21945
869.799	22097
869.929	22188
870.06	22055
870.19	22226
870.32	22287
870.45	22325
870.58	22443
870.71	22523
870.84	22519
870.97	22329
871.1	22443
871.23	22599
871.36	22622
871.489	22557
871.619	22607
871.749	22656
871.879	22668
872.008	22778
872.138	22683
872.267	22668
872.397	22523
872.526	22421
872.656	22386
872.785	22500
872.915	22675
873.044	22630
873.173	22637
873.303	22664
873.432	22607
873.561	22698
873.69	22542
873.819	22675
873.948	22778
874.077	22641
874.206	22698
874.335	22580
874.464	22653
874.593	22816
874.722	22858
874.851	22877
874.979	22927
875.108	22812
875.237	22672
875.365	22611
875.494	22927
875.623	22866
875.751	22763
875.88	22923
876.008	23003
876.136	23083
876.265	23322
876.393	23311
876.521	23356
876.65	23269
876.778	23326
876.906	23273
877.034	23239
877.162	23326
877.29	23109
877.418	23216
877.546	23246
877.674	23284
877.802	23189
877.93	23250
878.058	23151
878.185	23083
878.313	23197
878.441	23090
878.568	23022
878.696	23117
878.824	23060
878.951	23223
879.079	23372
879.206	23455
879.333	23429
879.461	23155
879.588	23246
879.715	23334
879.842	23551
879.97	23227
880.097	23060
880.224	22957
880.351	23109
880.478	23098
880.605	23003
880.732	23014
880.859	23353
880.986	23060
881.112	22961
881.239	22885
881.366	22759
881.493	22577
881.619	22596
881.746	22641
881.872	22573
881.999	22481
882.125	22660
882.252	22599
882.378	22626
882.505	22683
882.631	22382
882.757	22322
882.883	22261
883.01	22265
883.136	22200
883.262	22135
883.388	21991
883.514	22379
883.64	22261
883.766	22185
883.892	21934
884.018	21998
884.143	22211
884.269	22287
884.395	22013
884.52	21800
884.646	22040
884.772	21838
884.897	21873
885.023	21884
885.148	22010
885.274	22017
885.399	21918
885.524	21850
885.65	22051
885.775	21873
885.9	21915
886.025	21937
886.15	21964
886.275	21774
886.4	21823
886.525	21766
886.65	21869
886.775	21861
886.9	21994
887.025	21972
887.149	21831
887.274	21785
887.399	21637
887.523	21641
887.648	21576
887.773	21614
887.897	21705
888.021	21717
888.146	21534
888.27	21747
888.395	21720
888.519	21599
888.643	21690
888.767	21610
888.891	21507
889.015	21325
889.139	21606
889.263	21344
889.387	21492
889.511	21690
889.635	21549
889.759	21397
889.883	21370
890.006	21408
890.13	21412
890.254	21469
890.377	21469
890.501	21241
890.624	21093
890.748	21176
890.871	21119
890.995	20998
891.118	20971
891.241	20971
891.364	21043
891.488	21165
891.611	21062
891.734	21093
891.857	21146
891.98	20937
892.103	20880
892.226	20986
892.349	20998
892.471	20876
892.594	20982
892.717	20899
892.839	20880
892.962	20990
893.085	20967
893.207	20952
893.33	20762
893.452	20845
893.575	20857
893.697	20895
893.819	21017
893.941	21089
894.064	20956
894.186	20788
894.308	20781
894.43	20994
894.552	20902
894.674	20891
894.796	20819
894.918	20781
895.04	20956
895.161	20929
895.283	20971
895.405	20811
895.526	20819
895.648	20834
895.769	20830
895.891	20861
896.012	20754
896.134	20861
896.255	20891
896.376	20800
896.498	20777
896.619	20914
896.74	20944
896.861	20899
896.982	21150
897.103	21329
897.224	21142
897.345	21195
897.466	21081
897.587	21165
897.708	21275
897.828	21096
897.949	21036
898.07	20796
898.19	20937
898.311	21077
898.431	20998
898.552	21051
898.672	21070
898.792	21028
898.913	21218
899.033	20838
899.153	20876
899.273	20750
899.393	20754
899.513	20883
899.633	20754
899.753	20712
899.873	20636
899.993	20769
900.113	20674
900.232	20792
900.352	20796
900.472	20587
900.591	20446
900.711	20648
900.83	20438
900.95	20674
901.069	20678
901.189	20419
901.308	20202
901.427	20229
901.546	20172
901.665	20172
901.784	20229
901.904	19982
902.023	19951
902.141	19704
902.26	19704
902.379	19765
902.498	19658
902.617	19655
902.735	19753
902.854	19571
902.973	19658
903.091	19403
903.21	19289
903.328	19365
903.446	19244
903.565	19091
903.683	19179
903.801	19069
903.919	19084
904.038	19103
904.156	18886
904.274	18924
904.392	18882
904.51	18920
904.627	18757
904.745	19000
904.863	18985
904.981	18730
905.098	18631
905.216	18566
905.334	18555
905.451	18578
905.569	18452
905.686	18612
905.803	18540
905.921	18296
906.038	18437
906.155	18372
906.272	18190
906.389	18190
906.506	18155
906.623	18174
906.74	18072
906.857	17874
906.974	18015
907.091	18140
907.208	18125
907.324	18087
907.441	17969
907.557	17745
907.674	17832
907.79	17767
907.907	17733
908.023	17863
908.139	17752
908.256	17726
908.372	17585
908.488	17592
908.604	17539
908.72	17570
908.836	17558
908.952	17463
909.068	17486
909.184	17596
909.3	17520
909.415	17402
909.531	17570
909.647	17277
909.762	17155
909.878	17143
909.993	17151
910.108	17067
910.224	17155
910.339	17155
910.454	17109
910.57	17041
910.685	16953
910.8	17220
910.915	17083
911.03	16980
911.145	16774
911.259	16778
911.374	16843
911.489	16626
911.604	16755
911.718	16523
911.833	16550
911.947	16504
912.062	16329
912.176	16519
912.291	16447
912.405	16485
912.519	16535
912.633	16607
912.748	16470
912.862	16382
912.976	16265
913.09	16253
913.204	16344
913.318	16246
913.431	16436
913.545	16341
913.659	16421
913.772	16299
913.886	16128
914	16101
914.113	16207
914.226	16181
914.34	16128
914.453	15975
914.566	16162
914.68	16120
914.793	15907
914.906	15762
915.019	15652
915.132	15713
915.245	15679
915.358	15713
915.47	15778
915.583	15755
915.696	15667
915.809	15819
915.921	15747
916.034	15660
916.146	15568
916.259	15641
916.371	15587
916.483	15637
916.595	15526
916.708	15538
916.82	15504
916.932	15553
917.044	15435
917.156	15462
917.268	15325
917.38	15382
917.491	15363
917.603	15359
917.715	15424
917.826	15374
917.938	15313
918.049	15188
918.161	15306
918.272	15408
918.384	15378
918.495	15207
918.606	15119
918.717	15081
918.828	15119
918.939	15104
919.05	15043
919.161	15066
919.272	14853
919.383	15028
919.494	15135
919.604	15260
919.715	15036
919.826	15039
919.936	15123
920.047	15119
920.157	15062
920.267	15195
920.378	15062
920.488	14975
920.598	15138
920.708	15313
920.818	15146
920.928	15066
921.038	15378
921.148	15260
921.258	14971
921.368	14880
921.477	14849
921.587	14762
921.697	14651
921.806	14811
921.916	14644
922.025	14461
922.134	14442
922.244	14320
922.353	14381
922.462	14187
922.571	14309
922.68	14103
922.789	14046
922.898	13997
923.007	14039
923.116	13982
923.224	14077
923.333	14062
923.442	13875
923.55	13909
923.659	13826
923.767	13909
923.876	13811
923.984	13936
924.092	13795
924.201	13803
924.309	13780
924.417	13765
924.525	13670
924.633	13731
924.741	14560
924.849	13426
924.956	13662
925.064	13460
925.172	13373
925.279	13460
925.387	13354
925.494	13464
925.602	13525
925.709	13540
925.816	13358
925.924	13464
926.031	13571
926.138	13411
926.245	13343
926.352	13206
926.459	13381
926.566	13464
926.673	13213
926.779	13164
926.886	13198
926.993	13031
927.099	12894
927.206	13008
927.312	12894
927.419	13050
927.525	12947
927.631	12962
927.737	12905
927.843	12776
927.95	12734
928.056	12817
928.162	12852
928.267	12840
928.373	13457
928.479	12886
928.585	12623
928.69	12867
928.796	12798
928.901	12730
929.007	12452
929.112	12620
929.218	12593
929.323	12559
929.428	12551
929.533	12574
929.638	12452
929.743	12498
929.848	12433
929.953	12376
930.058	12346
930.163	12133
930.267	12201
930.372	12369
930.477	12114
930.581	12243
930.685	12239
930.79	12038
930.894	12022
930.998	11969
931.103	12194
931.207	11859
931.311	11688
931.415	11634
931.519	11417
931.623	11398
