Data from test_V78500241_1621.txt Node
Date: Fri Mar 25 15:53:01 CST 2022
User: usil
Spectrometer: V785-0024
Trigger mode: 0
Integration Time (sec): 4.000000E-1
Scans to average: 1
Nonlinearity correction enabled: false
Boxcar width: 0
Storing dark spectrum: false
XAxis mode: Wavelengths
Number of Pixels in Spectrum: 1024
>>>>>Begin Spectral Data<<<<<
801.071	28234
801.214	28101
801.356	27987
801.499	27953
801.641	27770
801.783	27747
801.926	27918
802.068	27850
802.211	27660
802.353	27671
802.496	27507
802.638	27549
802.78	27367
802.923	27397
803.065	27279
803.208	27332
803.35	27488
803.492	27694
803.635	27698
803.777	27504
803.919	27603
804.061	27987
804.204	27648
804.346	27701
804.488	27523
804.63	27572
804.773	27572
804.915	27789
805.057	27861
805.199	27743
805.341	27713
805.483	27778
805.626	27804
805.768	27618
805.91	27903
806.052	27850
806.194	27778
806.336	27964
806.478	27861
806.62	27895
806.762	27827
806.904	28211
807.046	28360
807.188	28234
807.33	28234
807.472	28249
807.614	28287
807.756	28185
807.898	28253
808.04	28040
808.182	27968
808.324	28097
808.465	28200
808.607	28363
808.749	28523
808.891	28516
809.033	28546
809.174	28542
809.316	28478
809.458	28500
809.6	28443
809.741	28588
809.883	28519
810.025	28866
810.166	28698
810.308	28888
810.45	28984
810.591	28660
810.733	28577
810.875	28462
811.016	28337
811.158	28284
811.299	28489
811.441	28550
811.582	28557
811.724	28436
811.865	28542
812.007	28405
812.148	28436
812.29	28424
812.431	28641
812.573	28767
812.714	28953
812.855	29075
812.997	29044
813.138	29204
813.279	29064
813.421	29060
813.562	28900
813.703	28790
813.845	28637
813.986	28375
814.127	28272
814.268	28105
814.41	28242
814.551	28272
814.692	28280
814.833	28169
814.974	28150
815.115	28105
815.256	27975
815.397	28093
815.539	27964
815.68	28021
815.821	27983
815.962	28078
816.103	27975
816.244	27709
816.385	27648
816.526	27701
816.666	27523
816.807	27496
816.948	27530
817.089	27492
817.23	27530
817.371	27313
817.512	27355
817.653	27367
817.793	27420
817.934	27321
818.075	27496
818.216	27408
818.356	27439
818.497	27169
818.638	27180
818.778	27241
818.919	27226
819.06	27332
819.2	27272
819.341	27534
819.481	27507
819.622	27557
819.762	27762
819.903	27663
820.043	27614
820.184	27660
820.324	27561
820.465	27561
820.605	27466
820.746	27473
820.886	27618
821.026	27526
821.167	27492
821.307	27504
821.447	27389
821.588	27389
821.728	27226
821.868	27184
822.008	27028
822.149	27032
822.289	26842
822.429	26617
822.569	26556
822.709	26648
822.849	26419
822.99	26358
823.13	26336
823.27	26347
823.41	26275
823.55	26035
823.69	26176
823.83	26218
823.97	26176
824.11	26164
824.25	25890
824.389	26126
824.529	26172
824.669	26046
824.809	26115
824.949	26229
825.089	26176
825.228	26172
825.368	25902
825.508	25932
825.648	25932
825.787	26046
825.927	26096
826.067	25883
826.206	25879
826.346	26035
826.485	26096
826.625	25966
826.765	26092
826.904	26119
827.044	25696
827.183	25670
827.323	25704
827.462	25643
827.601	25704
827.741	25742
827.88	25715
828.02	25525
828.159	25563
828.298	25708
828.437	25704
828.577	25582
828.716	25765
828.855	25605
828.994	25381
829.134	25384
829.273	25327
829.412	25270
829.551	25327
829.69	25343
829.829	25335
829.968	25396
830.107	25354
830.246	25285
830.385	25228
830.524	25289
830.663	25038
830.802	25072
830.941	25004
831.08	25027
831.219	25031
831.357	24966
831.496	25297
831.635	24878
831.774	24810
831.913	24852
832.051	24749
832.19	24734
832.329	24726
832.467	24642
832.606	24513
832.744	24517
832.883	24486
833.022	24620
833.16	24650
833.299	24570
833.437	24665
833.576	24700
833.714	24589
833.852	24772
833.991	24646
834.129	24798
834.267	24745
834.406	24677
834.544	24635
834.682	24730
834.821	24513
834.959	24859
835.097	24608
835.235	24669
835.373	24673
835.511	24730
835.65	24578
835.788	24460
835.926	24365
836.064	24178
836.202	24410
836.34	24604
836.478	24661
836.615	24559
836.753	24505
836.891	24559
837.029	24505
837.167	24388
837.305	24350
837.443	24315
837.58	24357
837.718	24357
837.856	24380
837.993	24251
838.131	24300
838.269	24262
838.406	24209
838.544	24213
838.681	23942
838.819	23965
838.956	23798
839.094	23847
839.231	23855
839.369	23992
839.506	24083
839.643	24053
839.781	23847
839.918	23726
840.055	23741
840.193	23779
840.33	23714
840.467	23783
840.604	23805
840.742	24026
840.879	23600
841.016	23516
841.153	23665
841.29	23965
841.427	23672
841.564	23847
841.701	23589
841.838	23680
841.975	23623
842.112	23604
842.249	23535
842.385	23531
842.522	23745
842.659	23516
842.796	23490
842.933	23566
843.069	23372
843.206	23436
843.343	23490
843.479	23395
843.616	23334
843.752	23197
843.889	23284
844.025	23448
844.162	23124
844.298	23296
844.435	23242
844.571	23151
844.708	23193
844.844	23474
844.98	23391
845.117	23345
845.253	23098
845.389	23113
845.525	23231
845.661	23109
845.798	23044
845.934	22900
846.07	22976
846.206	23064
846.342	23151
846.478	23124
846.614	22740
846.75	22778
846.886	22664
847.022	22717
847.158	22675
847.294	22702
847.429	22755
847.565	22710
847.701	22908
847.837	22428
847.972	22500
848.108	22519
848.244	22542
848.379	22306
848.515	22230
848.65	22318
848.786	22405
848.921	22402
849.057	22367
849.192	22440
849.328	22325
849.463	22367
849.598	22344
849.734	22284
849.869	22238
850.004	22116
850.14	22154
850.275	22090
850.41	22021
850.545	21991
850.68	22078
850.815	22249
850.95	22086
851.085	22242
851.22	22185
851.355	22185
851.49	22086
851.625	22078
851.76	22044
851.895	21994
852.03	21937
852.165	22051
852.299	22109
852.434	22120
852.569	22185
852.703	22120
852.838	22154
852.973	22204
853.107	22280
853.242	22040
853.376	21884
853.511	21755
853.645	21915
853.78	22017
853.914	21892
854.048	21899
854.183	21892
854.317	21960
854.451	22086
854.585	21842
854.72	21937
854.854	21918
854.988	21899
855.122	21953
855.256	21759
855.39	21941
855.524	21945
855.658	21934
855.792	22086
855.926	21937
856.06	21998
856.194	22048
856.327	21728
856.461	21918
856.595	21876
856.729	21850
856.862	21975
856.996	21922
857.13	22017
857.263	22074
857.397	21991
857.53	21968
857.664	22013
857.797	22010
857.931	22090
858.064	21945
858.197	22006
858.331	21888
858.464	21899
858.597	21759
858.731	21915
858.864	21949
858.997	21823
859.13	21903
859.263	21869
859.396	21934
859.529	21930
859.662	21915
859.795	21861
859.928	21987
860.061	22120
860.194	22078
860.327	21964
860.46	22013
860.592	21979
860.725	21998
860.858	21983
860.99	21934
861.123	21880
861.256	21842
861.388	21827
861.521	22584
861.653	21739
861.786	21751
861.918	21690
862.05	21736
862.183	21876
862.315	21915
862.447	21846
862.58	21907
862.712	21614
862.844	21530
862.976	21667
863.108	21766
863.24	22048
863.372	21576
863.504	21553
863.636	21553
863.768	21671
863.9	21660
864.032	21557
864.164	21454
864.296	21500
864.428	21667
864.559	21564
864.691	21633
864.823	21595
864.954	21663
865.086	21583
865.217	21412
865.349	21511
865.48	21530
865.612	21606
865.743	21667
865.875	21504
866.006	21492
866.137	21568
866.269	21637
866.4	21496
866.531	21370
866.662	21310
866.793	21386
866.924	21671
867.055	21477
867.186	21393
867.317	21382
867.448	21233
867.579	21458
867.71	21340
867.841	21397
867.972	21397
868.103	21477
868.233	21466
868.364	21488
868.495	21671
868.625	21625
868.756	21694
868.886	21545
869.017	21694
869.147	21835
869.278	21819
869.408	21728
869.539	21717
869.669	21694
869.799	21663
869.929	21838
870.06	21724
870.19	21991
870.32	22044
870.45	21915
870.58	22048
870.71	22173
870.84	22131
870.97	22135
871.1	22101
871.23	22249
871.36	22322
871.489	22204
871.619	22223
871.749	22249
871.879	22333
872.008	22348
872.138	22272
872.267	22242
872.397	22185
872.526	22070
872.656	22128
872.785	22055
872.915	22303
873.044	22299
873.173	22314
873.303	22322
873.432	22360
873.561	22428
873.69	22276
873.819	22268
873.948	22440
874.077	22356
874.206	22192
874.335	22253
874.464	22428
874.593	22489
874.722	22440
874.851	22421
874.979	22561
875.108	22660
875.237	22428
875.365	22417
875.494	22554
875.623	22538
875.751	22474
875.88	22607
876.008	22653
876.136	22561
876.265	22999
876.393	22885
876.521	23044
876.65	23052
876.778	23067
876.906	22816
877.034	22752
877.162	22858
877.29	22828
877.418	22869
877.546	22885
877.674	22839
877.802	22862
877.93	22805
878.058	22729
878.185	22721
878.313	22843
878.441	22706
878.568	22706
878.696	22801
878.824	22900
878.951	22767
879.079	23064
879.206	23159
879.333	22927
879.461	22854
879.588	22805
879.715	23052
879.842	23143
879.97	22961
880.097	22748
880.224	22634
880.351	22634
880.478	22626
880.605	22668
880.732	22729
880.859	22869
880.986	22767
881.112	22611
881.239	22462
881.366	22371
881.493	22234
881.619	22207
881.746	22303
881.872	22280
881.999	22169
882.125	22268
882.252	22375
882.378	22287
882.505	22333
882.631	22051
882.757	21884
882.883	22150
883.01	21823
883.136	21819
883.262	21842
883.388	21736
883.514	21926
883.64	22029
883.766	21838
883.892	21671
884.018	21762
884.143	21922
884.269	21941
884.395	21511
884.52	21507
884.646	21637
884.772	21504
884.897	21462
885.023	21625
885.148	21633
885.274	21614
885.399	21583
885.524	21492
885.65	21515
885.775	21519
885.9	21580
886.025	21534
886.15	21717
886.275	21526
886.4	21393
886.525	21367
886.65	21485
886.775	21542
886.9	21625
887.025	21622
887.149	21538
887.274	21412
887.399	21306
887.523	21408
887.648	21245
887.773	21214
887.897	21321
888.021	21382
888.146	21176
888.27	21325
888.395	21450
888.519	21408
888.643	21310
888.767	21340
888.891	21279
889.015	21085
889.139	21154
889.263	21028
889.387	21264
889.511	21408
889.635	21283
889.759	21066
889.883	21188
890.006	21119
890.13	21214
890.254	21055
890.377	21085
890.501	20910
890.624	20845
890.748	20743
890.871	20689
890.995	20636
891.118	20598
891.241	20609
891.364	20644
891.488	20823
891.611	20678
891.734	20762
891.857	20727
891.98	20629
892.103	20785
892.226	20701
892.349	20648
892.471	20575
892.594	20655
892.717	20651
892.839	20583
892.962	20484
893.085	20746
893.207	20613
893.33	20465
893.452	20446
893.575	20545
893.697	20503
893.819	20705
893.941	20731
894.064	20746
894.186	20465
894.308	20374
894.43	20667
894.552	20689
894.674	20629
894.796	20469
894.918	20484
895.04	20549
895.161	20533
895.283	20579
895.405	20423
895.526	20514
895.648	20552
895.769	20625
895.891	20716
896.012	20731
896.134	20541
896.255	20617
896.376	20549
896.498	20564
896.619	20636
896.74	20549
896.861	20507
896.982	20876
897.103	21104
897.224	20830
897.345	20853
897.466	20754
897.587	20849
897.708	20902
897.828	20861
897.949	20830
898.07	20648
898.19	20682
898.311	20807
898.431	20720
898.552	20807
898.672	20819
898.792	20849
898.913	20750
899.033	20705
899.153	20602
899.273	20522
899.393	20560
899.513	20530
899.633	20469
899.753	20488
899.873	20518
899.993	20541
900.113	20423
900.232	20450
900.352	20377
900.472	20412
900.591	20282
900.711	20237
900.83	20267
900.95	20298
901.069	20317
901.189	20081
901.308	19959
901.427	19879
901.546	19898
901.665	19856
901.784	19860
901.904	19784
902.023	19616
902.141	19483
902.26	19312
902.379	19533
902.498	19419
902.617	19274
902.735	19381
902.854	19430
902.973	19312
903.091	19084
903.21	19206
903.328	19027
903.446	18844
903.565	18848
903.683	18878
903.801	18711
903.919	18802
904.038	18764
904.156	18665
904.274	18719
904.392	18601
904.51	18616
904.627	18703
904.745	18745
904.863	18616
904.981	18422
905.098	18281
905.216	18315
905.334	18323
905.451	18296
905.569	18323
905.686	18330
905.803	18277
905.921	18106
906.038	18019
906.155	18125
906.272	17977
906.389	18049
906.506	17745
906.623	17836
906.74	17703
906.857	17714
906.974	17737
907.091	17813
907.208	17904
907.324	17813
907.441	17737
907.557	17482
907.674	17619
907.79	17490
907.907	17459
908.023	17490
908.139	17471
908.256	17524
908.372	17417
908.488	17334
908.604	17326
908.72	17170
908.836	17090
908.952	17250
909.068	17239
909.184	17315
909.3	17235
909.415	17334
909.531	17193
909.647	16915
909.762	16862
909.878	16896
909.993	16927
910.108	16938
910.224	16797
910.339	16866
910.454	16733
910.57	16691
910.685	16691
910.8	16961
910.915	16790
911.03	16755
911.145	16584
911.259	16474
911.374	16565
911.489	16470
911.604	16394
911.718	16204
911.833	16253
911.947	16303
912.062	16135
912.176	16223
912.291	16318
912.405	16306
912.519	16390
912.633	16436
912.748	16249
912.862	16211
912.976	16055
913.09	15911
913.204	16090
913.318	16147
913.431	16215
913.545	16185
913.659	16246
913.772	16032
913.886	15918
914	15930
914.113	15907
914.226	15945
914.34	15895
914.453	15762
914.566	15884
914.68	15808
914.793	15660
914.906	15492
915.019	15488
915.132	15515
915.245	15405
915.358	15530
915.47	15519
915.583	15462
915.696	15435
915.809	15523
915.921	15587
916.034	15447
916.146	15275
916.259	15450
916.371	15359
916.483	15462
916.595	15340
916.708	15214
916.82	15260
916.932	15256
917.044	15291
917.156	15272
917.268	15138
917.38	15195
917.491	15085
917.603	15066
917.715	15184
917.826	15317
917.938	15093
918.049	15055
918.161	15058
918.272	15161
918.384	15188
918.495	15097
918.606	14933
918.717	14880
918.828	14925
918.939	15036
919.05	14758
919.161	14861
919.272	14583
919.383	14735
919.494	14952
919.604	14986
919.715	14899
919.826	14731
919.936	14819
920.047	14925
920.157	14880
920.267	15119
920.378	14834
920.488	14830
920.598	15020
920.708	15123
920.818	14990
920.928	14956
921.038	15233
921.148	15104
921.258	14845
921.368	14705
921.477	14625
921.587	14587
921.697	14446
921.806	14526
921.916	14450
922.025	14305
922.134	14206
922.244	14275
922.353	14221
922.462	14035
922.571	14024
922.68	13868
922.789	13818
922.898	13837
923.007	13731
923.116	13913
923.224	13852
923.333	13788
923.442	13658
923.55	13693
923.659	13795
923.767	13693
923.876	13636
923.984	13677
924.092	13594
924.201	13685
924.309	13632
924.417	13529
924.525	13533
924.633	13438
924.741	14499
924.849	13308
924.956	13426
925.064	13381
925.172	13259
925.279	13198
925.387	13240
925.494	13240
925.602	13392
925.709	13255
925.816	13213
925.924	13190
926.031	13285
926.138	13171
926.245	13263
926.352	13012
926.459	13141
926.566	13301
926.673	13129
926.779	12985
926.886	12924
926.993	12890
927.099	12848
927.206	12734
927.312	12875
927.419	12882
927.525	12882
927.631	12844
927.737	12696
927.843	12692
927.95	12597
928.056	12658
928.162	12681
928.267	12665
928.373	13251
928.479	12707
928.585	12410
928.69	12551
928.796	12715
928.901	12464
929.007	12350
929.112	12445
929.218	12467
929.323	12266
929.428	12311
929.533	12486
929.638	12254
929.743	12395
929.848	12285
929.953	12266
930.058	12129
930.163	12041
930.267	12064
930.372	12175
930.477	12038
930.581	12262
930.685	12106
930.79	11866
930.894	11916
930.998	11988
931.103	12030
931.207	11695
931.311	11535
931.415	11547
931.519	11292
931.623	11330
