Data from test_V78500241_99.txt Node
Date: Fri Mar 25 15:42:29 CST 2022
User: usil
Spectrometer: V785-0024
Trigger mode: 0
Integration Time (sec): 4.000000E-1
Scans to average: 1
Nonlinearity correction enabled: false
Boxcar width: 0
Storing dark spectrum: false
XAxis mode: Wavelengths
Number of Pixels in Spectrum: 1024
>>>>>Begin Spectral Data<<<<<
801.071	29752
801.214	29840
801.356	29596
801.499	29623
801.641	29277
801.783	29345
801.926	29402
802.068	29341
802.211	29379
802.353	29189
802.496	28949
802.638	29140
802.78	28854
802.923	28957
803.065	28812
803.208	28930
803.35	29128
803.492	29052
803.635	29117
803.777	29003
803.919	29193
804.061	29406
804.204	29170
804.346	29143
804.488	28957
804.63	29025
804.773	29086
804.915	29140
805.057	29227
805.199	29025
805.341	29151
805.483	29159
805.626	29147
805.768	29105
805.91	29216
806.052	29315
806.194	29269
806.336	29360
806.478	29246
806.62	29121
806.762	29318
806.904	29433
807.046	29710
807.188	29726
807.33	29463
807.472	29646
807.614	29581
807.756	29554
807.898	29375
808.04	29444
808.182	29444
808.324	29455
808.465	29436
808.607	29501
808.749	29764
808.891	29862
809.033	29889
809.174	29862
809.316	29809
809.458	29882
809.6	29611
809.741	29916
809.883	29882
810.025	29847
810.166	29954
810.308	30072
810.45	29916
810.591	29935
810.733	29771
810.875	29771
811.016	29592
811.158	29722
811.299	29866
811.441	30098
811.582	29843
811.724	29775
811.865	29570
812.007	29718
812.148	29623
812.29	29691
812.431	29935
812.573	30076
812.714	30152
812.855	30209
812.997	30270
813.138	30407
813.279	30171
813.421	30140
813.562	30273
813.703	29996
813.845	29878
813.986	29459
814.127	29368
814.268	29258
814.41	29322
814.551	29265
814.692	29353
814.833	29239
814.974	29303
815.115	29334
815.256	29200
815.397	29155
815.539	29189
815.68	29166
815.821	28881
815.962	29075
816.103	29064
816.244	28816
816.385	28816
816.526	28672
816.666	28641
816.807	28424
816.948	28557
817.089	28580
817.23	28527
817.371	28341
817.512	28428
817.653	28363
817.793	28481
817.934	28284
818.075	28417
818.216	28363
818.356	28417
818.497	28322
818.638	28040
818.778	28036
818.919	28093
819.06	28150
819.2	28344
819.341	28382
819.481	28356
819.622	28417
819.762	28691
819.903	28557
820.043	28405
820.184	28341
820.324	28424
820.465	28512
820.605	28508
820.746	28379
820.886	28306
821.026	28500
821.167	28356
821.307	28409
821.447	28386
821.588	28215
821.728	28181
821.868	27895
822.008	27709
822.149	27797
822.289	27793
822.429	27488
822.569	27515
822.709	27443
822.849	27298
822.99	27332
823.13	27188
823.27	27173
823.41	26902
823.55	26891
823.69	26998
823.83	27039
823.97	26853
824.11	26864
824.25	26826
824.389	26762
824.529	26727
824.669	26697
824.809	26956
824.949	26804
825.089	26910
825.228	26758
825.368	26705
825.508	26693
825.648	26617
825.787	26682
825.927	26617
826.067	26598
826.206	26613
826.346	26629
826.485	26568
826.625	26511
826.765	26777
826.904	26579
827.044	26453
827.183	26332
827.323	26343
827.462	26309
827.601	26328
827.741	26324
827.88	26294
828.02	26088
828.159	26263
828.298	26267
828.437	26309
828.577	26138
828.716	26317
828.855	26195
828.994	25909
829.134	25887
829.273	25970
829.412	25811
829.551	25925
829.69	25871
829.829	25906
829.968	25993
830.107	25963
830.246	25986
830.385	25826
830.524	25746
830.663	25578
830.802	25544
830.941	25449
831.08	25468
831.219	25441
831.357	25563
831.496	25677
831.635	25491
831.774	25320
831.913	25198
832.051	25320
832.19	25198
832.329	25164
832.467	24981
832.606	24973
832.744	25050
832.883	24996
833.022	25023
833.16	24981
833.299	25012
833.437	25012
833.576	25145
833.714	25175
833.852	25046
833.991	25069
834.129	25065
834.267	25095
834.406	25129
834.544	25076
834.682	25046
834.821	24939
834.959	25164
835.097	24894
835.235	25038
835.373	25046
835.511	25042
835.65	24947
835.788	24863
835.926	24783
836.064	24696
836.202	24734
836.34	24783
836.478	24886
836.615	24776
836.753	24829
836.891	24897
837.029	24894
837.167	24665
837.305	24741
837.443	24703
837.58	24578
837.718	24703
837.856	24757
837.993	24604
838.131	24597
838.269	24578
838.406	24528
838.544	24433
838.681	24159
838.819	24209
838.956	24095
839.094	24125
839.231	23996
839.369	24296
839.506	24578
839.643	24304
839.781	24114
839.918	24064
840.055	23977
840.193	23984
840.33	23889
840.467	23908
840.604	24057
840.742	24232
840.879	23961
841.016	23893
841.153	23859
841.29	24030
841.427	23935
841.564	23958
841.701	23912
841.838	23889
841.975	23672
842.112	23863
842.249	23703
842.385	23718
842.522	23893
842.659	23653
842.796	23589
842.933	23707
843.069	23531
843.206	23478
843.343	23714
843.479	23577
843.616	23600
843.752	23372
843.889	23398
844.025	23509
844.162	23326
844.298	23345
844.435	23353
844.571	23208
844.708	23463
844.844	23436
844.98	23368
845.117	23372
845.253	23318
845.389	23178
845.525	23227
845.661	23254
845.798	23121
845.934	23090
846.07	23010
846.206	23048
846.342	22991
846.478	22961
846.614	22710
846.75	22755
846.886	22790
847.022	22797
847.158	22812
847.294	22801
847.429	22786
847.565	22854
847.701	22900
847.837	22417
847.972	22512
848.108	22470
848.244	22512
848.379	22348
848.515	22314
848.65	22272
848.786	22261
848.921	22318
849.057	22303
849.192	22341
849.328	22341
849.463	22284
849.598	22253
849.734	22166
849.869	22200
850.004	22078
850.14	22021
850.275	21991
850.41	21922
850.545	22021
850.68	22059
850.815	21968
850.95	22116
851.085	22143
851.22	22181
851.355	22131
851.49	22013
851.625	22086
851.76	21994
851.895	21857
852.03	21895
852.165	22128
852.299	22021
852.434	22063
852.569	22040
852.703	22048
852.838	22086
852.973	22101
853.107	22013
853.242	21907
853.376	21838
853.511	21789
853.645	21755
853.78	21899
853.914	21747
854.048	21816
854.183	21835
854.317	21808
854.451	21903
854.585	21781
854.72	21762
854.854	21876
854.988	21679
855.122	21808
855.256	21572
855.39	21823
855.524	21926
855.658	21892
855.792	21781
855.926	21823
856.06	21800
856.194	21823
856.327	21899
856.461	21682
856.595	21876
856.729	21789
856.862	21888
856.996	21774
857.13	21793
857.263	21903
857.397	21778
857.53	21671
857.664	21876
857.797	21781
857.931	21724
858.064	21797
858.197	21865
858.331	21660
858.464	21701
858.597	21606
858.731	21816
858.864	21743
858.997	21625
859.13	21709
859.263	21679
859.396	21842
859.529	21545
859.662	21736
859.795	21610
859.928	21671
860.061	21857
860.194	21956
860.327	21728
860.46	21736
860.592	21751
860.725	21812
860.858	21778
860.99	21686
861.123	21599
861.256	21667
861.388	21625
861.521	22192
861.653	21614
861.786	21530
861.918	21504
862.05	21698
862.183	21838
862.315	21637
862.447	21831
862.58	21679
862.712	21576
862.844	21439
862.976	21595
863.108	21481
863.24	21865
863.372	21287
863.504	21363
863.636	21393
863.768	21599
863.9	21359
864.032	21195
864.164	21291
864.296	21298
864.428	21481
864.559	21466
864.691	21454
864.823	21348
864.954	21325
865.086	21378
865.217	21317
865.349	21260
865.48	21332
865.612	21226
865.743	21355
865.875	21294
866.006	21294
866.137	21340
866.269	21275
866.4	21264
866.531	21142
866.662	21157
866.793	21161
866.924	21036
867.055	21230
867.186	21272
867.317	21176
867.448	21077
867.579	21089
867.71	21058
867.841	21074
867.972	21260
868.103	21157
868.233	21218
868.364	21310
868.495	21283
868.625	21401
868.756	21542
868.886	21420
869.017	21488
869.147	21458
869.278	21534
869.408	21507
869.539	21538
869.669	21431
869.799	21439
869.929	21481
870.06	21534
870.19	21663
870.32	21656
870.45	21823
870.58	21930
870.71	21831
870.84	21987
870.97	21732
871.1	21854
871.23	22025
871.36	22006
871.489	21953
871.619	22029
871.749	21972
871.879	22131
872.008	22109
872.138	22082
872.267	22029
872.397	22017
872.526	21812
872.656	21945
872.785	21808
872.915	22013
873.044	22112
873.173	22006
873.303	22131
873.432	22082
873.561	22173
873.69	22109
873.819	21998
873.948	22181
874.077	21937
874.206	22082
874.335	22116
874.464	22204
874.593	22295
874.722	22226
874.851	22242
874.979	22253
875.108	22402
875.237	22150
875.365	22234
875.494	22367
875.623	22402
875.751	22287
875.88	22337
876.008	22432
876.136	22561
876.265	22801
876.393	22801
876.521	22675
876.65	22740
876.778	22664
876.906	22637
877.034	22550
877.162	22702
877.29	22577
877.418	22577
877.546	22645
877.674	22603
877.802	22573
877.93	22569
878.058	22645
878.185	22432
878.313	22550
878.441	22577
878.568	22375
878.696	22569
878.824	22588
878.951	22717
879.079	22771
879.206	22885
879.333	22847
879.461	22577
879.588	22660
879.715	22721
879.842	22892
879.97	22672
880.097	22508
880.224	22371
880.351	22443
880.478	22493
880.605	22447
880.732	22363
880.859	22717
880.986	22379
881.112	22436
881.239	22337
881.366	22177
881.493	22139
881.619	22036
881.746	22150
881.872	21975
881.999	21911
882.125	21956
882.252	22067
882.378	21994
882.505	22131
882.631	21945
882.757	21838
882.883	21778
883.01	21759
883.136	21682
883.262	21660
883.388	21477
883.514	21671
883.64	21789
883.766	21671
883.892	21469
884.018	21599
884.143	21743
884.269	21812
884.395	21435
884.52	21256
884.646	21447
884.772	21332
884.897	21306
885.023	21370
885.148	21488
885.274	21477
885.399	21401
885.524	21336
885.65	21393
885.775	21275
885.9	21458
886.025	21500
886.15	21416
886.275	21351
886.4	21123
886.525	21287
886.65	21222
886.775	21214
886.9	21511
887.025	21515
887.149	21272
887.274	21161
887.399	21100
887.523	21036
887.648	21062
887.773	20956
887.897	21119
888.021	21161
888.146	21005
888.27	21100
888.395	21222
888.519	21036
888.643	21055
888.767	21108
888.891	20891
889.015	20929
889.139	20925
889.263	20838
889.387	20925
889.511	21036
889.635	21051
889.759	20925
889.883	20792
890.006	20735
890.13	20899
890.254	20819
890.377	20727
890.501	20655
890.624	20560
890.748	20670
890.871	20564
890.995	20446
891.118	20290
891.241	20396
891.364	20465
891.488	20606
891.611	20457
891.734	20454
891.857	20473
891.98	20461
892.103	20507
892.226	20377
892.349	20328
892.471	20252
892.594	20370
892.717	20343
892.839	20202
892.962	20278
893.085	20336
893.207	20355
893.33	20218
893.452	20218
893.575	20454
893.697	20396
893.819	20530
893.941	20530
894.064	20461
894.186	20298
894.308	20305
894.43	20533
894.552	20419
894.674	20404
894.796	20202
894.918	20271
895.04	20206
895.161	20305
895.283	20427
895.405	20195
895.526	20381
895.648	20339
895.769	20400
895.891	20385
896.012	20457
896.134	20396
896.255	20286
896.376	20415
896.498	20434
896.619	20461
896.74	20423
896.861	20473
896.982	20861
897.103	20891
897.224	20606
897.345	20590
897.466	20606
897.587	20545
897.708	20754
897.828	20606
897.949	20446
898.07	20377
898.19	20503
898.311	20651
898.431	20480
898.552	20552
898.672	20648
898.792	20590
898.913	20511
899.033	20374
899.153	20267
899.273	20100
899.393	20237
899.513	20199
899.633	20294
899.753	20206
899.873	20115
899.993	20305
900.113	20153
900.232	20183
900.352	20214
900.472	20130
900.591	20012
900.711	20096
900.83	19978
900.95	20088
901.069	20111
901.189	20016
901.308	19723
901.427	19601
901.546	19632
901.665	19609
901.784	19571
901.904	19537
902.023	19343
902.141	19164
902.26	19023
902.379	19171
902.498	19114
902.617	19080
902.735	19129
902.854	19126
902.973	19027
903.091	18791
903.21	18745
903.328	18696
903.446	18715
903.565	18612
903.683	18566
903.801	18479
903.919	18422
904.038	18490
904.156	18319
904.274	18330
904.392	18296
904.51	18369
904.627	18361
904.745	18384
904.863	18327
904.981	18011
905.098	17988
905.216	17935
905.334	18038
905.451	18026
905.569	18019
905.686	18102
905.803	17961
905.921	17745
906.038	17920
906.155	17813
906.272	17687
906.389	17695
906.506	17520
906.623	17516
906.74	17459
906.857	17307
906.974	17349
907.091	17630
907.208	17585
907.324	17570
907.441	17406
907.557	17227
907.674	17174
907.79	17086
907.907	17064
908.023	17185
908.139	17231
908.256	17064
908.372	16999
908.488	16976
908.604	16942
908.72	16850
908.836	16877
908.952	16805
909.068	16805
909.184	16976
909.3	16831
909.415	16900
909.531	16763
909.647	16542
909.762	16653
909.878	16561
909.993	16512
910.108	16527
910.224	16485
910.339	16440
910.454	16310
910.57	16341
910.685	16169
910.8	16504
910.915	16516
911.03	16363
911.145	16055
911.259	16074
911.374	16128
911.489	16017
911.604	15960
911.718	15888
911.833	15869
911.947	15781
912.062	15785
912.176	15857
912.291	15857
912.405	15899
912.519	16063
912.633	15987
912.748	15964
912.862	15800
912.976	15652
913.09	15549
913.204	15660
913.318	15675
913.431	15728
913.545	15751
913.659	15686
913.772	15545
913.886	15538
914	15458
914.113	15584
914.226	15538
914.34	15523
914.453	15291
914.566	15462
914.68	15412
914.793	15351
914.906	15123
915.019	15036
915.132	14986
915.245	15135
915.358	15192
915.47	15104
915.583	15135
915.696	15070
915.809	15176
915.921	15176
916.034	15039
916.146	14921
916.259	14921
916.371	15055
916.483	15001
916.595	14891
916.708	14899
916.82	14918
916.932	14830
917.044	14853
917.156	14838
917.268	14708
917.38	14739
917.491	14705
917.603	14746
917.715	14823
917.826	14819
917.938	14594
918.049	14579
918.161	14727
918.272	14872
918.384	14724
918.495	14693
918.606	14564
918.717	14389
918.828	14564
918.939	14427
919.05	14374
919.161	14442
919.272	14180
919.383	14275
919.494	14530
919.604	14579
919.715	14419
919.826	14358
919.936	14400
920.047	14583
920.157	14457
920.267	14602
920.378	14381
920.488	14415
920.598	14629
920.708	14674
920.818	14507
920.928	14568
921.038	14682
921.148	14613
921.258	14366
921.368	14332
921.477	14164
921.587	14149
921.697	13993
921.806	14142
921.916	13989
922.025	13837
922.134	13830
922.244	13738
922.353	13890
922.462	13681
922.571	13666
922.68	13434
922.789	13419
922.898	13502
923.007	13327
923.116	13365
923.224	13282
923.333	13358
923.442	13255
923.55	13297
923.659	13225
923.767	13335
923.876	13160
923.984	13304
924.092	13088
924.201	13232
924.309	13190
924.417	13099
924.525	13084
924.633	13129
924.741	13909
924.849	12867
924.956	13110
925.064	12913
925.172	12806
925.279	12928
925.387	12817
925.494	12825
925.602	13027
925.709	12894
925.816	12776
925.924	12844
926.031	12913
926.138	12760
926.245	12943
926.352	12677
926.459	12859
926.566	12886
926.673	12684
926.779	12597
926.886	12547
926.993	12399
927.099	12452
927.206	12376
927.312	12327
927.419	12426
927.525	12448
927.631	12464
927.737	12323
927.843	12384
927.95	12224
928.056	12209
928.162	12228
928.267	12304
928.373	12947
928.479	12311
928.585	11996
928.69	12148
928.796	12209
928.901	12087
929.007	11897
929.112	12110
929.218	12072
929.323	11961
929.428	11961
929.533	12091
929.638	11870
929.743	12022
929.848	11992
929.953	11866
930.058	11813
930.163	11592
930.267	11630
930.372	11779
930.477	11486
930.581	11923
930.685	11688
930.79	11471
930.894	11467
930.998	11436
931.103	11638
931.207	11318
931.311	11159
931.415	11045
931.519	10927
931.623	10889
