Data from test_V78500241_3194.txt Node
Date: Fri Mar 25 16:03:55 CST 2022
User: usil
Spectrometer: V785-0024
Trigger mode: 0
Integration Time (sec): 4.000000E-1
Scans to average: 1
Nonlinearity correction enabled: false
Boxcar width: 0
Storing dark spectrum: false
XAxis mode: Wavelengths
Number of Pixels in Spectrum: 1024
>>>>>Begin Spectral Data<<<<<
801.071	28470
801.214	28246
801.356	28147
801.499	28086
801.641	27895
801.783	27987
801.926	28093
802.068	27968
802.211	27861
802.353	27823
802.496	27797
802.638	27743
802.78	27629
802.923	27507
803.065	27557
803.208	27713
803.35	27648
803.492	27907
803.635	27941
803.777	27804
803.919	27914
804.061	28226
804.204	27956
804.346	27873
804.488	27732
804.63	27930
804.773	27808
804.915	28010
805.057	28128
805.199	27922
805.341	28010
805.483	28086
805.626	27892
805.768	27987
805.91	28070
806.052	28112
806.194	27846
806.336	28219
806.478	28067
806.62	28162
806.762	28162
806.904	28371
807.046	28584
807.188	28531
807.33	28489
807.472	28478
807.614	28508
807.756	28634
807.898	28466
808.04	28242
808.182	28242
808.324	28497
808.465	28325
808.607	28561
808.749	28755
808.891	28805
809.033	28888
809.174	28839
809.316	28790
809.458	28717
809.6	28679
809.741	28904
809.883	28885
810.025	29052
810.166	28896
810.308	28968
810.45	28987
810.591	28896
810.733	28698
810.875	28763
811.016	28637
811.158	28713
811.299	28911
811.441	28908
811.582	28862
811.724	28694
811.865	28725
812.007	28641
812.148	28835
812.29	28866
812.431	28881
812.573	28999
812.714	29193
812.855	29334
812.997	29330
813.138	29573
813.279	29455
813.421	29242
813.562	29280
813.703	29041
813.845	28976
813.986	28649
814.127	28455
814.268	28375
814.41	28588
814.551	28371
814.692	28546
814.833	28519
814.974	28367
815.115	28485
815.256	28268
815.397	28207
815.539	28329
815.68	28314
815.821	28257
815.962	28249
816.103	28128
816.244	28090
816.385	28109
816.526	28124
816.666	27857
816.807	27720
816.948	27880
817.089	27964
817.23	27732
817.371	27778
817.512	27724
817.653	27785
817.793	27755
817.934	27663
818.075	27789
818.216	27713
818.356	27732
818.497	27622
818.638	27504
818.778	27610
818.919	27511
819.06	27420
819.2	27587
819.341	27774
819.481	27766
819.622	27934
819.762	28169
819.903	28131
820.043	27956
820.184	27865
820.324	27991
820.465	27968
820.605	27857
820.746	27865
820.886	27667
821.026	27842
821.167	27827
821.307	27842
821.447	27770
821.588	27739
821.728	27656
821.868	27405
822.008	27340
822.149	27294
822.289	27264
822.429	27108
822.569	26876
822.709	26944
822.849	26807
822.99	26739
823.13	26773
823.27	26781
823.41	26602
823.55	26488
823.69	26621
823.83	26568
823.97	26492
824.11	26259
824.25	26343
824.389	26339
824.529	26480
824.669	26298
824.809	26495
824.949	26514
825.089	26431
825.228	26442
825.368	26317
825.508	26298
825.648	26320
825.787	26294
825.927	26347
826.067	26374
826.206	26202
826.346	26259
826.485	26457
826.625	26195
826.765	26461
826.904	26320
827.044	25940
827.183	26035
827.323	25928
827.462	25974
827.601	26016
827.741	26027
827.88	26073
828.02	25814
828.159	26073
828.298	26039
828.437	26256
828.577	25871
828.716	26092
828.855	25845
828.994	25788
829.134	25635
829.273	25696
829.412	25597
829.551	25571
829.69	25643
829.829	25655
829.968	25818
830.107	25727
830.246	25651
830.385	25559
830.524	25499
830.663	25563
830.802	25407
830.941	25392
831.08	25209
831.219	25438
831.357	25510
831.496	25559
831.635	25194
831.774	25129
831.913	25168
832.051	25080
832.19	25091
832.329	25076
832.467	24890
832.606	24783
832.744	24909
832.883	24909
833.022	24916
833.16	24943
833.299	25004
833.437	24932
833.576	25023
833.714	25072
833.852	24989
833.991	25099
834.129	25213
834.267	24992
834.406	25088
834.544	25110
834.682	25019
834.821	24996
834.959	25213
835.097	24890
835.235	25061
835.373	25027
835.511	24913
835.65	24882
835.788	24913
835.926	24878
836.064	24715
836.202	24658
836.34	24726
836.478	24977
836.615	24844
836.753	24825
836.891	24840
837.029	24947
837.167	24798
837.305	24692
837.443	24745
837.58	24719
837.718	24715
837.856	24707
837.993	24707
838.131	24787
838.269	24574
838.406	24544
838.544	24540
838.681	24327
838.819	24456
838.956	24155
839.094	24068
839.231	24117
839.369	24429
839.506	24464
839.643	24365
839.781	24068
839.918	24091
840.055	24140
840.193	24079
840.33	24076
840.467	24076
840.604	24171
840.742	24232
840.879	23935
841.016	23969
841.153	23847
841.29	24079
841.427	23965
841.564	23996
841.701	23961
841.838	23992
841.975	23931
842.112	23954
842.249	23859
842.385	23874
842.522	24041
842.659	23980
842.796	23912
842.933	23889
843.069	23855
843.206	23775
843.343	23931
843.479	23775
843.616	23809
843.752	23604
843.889	23570
844.025	23726
844.162	23543
844.298	23630
844.435	23615
844.571	23414
844.708	23691
844.844	23798
844.98	23604
845.117	23649
845.253	23493
845.389	23421
845.525	23520
845.661	23433
845.798	23307
845.934	23417
846.07	23250
846.206	23349
846.342	23474
846.478	23315
846.614	23079
846.75	23003
846.886	23064
847.022	23121
847.158	23227
847.294	23056
847.429	23064
847.565	22972
847.701	23372
847.837	22767
847.972	22733
848.108	22839
848.244	22797
848.379	22793
848.515	22489
848.65	22736
848.786	22573
848.921	22618
849.057	22622
849.192	22752
849.328	22626
849.463	22656
849.598	22565
849.734	22451
849.869	22455
850.004	22421
850.14	22440
850.275	22394
850.41	22386
850.545	22363
850.68	22325
850.815	22508
850.95	22356
851.085	22542
851.22	22527
851.355	22455
851.49	22211
851.625	22303
851.76	22371
851.895	22284
852.03	22485
852.165	22470
852.299	22527
852.434	22478
852.569	22478
852.703	22451
852.838	22500
852.973	22485
853.107	22500
853.242	22318
853.376	22230
853.511	22036
853.645	22074
853.78	22325
853.914	22249
854.048	22185
854.183	22249
854.317	22257
854.451	22352
854.585	22048
854.72	22257
854.854	22310
854.988	22120
855.122	22215
855.256	22048
855.39	22211
855.524	22265
855.658	22135
855.792	22215
855.926	22291
856.06	22226
856.194	22219
856.327	22322
856.461	22219
856.595	22112
856.729	22192
856.862	22360
856.996	22238
857.13	22299
857.263	22459
857.397	22253
857.53	22135
857.664	22280
857.797	22265
857.931	22344
858.064	22314
858.197	22337
858.331	22223
858.464	22211
858.597	22169
858.731	22230
858.864	22143
858.997	22211
859.13	22257
859.263	22128
859.396	22242
859.529	22158
859.662	22322
859.795	22181
859.928	22318
860.061	22314
860.194	22409
860.327	22306
860.46	22246
860.592	22325
860.725	22394
860.858	22341
860.99	22291
861.123	22067
861.256	21994
861.388	22261
861.521	22820
861.653	22147
861.786	22010
861.918	22147
862.05	22139
862.183	22109
862.315	22268
862.447	22200
862.58	22169
862.712	21899
862.844	21819
862.976	22006
863.108	21937
863.24	22322
863.372	21987
863.504	21915
863.636	21922
863.768	22029
863.9	21850
864.032	21888
864.164	21975
864.296	21930
864.428	21857
864.559	22070
864.691	21937
864.823	21960
864.954	21987
865.086	21846
865.217	21960
865.349	21698
865.48	21823
865.612	21884
865.743	21895
865.875	21732
866.006	21720
866.137	21838
866.269	21785
866.4	21633
866.531	21663
866.662	21610
866.793	21686
866.924	21667
867.055	21797
867.186	21797
867.317	21816
867.448	21739
867.579	21637
867.71	21656
867.841	21652
867.972	21698
868.103	21747
868.233	21766
868.364	21785
868.495	21930
868.625	21953
868.756	22032
868.886	21899
869.017	21918
869.147	21994
869.278	21972
869.408	22010
869.539	21987
869.669	22070
869.799	22032
869.929	22010
870.06	22013
870.19	22276
870.32	22234
870.45	22398
870.58	22367
870.71	22500
870.84	22538
870.97	22409
871.1	22459
871.23	22649
871.36	22607
871.489	22500
871.619	22451
871.749	22546
871.879	22702
872.008	22649
872.138	22637
872.267	22516
872.397	22398
872.526	22371
872.656	22432
872.785	22382
872.915	22577
873.044	22759
873.173	22554
873.303	22626
873.432	22611
873.561	22744
873.69	22569
873.819	22504
873.948	22740
874.077	22694
874.206	22550
874.335	22626
874.464	22763
874.593	22740
874.722	22805
874.851	22839
874.979	22858
875.108	22980
875.237	22698
875.365	22641
875.494	22873
875.623	22938
875.751	22755
875.88	22782
876.008	22900
876.136	22881
876.265	23223
876.393	23372
876.521	23402
876.65	23414
876.778	23376
876.906	23083
877.034	23220
877.162	23212
877.29	23223
877.418	23239
877.546	23147
877.674	23227
877.802	23124
877.93	23185
878.058	23189
878.185	23162
878.313	23227
878.441	23105
878.568	22995
878.696	23102
878.824	23098
878.951	23231
879.079	23307
879.206	23402
879.333	23372
879.461	23181
879.588	23250
879.715	23273
879.842	23387
879.97	23303
880.097	22961
880.224	22915
880.351	23064
880.478	22942
880.605	22942
880.732	23025
880.859	23178
880.986	22930
881.112	23033
881.239	22698
881.366	22828
881.493	22580
881.619	22569
881.746	22542
881.872	22554
881.999	22436
882.125	22417
882.252	22664
882.378	22455
882.505	22615
882.631	22447
882.757	22329
882.883	22398
883.01	22253
883.136	22188
883.262	22112
883.388	21964
883.514	22394
883.64	22310
883.766	22196
883.892	21975
884.018	22063
884.143	22173
884.269	22284
884.395	21903
884.52	21934
884.646	21850
884.772	21873
884.897	21717
885.023	21865
885.148	22002
885.274	22059
885.399	21972
885.524	21930
885.65	22002
885.775	21873
885.9	21861
886.025	22025
886.15	21903
886.275	21945
886.4	21812
886.525	21819
886.65	21755
886.775	21743
886.9	21949
887.025	21983
887.149	21892
887.274	21671
887.399	21568
887.523	21667
887.648	21515
887.773	21530
887.897	21622
888.021	21682
888.146	21481
888.27	21686
888.395	21739
888.519	21747
888.643	21629
888.767	21694
888.891	21519
889.015	21363
889.139	21374
889.263	21405
889.387	21644
889.511	21530
889.635	21572
889.759	21321
889.883	21348
890.006	21374
890.13	21340
890.254	21348
890.377	21237
890.501	21169
890.624	20994
890.748	21249
890.871	21089
890.995	20883
891.118	20967
891.241	20982
891.364	20944
891.488	21039
891.611	21024
891.734	21077
891.857	20994
891.98	20925
892.103	21024
892.226	20982
892.349	20952
892.471	20739
892.594	20895
892.717	20902
892.839	20838
892.962	20902
893.085	20883
893.207	20796
893.33	20754
893.452	20807
893.575	20807
893.697	20918
893.819	21039
893.941	21051
894.064	20952
894.186	20781
894.308	20811
894.43	20842
894.552	20944
894.674	21051
894.796	20743
894.918	20933
895.04	20864
895.161	21104
895.283	20899
895.405	20724
895.526	20910
895.648	20857
895.769	20819
895.891	20921
896.012	20880
896.134	20937
896.255	20819
896.376	20727
896.498	20804
896.619	20872
896.74	20746
896.861	20861
896.982	21138
897.103	21268
897.224	21154
897.345	21047
897.466	21085
897.587	21100
897.708	21207
897.828	21116
897.949	21017
898.07	20929
898.19	20910
898.311	21085
898.431	20914
898.552	21157
898.672	21218
898.792	21062
898.913	21043
899.033	20872
899.153	20902
899.273	20724
899.393	20842
899.513	20815
899.633	20815
899.753	20815
899.873	20720
899.993	20807
900.113	20701
900.232	20788
900.352	20667
900.472	20743
900.591	20511
900.711	20511
900.83	20438
900.95	20575
901.069	20667
901.189	20495
901.308	20282
901.427	20103
901.546	20164
901.665	20077
901.784	20161
901.904	20039
902.023	19928
902.141	19727
902.26	19628
902.379	19765
902.498	19643
902.617	19548
902.735	19712
902.854	19590
902.973	19529
903.091	19350
903.21	19301
903.328	19350
903.446	19133
903.565	19065
903.683	18981
903.801	18928
903.919	18993
904.038	19099
904.156	18875
904.274	18867
904.392	18871
904.51	18829
904.627	18817
904.745	18973
904.863	18973
904.981	18559
905.098	18593
905.216	18490
905.334	18616
905.451	18483
905.569	18486
905.686	18494
905.803	18414
905.921	18292
906.038	18235
906.155	18315
906.272	18232
906.389	18258
906.506	18049
906.623	17992
906.74	18163
906.857	17912
906.974	17946
907.091	18045
907.208	18102
907.324	18079
907.441	17908
907.557	17756
907.674	17726
907.79	17630
907.907	17771
908.023	17786
908.139	17786
908.256	17589
908.372	17581
908.488	17771
908.604	17471
908.72	17444
908.836	17558
908.952	17486
909.068	17520
909.184	17558
909.3	17459
909.415	17520
909.531	17509
909.647	17162
909.762	17212
909.878	17200
909.993	17239
910.108	17193
910.224	17018
910.339	17102
910.454	17018
910.57	16923
910.685	16881
910.8	17208
910.915	17064
911.03	16968
911.145	16771
911.259	16892
911.374	16778
911.489	16793
911.604	16641
911.718	16519
911.833	16531
911.947	16440
912.062	16291
912.176	16500
912.291	16516
912.405	16516
912.519	16733
912.633	16713
912.748	16508
912.862	16489
912.976	16310
913.09	16124
913.204	16246
913.318	16295
913.431	16375
913.545	16341
913.659	16390
913.772	16207
913.886	16192
914	16135
914.113	16162
914.226	16249
914.34	16097
914.453	16097
914.566	16211
914.68	16162
914.793	15884
914.906	15808
915.019	15663
915.132	15603
915.245	15755
915.358	15675
915.47	15663
915.583	15709
915.696	15701
915.809	15759
915.921	15736
916.034	15496
916.146	15656
916.259	15595
916.371	15679
916.483	15584
916.595	15473
916.708	15469
916.82	15511
916.932	15462
917.044	15439
917.156	15439
917.268	15332
917.38	15397
917.491	15252
917.603	15439
917.715	15462
917.826	15370
917.938	15207
918.049	15154
918.161	15275
918.272	15367
918.384	15412
918.495	15317
918.606	15161
918.717	15020
918.828	15116
918.939	15116
919.05	14952
919.161	15009
919.272	15001
919.383	14876
919.494	15051
919.604	15233
919.715	15070
919.826	14979
919.936	15013
920.047	15077
920.157	15100
920.267	15214
920.378	14979
920.488	14975
920.598	15104
920.708	15317
920.818	15173
920.928	15131
921.038	15310
921.148	15180
921.258	14975
921.368	14883
921.477	14769
921.587	14830
921.697	14522
921.806	14762
921.916	14549
922.025	14488
922.134	14358
922.244	14320
922.353	14427
922.462	14267
922.571	14202
922.68	13982
922.789	13970
922.898	14069
923.007	13993
923.116	14005
923.224	14024
923.333	13940
923.442	13921
923.55	13803
923.659	13864
923.767	13871
923.876	13753
923.984	13963
924.092	13769
924.201	13757
924.309	13772
924.417	13693
924.525	13761
924.633	13700
924.741	14495
924.849	13468
924.956	13597
925.064	13586
925.172	13377
925.279	13510
925.387	13441
925.494	13476
925.602	13552
925.709	13396
925.816	13308
925.924	13331
926.031	13449
926.138	13384
926.245	13384
926.352	13213
926.459	13331
926.566	13335
926.673	13168
926.779	13122
926.886	13236
926.993	13019
927.099	13023
927.206	12966
927.312	12977
927.419	13023
927.525	12909
927.631	12981
927.737	12837
927.843	12848
927.95	12684
928.056	12776
928.162	12741
928.267	12791
928.373	13320
928.479	12871
928.585	12631
928.69	12658
928.796	12783
928.901	12623
929.007	12502
929.112	12650
929.218	12540
929.323	12456
929.428	12525
929.533	12612
929.638	12410
929.743	12403
929.848	12422
929.953	12384
930.058	12277
930.163	12163
930.267	12201
930.372	12311
930.477	12060
930.581	12391
930.685	12273
930.79	12060
930.894	12121
930.998	12019
931.103	12148
931.207	11805
931.311	11741
931.415	11573
931.519	11402
931.623	11516
