Data from test_V78500241_1230.txt Node
Date: Fri Mar 25 15:50:19 CST 2022
User: usil
Spectrometer: V785-0024
Trigger mode: 0
Integration Time (sec): 4.000000E-1
Scans to average: 1
Nonlinearity correction enabled: false
Boxcar width: 0
Storing dark spectrum: false
XAxis mode: Wavelengths
Number of Pixels in Spectrum: 1024
>>>>>Begin Spectral Data<<<<<
801.071	28736
801.214	28691
801.356	28474
801.499	28394
801.641	28238
801.783	28223
801.926	28344
802.068	28181
802.211	28147
802.353	28048
802.496	28124
802.638	28021
802.78	27914
802.923	27888
803.065	27922
803.208	28051
803.35	27918
803.492	28067
803.635	28139
803.777	27907
803.919	28188
804.061	28466
804.204	28162
804.346	28306
804.488	27884
804.63	28090
804.773	28021
804.915	28097
805.057	28394
805.199	28036
805.341	28344
805.483	28322
805.626	28280
805.768	28242
805.91	28356
806.052	28386
806.194	28318
806.336	28592
806.478	28352
806.62	28356
806.762	28500
806.904	28607
807.046	28725
807.188	28763
807.33	28869
807.472	28801
807.614	28694
807.756	28752
807.898	28694
808.04	28565
808.182	28664
808.324	28786
808.465	28831
808.607	28816
808.749	29113
808.891	29124
809.033	29311
809.174	29132
809.316	29083
809.458	29006
809.6	29006
809.741	29220
809.883	29265
810.025	29273
810.166	29326
810.308	29311
810.45	29288
810.591	29398
810.733	29151
810.875	29098
811.016	28984
811.158	29048
811.299	29197
811.441	29261
811.582	29265
811.724	29094
811.865	29029
812.007	29006
812.148	28953
812.29	29029
812.431	29261
812.573	29493
812.714	29520
812.855	29707
812.997	29726
813.138	29668
813.279	29790
813.421	29710
813.562	29516
813.703	29471
813.845	29212
813.986	28995
814.127	28919
814.268	28839
814.41	28824
814.551	28626
814.692	28729
814.833	28752
814.974	28755
815.115	28729
815.256	28778
815.397	28523
815.539	28634
815.68	28607
815.821	28512
815.962	28687
816.103	28573
816.244	28421
816.385	28512
816.526	28341
816.666	28173
816.807	28029
816.948	28135
817.089	28276
817.23	28158
817.371	28192
817.512	28078
817.653	28143
817.793	28063
817.934	28188
818.075	28162
818.216	28131
818.356	28169
818.497	28078
818.638	27789
818.778	27751
818.919	27709
819.06	27994
819.2	28078
819.341	28200
819.481	28173
819.622	28352
819.762	28489
819.903	28390
820.043	28253
820.184	28367
820.324	28272
820.465	28253
820.605	28265
820.746	28238
820.886	28040
821.026	28204
821.167	28150
821.307	28280
821.447	28147
821.588	28063
821.728	27850
821.868	27888
822.008	27770
822.149	27625
822.289	27656
822.429	27317
822.569	27367
822.709	27252
822.849	27119
822.99	27195
823.13	27093
823.27	27116
823.41	26979
823.55	26891
823.69	27066
823.83	26868
823.97	26921
824.11	26648
824.25	26667
824.389	26781
824.529	26758
824.669	26670
824.809	26769
824.949	26929
825.089	26899
825.228	26880
825.368	26488
825.508	26594
825.648	26629
825.787	26716
825.927	26655
826.067	26598
826.206	26689
826.346	26754
826.485	26693
826.625	26743
826.765	26754
826.904	26708
827.044	26469
827.183	26259
827.323	26377
827.462	26476
827.601	26419
827.741	26240
827.88	26332
828.02	26145
828.159	26362
828.298	26320
828.437	26408
828.577	26351
828.716	26332
828.855	26271
828.994	26164
829.134	26065
829.273	26111
829.412	26138
829.551	26081
829.69	25940
829.829	26119
829.968	26252
830.107	26111
830.246	25993
830.385	26077
830.524	25879
830.663	25925
830.802	25772
830.941	25731
831.08	25597
831.219	25826
831.357	25807
831.496	25875
831.635	25670
831.774	25563
831.913	25441
832.051	25510
832.19	25457
832.329	25460
832.467	25346
832.606	25187
832.744	25156
832.883	25373
833.022	25324
833.16	25293
833.299	25415
833.437	25384
833.576	25266
833.714	25324
833.852	25419
833.991	25453
834.129	25529
834.267	25343
834.406	25502
834.544	25381
834.682	25339
834.821	25460
834.959	25400
835.097	25270
835.235	25388
835.373	25331
835.511	25282
835.65	25247
835.788	25240
835.926	25107
836.064	24996
836.202	24996
836.34	25190
836.478	25213
836.615	25129
836.753	25084
836.891	25289
837.029	25160
837.167	25187
837.305	25240
837.443	25095
837.58	25065
837.718	25034
837.856	25095
837.993	24989
838.131	24932
838.269	24844
838.406	24859
838.544	24806
838.681	24639
838.819	24601
838.956	24498
839.094	24384
839.231	24601
839.369	24559
839.506	24852
839.643	24730
839.781	24505
839.918	24448
840.055	24509
840.193	24365
840.33	24418
840.467	24486
840.604	24365
840.742	24658
840.879	24304
841.016	24285
841.153	24213
841.29	24456
841.427	24292
841.564	24448
841.701	24292
841.838	24292
841.975	24262
842.112	24395
842.249	24186
842.385	24098
842.522	24357
842.659	24186
842.796	24209
842.933	24243
843.069	24049
843.206	24174
843.343	24197
843.479	23977
843.616	24068
843.752	23973
843.889	23798
844.025	23999
844.162	23855
844.298	23996
844.435	23973
844.571	23885
844.708	23790
844.844	24038
844.98	24011
845.117	24098
845.253	23817
845.389	23752
845.525	23840
845.661	23726
845.798	23596
845.934	23684
846.07	23573
846.206	23737
846.342	23710
846.478	23596
846.614	23433
846.75	23425
846.886	23360
847.022	23406
847.158	23383
847.294	23414
847.429	23299
847.565	23421
847.701	23562
847.837	22999
847.972	23117
848.108	23124
848.244	23083
848.379	23022
848.515	22877
848.65	22831
848.786	23003
848.921	22927
849.057	22968
849.192	23079
849.328	22908
849.463	22919
849.598	22831
849.734	22896
849.869	22801
850.004	22694
850.14	22740
850.275	22706
850.41	22596
850.545	22645
850.68	22618
850.815	22752
850.95	22687
851.085	22991
851.22	22858
851.355	22736
851.49	22740
851.625	22611
851.76	22725
851.895	22603
852.03	22672
852.165	22717
852.299	22725
852.434	22980
852.569	22790
852.703	22713
852.838	22782
852.973	22824
853.107	22831
853.242	22736
853.376	22706
853.511	22489
853.645	22390
853.78	22687
853.914	22519
854.048	22500
854.183	22527
854.317	22615
854.451	22664
854.585	22550
854.72	22462
854.854	22618
854.988	22489
855.122	22516
855.256	22455
855.39	22500
855.524	22500
855.658	22462
855.792	22485
855.926	22580
856.06	22660
856.194	22675
856.327	22538
856.461	22424
856.595	22478
856.729	22440
856.862	22713
856.996	22550
857.13	22615
857.263	22622
857.397	22546
857.53	22451
857.664	22622
857.797	22489
857.931	22596
858.064	22596
858.197	22618
858.331	22538
858.464	22440
858.597	22363
858.731	22554
858.864	22470
858.997	22402
859.13	22542
859.263	22432
859.396	22573
859.529	22500
859.662	22474
859.795	22542
859.928	22550
860.061	22691
860.194	22569
860.327	22603
860.46	22512
860.592	22660
860.725	22710
860.858	22668
860.99	22649
861.123	22497
861.256	22421
861.388	22584
861.521	23292
861.653	22341
861.786	22398
861.918	22394
862.05	22409
862.183	22371
862.315	22592
862.447	22557
862.58	22497
862.712	22215
862.844	22200
862.976	22284
863.108	22291
863.24	22599
863.372	22219
863.504	22150
863.636	22337
863.768	22284
863.9	22249
864.032	22226
864.164	22234
864.296	22234
864.428	22424
864.559	22223
864.691	22310
864.823	22215
864.954	22040
865.086	22265
865.217	22265
865.349	22116
865.48	22090
865.612	22143
865.743	22238
865.875	22067
866.006	22162
866.137	22063
866.269	22070
866.4	22006
866.531	22002
866.662	21953
866.793	22090
866.924	22006
867.055	22090
867.186	22013
867.317	22029
867.448	21964
867.579	21983
867.71	21972
867.841	21857
867.972	22029
868.103	21994
868.233	22078
868.364	22082
868.495	22067
868.625	22192
868.756	22428
868.886	22261
869.017	22166
869.147	22451
869.278	22295
869.408	22261
869.539	22196
869.669	22348
869.799	22371
869.929	22478
870.06	22405
870.19	22569
870.32	22478
870.45	22580
870.58	22580
870.71	22755
870.84	22774
870.97	22611
871.1	22675
871.23	22843
871.36	22854
871.489	22759
871.619	22866
871.749	22934
871.879	22885
872.008	22972
872.138	22839
872.267	22987
872.397	22748
872.526	22759
872.656	22706
872.785	22653
872.915	22729
873.044	22900
873.173	22869
873.303	22949
873.432	23014
873.561	22968
873.69	22786
873.819	22877
873.948	23067
874.077	22805
874.206	22809
874.335	22889
874.464	22968
874.593	23132
874.722	23037
874.851	23273
874.979	22987
875.108	23159
875.237	23136
875.365	22915
875.494	23086
875.623	23124
875.751	23098
875.88	23098
876.008	23246
876.136	23269
876.265	23482
876.393	23531
876.521	23611
876.65	23596
876.778	23459
876.906	23490
877.034	23296
877.162	23444
877.29	23406
877.418	23417
877.546	23391
877.674	23474
877.802	23471
877.93	23444
878.058	23261
878.185	23395
878.313	23414
878.441	23459
878.568	23075
878.696	23368
878.824	23383
878.951	23520
879.079	23501
879.206	23805
879.333	23630
879.461	23452
879.588	23615
879.715	23634
879.842	23653
879.97	23539
880.097	23311
880.224	23345
880.351	23353
880.478	23242
880.605	23254
880.732	23220
880.859	23459
880.986	23322
881.112	23265
881.239	23162
881.366	23083
881.493	22957
881.619	22744
881.746	22824
881.872	22900
881.999	22755
882.125	22687
882.252	22850
882.378	22843
882.505	23022
882.631	22672
882.757	22531
882.883	22679
883.01	22489
883.136	22424
883.262	22409
883.388	22310
883.514	22512
883.64	22573
883.766	22470
883.892	22219
884.018	22382
884.143	22375
884.269	22481
884.395	22287
884.52	22207
884.646	22120
884.772	22063
884.897	22074
885.023	22177
885.148	22181
885.274	22181
885.399	22025
885.524	22055
885.65	22147
885.775	22063
885.9	22135
886.025	22158
886.15	22223
886.275	22097
886.4	22204
886.525	22055
886.65	22010
886.775	22040
886.9	22177
887.025	22314
887.149	22082
887.274	21972
887.399	21865
887.523	21869
887.648	21808
887.773	21728
887.897	21979
888.021	21907
888.146	21892
888.27	21968
888.395	21915
888.519	21895
888.643	21937
888.767	21991
888.891	21743
889.015	21713
889.139	21679
889.263	21709
889.387	21732
889.511	21778
889.635	21842
889.759	21618
889.883	21690
890.006	21759
890.13	21717
890.254	21595
890.377	21610
890.501	21443
890.624	21294
890.748	21435
890.871	21416
890.995	21272
891.118	21192
891.241	21218
891.364	21180
891.488	21218
891.611	21230
891.734	21264
891.857	21272
891.98	21279
892.103	21161
892.226	21173
892.349	21154
892.471	21100
892.594	21150
892.717	21154
892.839	21104
892.962	21146
893.085	21116
893.207	21116
893.33	20975
893.452	21055
893.575	21112
893.697	21135
893.819	21249
893.941	21325
894.064	21169
894.186	20956
894.308	21039
894.43	21230
894.552	21222
894.674	21142
894.796	20971
894.918	21070
895.04	21028
895.161	21070
895.283	21138
895.405	20986
895.526	21142
895.648	21039
895.769	21013
895.891	21104
896.012	21165
896.134	21051
896.255	21058
896.376	21062
896.498	21077
896.619	21104
896.74	21032
896.861	21199
896.982	21256
897.103	21519
897.224	21386
897.345	21336
897.466	21135
897.587	21291
897.708	21431
897.828	21332
897.949	21237
898.07	21096
898.19	21157
898.311	21302
898.431	21291
898.552	21230
898.672	21370
898.792	21340
898.913	21256
899.033	21199
899.153	21096
899.273	21017
899.393	21089
899.513	21058
899.633	21020
899.753	21032
899.873	20960
899.993	21077
900.113	20963
900.232	20895
900.352	20933
900.472	20876
900.591	20644
900.711	20876
900.83	20712
900.95	20891
901.069	20842
901.189	20708
901.308	20415
901.427	20339
901.546	20374
901.665	20313
901.784	20298
901.904	20294
902.023	20016
902.141	19932
902.26	19833
902.379	19932
902.498	19780
902.617	19906
902.735	19811
902.854	19757
902.973	19700
903.091	19438
903.21	19441
903.328	19468
903.446	19362
903.565	19289
903.683	19396
903.801	19225
903.919	19156
904.038	19259
904.156	19015
904.274	19206
904.392	18985
904.51	19050
904.627	19076
904.745	18996
904.863	19031
904.981	18909
905.098	18787
905.216	18753
905.334	18817
905.451	18867
905.569	18741
905.686	18817
905.803	18696
905.921	18563
906.038	18509
906.155	18620
906.272	18372
906.389	18441
906.506	18270
906.623	18308
906.74	18330
906.857	18178
906.974	18117
907.091	18334
907.208	18308
907.324	18171
907.441	18178
907.557	18007
907.674	17984
907.79	17954
907.907	17908
908.023	18038
908.139	17980
908.256	17912
908.372	17912
908.488	17832
908.604	17748
908.72	17707
908.836	17665
908.952	17615
909.068	17630
909.184	17794
909.3	17695
909.415	17745
909.531	17596
909.647	17372
909.762	17493
909.878	17398
909.993	17364
910.108	17254
910.224	17353
910.339	17372
910.454	17356
910.57	17242
910.685	17067
910.8	17410
910.915	17383
911.03	17113
911.145	16991
911.259	16965
911.374	16927
911.489	16908
911.604	16755
911.718	16771
911.833	16618
911.947	16630
912.062	16474
912.176	16698
912.291	16679
912.405	16653
912.519	16801
912.633	16816
912.748	16782
912.862	16603
912.976	16417
913.09	16371
913.204	16405
913.318	16447
913.431	16493
913.545	16603
913.659	16580
913.772	16447
913.886	16436
914	16219
914.113	16329
914.226	16379
914.34	16325
914.453	16223
914.566	16325
914.68	16207
914.793	16154
914.906	15964
915.019	15857
915.132	15743
915.245	15827
915.358	15888
915.47	15857
915.583	15869
915.696	15937
915.809	15892
915.921	15941
916.034	15827
916.146	15774
916.259	15759
916.371	15812
916.483	15835
916.595	15732
916.708	15747
916.82	15701
916.932	15576
917.044	15622
917.156	15545
917.268	15469
917.38	15618
917.491	15454
917.603	15450
917.715	15462
917.826	15599
917.938	15378
918.049	15332
918.161	15317
918.272	15492
918.384	15492
918.495	15431
918.606	15230
918.717	15131
918.828	15211
918.939	15291
919.05	15176
919.161	15237
919.272	15074
919.383	15199
919.494	15199
919.604	15348
919.715	15256
919.826	15157
919.936	15157
920.047	15169
920.157	15218
920.267	15348
920.378	15218
920.488	15116
920.598	15374
920.708	15545
920.818	15317
920.928	15252
921.038	15549
921.148	15435
921.258	15097
921.368	15081
921.477	14918
921.587	14918
921.697	14800
921.806	14872
921.916	14838
922.025	14518
922.134	14579
922.244	14495
922.353	14651
922.462	14461
922.571	14355
922.68	14271
922.789	14145
922.898	14240
923.007	14103
923.116	14161
923.224	14142
923.333	14161
923.442	14027
923.55	14016
923.659	14012
923.767	13989
923.876	13909
923.984	13993
924.092	13864
924.201	14027
924.309	13940
924.417	13868
924.525	13795
924.633	13894
924.741	14564
924.849	13727
924.956	13818
925.064	13677
925.172	13426
925.279	13571
925.387	13556
925.494	13594
925.602	13655
925.709	13567
925.816	13514
925.924	13495
926.031	13552
926.138	13544
926.245	13518
926.352	13400
926.459	13468
926.566	13544
926.673	13453
926.779	13244
926.886	13324
926.993	13137
927.099	13027
927.206	13088
927.312	13061
927.419	13110
927.525	13141
927.631	13149
927.737	12916
927.843	12966
927.95	12787
928.056	12909
928.162	12837
928.267	12962
928.373	13590
928.479	12932
928.585	12798
928.69	12837
928.796	12901
928.901	12741
929.007	12673
929.112	12840
929.218	12715
929.323	12646
929.428	12711
929.533	12741
929.638	12566
929.743	12544
929.848	12642
929.953	12525
930.058	12528
930.163	12285
930.267	12296
930.372	12441
930.477	12243
930.581	12486
930.685	12353
930.79	12110
930.894	12228
930.998	12144
931.103	12334
931.207	11939
931.311	11874
931.415	11783
931.519	11547
931.623	11516
