Data from test_V78500241_822.txt Node
Date: Fri Mar 25 15:47:29 CST 2022
User: usil
Spectrometer: V785-0024
Trigger mode: 0
Integration Time (sec): 4.000000E-1
Scans to average: 1
Nonlinearity correction enabled: false
Boxcar width: 0
Storing dark spectrum: false
XAxis mode: Wavelengths
Number of Pixels in Spectrum: 1024
>>>>>Begin Spectral Data<<<<<
801.071	28154
801.214	28017
801.356	27732
801.499	27698
801.641	27553
801.783	27728
801.926	27717
802.068	27603
802.211	27568
802.353	27511
802.496	27306
802.638	27199
802.78	27256
802.923	27074
803.065	27237
803.208	27161
803.35	27142
803.492	27245
803.635	27408
803.777	27355
803.919	27507
804.061	27732
804.204	27473
804.346	27386
804.488	27393
804.63	27329
804.773	27367
804.915	27633
805.057	27504
805.199	27431
805.341	27572
805.483	27599
805.626	27466
805.768	27416
805.91	27515
806.052	27618
806.194	27431
806.336	27895
806.478	27747
806.62	27599
806.762	27679
806.904	27789
807.046	28101
807.188	27930
807.33	28070
807.472	28013
807.614	27892
807.756	28128
807.898	27819
808.04	27747
808.182	27941
808.324	27930
808.465	27880
808.607	28150
808.749	28196
808.891	28360
809.033	28268
809.174	28280
809.316	28188
809.458	28196
809.6	28238
809.741	28333
809.883	28394
810.025	28516
810.166	28607
810.308	28645
810.45	28519
810.591	28401
810.733	28253
810.875	28177
811.016	28040
811.158	28059
811.299	28356
811.441	28436
811.582	28405
811.724	28253
811.865	28246
812.007	28261
812.148	28341
812.29	28276
812.431	28535
812.573	28611
812.714	28596
812.855	28641
812.997	28831
813.138	29113
813.279	28972
813.421	28763
813.562	28786
813.703	28592
813.845	28611
813.986	28242
814.127	28059
814.268	27869
814.41	27968
814.551	27956
814.692	28002
814.833	27846
814.974	27953
815.115	27987
815.256	27823
815.397	27827
815.539	27770
815.68	27724
815.821	27694
815.962	27797
816.103	27694
816.244	27648
816.385	27618
816.526	27641
816.666	27386
816.807	27161
816.948	27264
817.089	27435
817.23	27272
817.371	27241
817.512	27230
817.653	27283
817.793	27154
817.934	27351
818.075	27355
818.216	27180
818.356	27138
818.497	27146
818.638	26944
818.778	26948
818.919	26998
819.06	27051
819.2	27199
819.341	27214
819.481	27252
819.622	27462
819.762	27481
819.903	27443
820.043	27443
820.184	27325
820.324	27336
820.465	27344
820.605	27424
820.746	27374
820.886	27241
821.026	27389
821.167	27351
821.307	27351
821.447	27279
821.588	27089
821.728	27142
821.868	26781
822.008	26819
822.149	26811
822.289	26765
822.429	26404
822.569	26328
822.709	26370
822.849	26244
822.99	26164
823.13	26191
823.27	26142
823.41	26027
823.55	25997
823.69	26153
823.83	26062
823.97	26130
824.11	25845
824.25	25807
824.389	25936
824.529	26069
824.669	25955
824.809	25993
824.949	25944
825.089	25955
825.228	25940
825.368	25765
825.508	25746
825.648	25708
825.787	25921
825.927	25803
826.067	25833
826.206	25719
826.346	25871
826.485	25814
826.625	25757
826.765	25868
826.904	25833
827.044	25590
827.183	25575
827.323	25419
827.462	25594
827.601	25479
827.741	25407
827.88	25544
828.02	25266
828.159	25533
828.298	25567
828.437	25647
828.577	25396
828.716	25597
828.855	25377
828.994	25232
829.134	25232
829.273	25209
829.412	25217
829.551	25099
829.69	25308
829.829	25187
829.968	25183
830.107	25244
830.246	25183
830.385	25118
830.524	25148
830.663	24932
830.802	24897
830.941	24897
831.08	24848
831.219	24848
831.357	24916
831.496	24985
831.635	24833
831.774	24757
831.913	24612
832.051	24566
832.19	24658
832.329	24658
832.467	24513
832.606	24566
832.744	24513
832.883	24460
833.022	24437
833.16	24479
833.299	24433
833.437	24369
833.576	24517
833.714	24521
833.852	24681
833.991	24597
834.129	24517
834.267	24509
834.406	24502
834.544	24582
834.682	24536
834.821	24369
834.959	24722
835.097	24505
835.235	24532
835.373	24563
835.511	24589
835.65	24422
835.788	24376
835.926	24262
836.064	24038
836.202	24205
836.34	24437
836.478	24525
836.615	24289
836.753	24350
836.891	24593
837.029	24441
837.167	24323
837.305	24350
837.443	24285
837.58	24216
837.718	24209
837.856	24262
837.993	24102
838.131	24167
838.269	24125
838.406	24144
838.544	23935
838.681	23779
838.819	23821
838.956	23570
839.094	23710
839.231	23623
839.369	23817
839.506	24049
839.643	23897
839.781	23786
839.918	23703
840.055	23630
840.193	23551
840.33	23433
840.467	23638
840.604	23585
840.742	23874
840.879	23459
841.016	23615
841.153	23543
841.29	23668
841.427	23680
841.564	23531
841.701	23516
841.838	23604
841.975	23509
842.112	23478
842.249	23318
842.385	23376
842.522	23608
842.659	23433
842.796	23322
842.933	23288
843.069	23090
843.206	23254
843.343	23497
843.479	23280
843.616	23231
843.752	23178
843.889	23143
844.025	23315
844.162	23105
844.298	23109
844.435	23151
844.571	23090
844.708	22991
844.844	23212
844.98	23303
845.117	23140
845.253	23041
845.389	22976
845.525	23037
845.661	22938
845.798	22759
845.934	22930
846.07	22923
846.206	22927
846.342	22919
846.478	22915
846.614	22653
846.75	22504
846.886	22466
847.022	22531
847.158	22561
847.294	22508
847.429	22554
847.565	22459
847.701	22759
847.837	22249
847.972	22135
848.108	22341
848.244	22318
848.379	22299
848.515	22169
848.65	22196
848.786	22101
848.921	22070
849.057	22242
849.192	22150
849.328	22230
849.463	22169
849.598	22078
849.734	22090
849.869	22002
850.004	21880
850.14	21960
850.275	21953
850.41	21880
850.545	21850
850.68	21892
850.815	21945
850.95	21827
851.085	22067
851.22	21899
851.355	21937
851.49	21892
851.625	21934
851.76	21941
851.895	21873
852.03	21903
852.165	21850
852.299	21907
852.434	21922
852.569	21945
852.703	21972
852.838	21956
852.973	22143
853.107	21987
853.242	21789
853.376	21774
853.511	21656
853.645	21732
853.78	21930
853.914	21766
854.048	21652
854.183	21739
854.317	21759
854.451	21922
854.585	21842
854.72	21709
854.854	21709
854.988	21747
855.122	21838
855.256	21660
855.39	21739
855.524	21720
855.658	21698
855.792	21724
855.926	21785
856.06	21823
856.194	21918
856.327	21660
856.461	21671
856.595	21675
856.729	21717
856.862	21804
856.996	21732
857.13	21739
857.263	21873
857.397	21709
857.53	21671
857.664	21728
857.797	21720
857.931	21804
858.064	21770
858.197	21831
858.331	21759
858.464	21705
858.597	21682
858.731	21652
858.864	21641
858.997	21656
859.13	21736
859.263	21606
859.396	21842
859.529	21709
859.662	21667
859.795	21701
859.928	21698
860.061	21854
860.194	21964
860.327	21690
860.46	21713
860.592	21895
860.725	21960
860.858	21800
860.99	21774
861.123	21610
861.256	21736
861.388	21774
861.521	22284
861.653	21580
861.786	21580
861.918	21576
862.05	21538
862.183	21736
862.315	21595
862.447	21656
862.58	21561
862.712	21511
862.844	21386
862.976	21466
863.108	21553
863.24	21934
863.372	21260
863.504	21329
863.636	21485
863.768	21545
863.9	21424
864.032	21344
864.164	21469
864.296	21469
864.428	21606
864.559	21450
864.691	21481
864.823	21382
864.954	21329
865.086	21370
865.217	21325
865.349	21310
865.48	21260
865.612	21291
865.743	21348
865.875	21355
866.006	21317
866.137	21344
866.269	21374
866.4	21351
866.531	21306
866.662	21165
866.793	21195
866.924	21279
867.055	21287
867.186	21294
867.317	21233
867.448	21161
867.579	21211
867.71	21188
867.841	21188
867.972	21332
868.103	21268
868.233	21237
868.364	21214
868.495	21416
868.625	21603
868.756	21572
868.886	21466
869.017	21443
869.147	21526
869.278	21549
869.408	21511
869.539	21466
869.669	21595
869.799	21481
869.929	21686
870.06	21633
870.19	21690
870.32	21854
870.45	21789
870.58	21979
870.71	21888
870.84	22055
870.97	21854
871.1	21892
871.23	22242
871.36	22067
871.489	22002
871.619	22093
871.749	22128
871.879	22192
872.008	22215
872.138	22131
872.267	21956
872.397	22002
872.526	21888
872.656	21876
872.785	21869
872.915	22181
873.044	22200
873.173	22204
873.303	22124
873.432	22276
873.561	22272
873.69	22139
873.819	22044
873.948	22196
874.077	22162
874.206	22055
874.335	22154
874.464	22314
874.593	22314
874.722	22306
874.851	22322
874.979	22379
875.108	22295
875.237	22424
875.365	22131
875.494	22223
875.623	22314
875.751	22417
875.88	22333
876.008	22538
876.136	22493
876.265	22630
876.393	22839
876.521	22786
876.65	22786
876.778	22641
876.906	22691
877.034	22603
877.162	22565
877.29	22584
877.418	22733
877.546	22641
877.674	22592
877.802	22687
877.93	22744
878.058	22634
878.185	22656
878.313	22622
878.441	22626
878.568	22622
878.696	22645
878.824	22672
878.951	22759
879.079	22790
879.206	23025
879.333	22919
879.461	22668
879.588	22786
879.715	22858
879.842	22976
879.97	22721
880.097	22310
880.224	22421
880.351	22573
880.478	22470
880.605	22512
880.732	22489
880.859	22729
880.986	22592
881.112	22474
881.239	22398
881.366	22223
881.493	22211
881.619	21975
881.746	22040
881.872	22025
881.999	22101
882.125	22048
882.252	22093
882.378	22013
882.505	22109
882.631	21922
882.757	21781
882.883	21838
883.01	21747
883.136	21838
883.262	21637
883.388	21595
883.514	21720
883.64	21755
883.766	21614
883.892	21526
884.018	21576
884.143	21690
884.269	21717
884.395	21557
884.52	21332
884.646	21458
884.772	21393
884.897	21450
885.023	21507
885.148	21469
885.274	21519
885.399	21500
885.524	21496
885.65	21291
885.775	21420
885.9	21367
886.025	21511
886.15	21447
886.275	21272
886.4	21329
886.525	21344
886.65	21378
886.775	21237
886.9	21431
887.025	21485
887.149	21431
887.274	21317
887.399	21104
887.523	21176
887.648	21096
887.773	21123
887.897	21287
888.021	21188
888.146	21017
888.27	21211
888.395	21230
888.519	21112
888.643	21260
888.767	21176
888.891	20929
889.015	21062
889.139	21043
889.263	20918
889.387	21108
889.511	21294
889.635	21039
889.759	20861
889.883	20929
890.006	20921
890.13	21047
890.254	20845
890.377	20834
890.501	20765
890.624	20648
890.748	20750
890.871	20682
890.995	20507
891.118	20484
891.241	20514
891.364	20712
891.488	20530
891.611	20507
891.734	20431
891.857	20503
891.98	20556
892.103	20606
892.226	20560
892.349	20476
892.471	20408
892.594	20469
892.717	20541
892.839	20358
892.962	20404
893.085	20484
893.207	20438
893.33	20332
893.452	20381
893.575	20385
893.697	20431
893.819	20625
893.941	20629
894.064	20507
894.186	20347
894.308	20370
894.43	20530
894.552	20499
894.674	20454
894.796	20294
894.918	20393
895.04	20286
895.161	20480
895.283	20419
895.405	20343
895.526	20454
895.648	20423
895.769	20393
895.891	20427
896.012	20507
896.134	20484
896.255	20385
896.376	20305
896.498	20434
896.619	20514
896.74	20419
896.861	20457
896.982	20914
897.103	20788
897.224	20701
897.345	20556
897.466	20438
897.587	20617
897.708	20686
897.828	20667
897.949	20499
898.07	20499
898.19	20556
898.311	20667
898.431	20609
898.552	20636
898.672	20716
898.792	20762
898.913	20579
899.033	20648
899.153	20427
899.273	20332
899.393	20298
899.513	20408
899.633	20282
899.753	20374
899.873	20278
899.993	20381
900.113	20412
900.232	20282
900.352	20347
900.472	20103
900.591	20202
900.711	20206
900.83	20058
900.95	20256
901.069	20214
901.189	20103
901.308	19852
901.427	19795
901.546	19723
901.665	19696
901.784	19890
901.904	19563
902.023	19491
902.141	19324
902.26	19251
902.379	19362
902.498	19270
902.617	19183
902.735	19240
902.854	19183
902.973	19114
903.091	18920
903.21	18970
903.328	18856
903.446	18734
903.565	18669
903.683	18635
903.801	18540
903.919	18593
904.038	18623
904.156	18486
904.274	18547
904.392	18433
904.51	18494
904.627	18456
904.745	18597
904.863	18551
904.981	18178
905.098	18159
905.216	18152
905.334	18163
905.451	18228
905.569	18026
905.686	18171
905.803	18064
905.921	17843
906.038	17992
906.155	17912
906.272	17859
906.389	17866
906.506	17741
906.623	17691
906.74	17668
906.857	17501
906.974	17520
907.091	17745
907.208	17741
907.324	17668
907.441	17543
907.557	17383
907.674	17474
907.79	17341
907.907	17330
908.023	17410
908.139	17414
908.256	17368
908.372	17246
908.488	17273
908.604	17090
908.72	17094
908.836	17064
908.952	16991
909.068	17109
909.184	17178
909.3	17029
909.415	17200
909.531	17132
909.647	16843
909.762	16850
909.878	16786
909.993	16805
910.108	16721
910.224	16797
910.339	16687
910.454	16793
910.57	16645
910.685	16596
910.8	16744
910.915	16790
911.03	16664
911.145	16436
911.259	16348
911.374	16382
911.489	16295
911.604	16211
911.718	16093
911.833	16158
911.947	16063
912.062	16059
912.176	16158
912.291	16150
912.405	16040
912.519	16257
912.633	16265
912.748	16154
912.862	16013
912.976	15994
913.09	15785
913.204	15804
913.318	15922
913.431	16097
913.545	15937
913.659	16040
913.772	15926
913.886	15717
914	15755
914.113	15835
914.226	15934
914.34	15857
914.453	15648
914.566	15800
914.68	15538
914.793	15587
914.906	15336
915.019	15351
915.132	15332
915.245	15363
915.358	15313
915.47	15359
915.583	15294
915.696	15355
915.809	15439
915.921	15469
916.034	15237
916.146	15188
916.259	15184
916.371	15317
916.483	15283
916.595	15222
916.708	15203
916.82	15161
916.932	15150
917.044	15138
917.156	15104
917.268	14982
917.38	15005
917.491	15032
917.603	15085
917.715	15077
917.826	15199
917.938	14933
918.049	14861
918.161	14914
918.272	15066
918.384	15108
918.495	15017
918.606	14731
918.717	14670
918.828	14853
918.939	14731
919.05	14750
919.161	14773
919.272	14552
919.383	14663
919.494	14769
919.604	14963
919.715	14731
919.826	14613
919.936	14674
920.047	14815
920.157	14758
920.267	14906
920.378	14731
920.488	14720
920.598	14788
920.708	15047
920.818	14792
920.928	14819
921.038	14994
921.148	14914
921.258	14610
921.368	14545
921.477	14442
921.587	14419
921.697	14313
921.806	14461
921.916	14339
922.025	14115
922.134	14111
922.244	13982
922.353	14123
922.462	13909
922.571	13894
922.68	13750
922.789	13738
922.898	13723
923.007	13791
923.116	13719
923.224	13742
923.333	13674
923.442	13563
923.55	13582
923.659	13540
923.767	13647
923.876	13483
923.984	13556
924.092	13483
924.201	13468
924.309	13476
924.417	13514
924.525	13381
924.633	13441
924.741	14240
924.849	13156
924.956	13274
925.064	13225
925.172	13110
925.279	13095
925.387	13152
925.494	13069
925.602	13297
925.709	13091
925.816	13019
925.924	13084
926.031	13103
926.138	13095
926.245	13084
926.352	12954
926.459	13103
926.566	13015
926.673	13042
926.779	12905
926.886	12795
926.993	12711
927.099	12677
927.206	12544
927.312	12696
927.419	12612
927.525	12620
927.631	12730
927.737	12578
927.843	12574
927.95	12399
928.056	12547
928.162	12551
928.267	12502
928.373	13103
928.479	12623
928.585	12464
928.69	12517
928.796	12547
928.901	12395
929.007	12270
929.112	12414
929.218	12300
929.323	12201
929.428	12190
929.533	12384
929.638	12175
929.743	12167
929.848	12182
929.953	12197
930.058	12087
930.163	11893
930.267	11946
930.372	12053
930.477	11882
930.581	12072
930.685	11931
930.79	11859
930.894	11847
930.998	11756
931.103	11840
931.207	11581
931.311	11524
931.415	11356
931.519	11261
931.623	11109
