Data from test_V78500241_3112.txt Node
Date: Fri Mar 25 16:03:21 CST 2022
User: usil
Spectrometer: V785-0024
Trigger mode: 0
Integration Time (sec): 4.000000E-1
Scans to average: 1
Nonlinearity correction enabled: false
Boxcar width: 0
Storing dark spectrum: false
XAxis mode: Wavelengths
Number of Pixels in Spectrum: 1024
>>>>>Begin Spectral Data<<<<<
801.071	28394
801.214	28440
801.356	28265
801.499	28173
801.641	28002
801.783	28139
801.926	28234
802.068	28044
802.211	27998
802.353	27926
802.496	27850
802.638	27797
802.78	27759
802.923	27861
803.065	27610
803.208	27720
803.35	27736
803.492	27873
803.635	27968
803.777	27895
803.919	28128
804.061	28436
804.204	28021
804.346	28074
804.488	27964
804.63	28032
804.773	27964
804.915	28086
805.057	28143
805.199	28055
805.341	27998
805.483	28181
805.626	28139
805.768	28188
805.91	28188
806.052	28150
806.194	27968
806.336	28238
806.478	28143
806.62	28188
806.762	28367
806.904	28363
807.046	28755
807.188	28580
807.33	28531
807.472	28736
807.614	28679
807.756	28615
807.898	28481
808.04	28390
808.182	28428
808.324	28516
808.465	28622
808.607	28702
808.749	29010
808.891	29102
809.033	28957
809.174	28881
809.316	28885
809.458	28968
809.6	28831
809.741	29029
809.883	29033
810.025	29178
810.166	29105
810.308	29098
810.45	29140
810.591	29208
810.733	29025
810.875	28854
811.016	28805
811.158	28854
811.299	28980
811.441	29010
811.582	28991
811.724	28839
811.865	28869
812.007	28790
812.148	28862
812.29	28919
812.431	28919
812.573	29140
812.714	29273
812.855	29356
812.997	29520
813.138	29627
813.279	29524
813.421	29383
813.562	29280
813.703	29132
813.845	29079
813.986	28816
814.127	28634
814.268	28577
814.41	28618
814.551	28531
814.692	28561
814.833	28546
814.974	28615
815.115	28500
815.256	28489
815.397	28474
815.539	28421
815.68	28440
815.821	28162
815.962	28577
816.103	28348
816.244	28356
816.385	28207
816.526	28120
816.666	27998
816.807	27873
816.948	28025
817.089	28002
817.23	27953
817.371	27903
817.512	27739
817.653	27873
817.793	27686
817.934	27934
818.075	27819
818.216	27975
818.356	27869
818.497	27781
818.638	27576
818.778	27576
818.919	27656
819.06	27781
819.2	27785
819.341	28010
819.481	27949
819.622	28070
819.762	28276
819.903	28105
820.043	28067
820.184	28036
820.324	28147
820.465	28200
820.605	28032
820.746	27979
820.886	27926
821.026	27934
821.167	28029
821.307	28017
821.447	27865
821.588	27812
821.728	27682
821.868	27545
822.008	27450
822.149	27393
822.289	27412
822.429	27127
822.569	27001
822.709	26944
822.849	26853
822.99	26773
823.13	26975
823.27	26746
823.41	26689
823.55	26655
823.69	26575
823.83	26621
823.97	26556
824.11	26514
824.25	26617
824.389	26400
824.529	26568
824.669	26522
824.809	26621
824.949	26476
825.089	26712
825.228	26575
825.368	26324
825.508	26419
825.648	26320
825.787	26389
825.927	26514
826.067	26324
826.206	26465
826.346	26423
826.485	26503
826.625	26358
826.765	26503
826.904	26286
827.044	26237
827.183	26016
827.323	26199
827.462	26183
827.601	26043
827.741	25974
827.88	26218
828.02	26050
828.159	26058
828.298	26020
828.437	26218
828.577	26024
828.716	26157
828.855	26058
828.994	25875
829.134	25780
829.273	25864
829.412	25693
829.551	25715
829.69	25875
829.829	25902
829.968	25868
830.107	25887
830.246	25898
830.385	25727
830.524	25784
830.663	25594
830.802	25594
830.941	25396
831.08	25434
831.219	25422
831.357	25510
831.496	25662
831.635	25415
831.774	25339
831.913	25335
832.051	25118
832.19	25103
832.329	25129
832.467	25076
832.606	25031
832.744	25027
832.883	25000
833.022	25004
833.16	25050
833.299	25046
833.437	24981
833.576	25206
833.714	25160
833.852	25122
833.991	25206
834.129	25206
834.267	25080
834.406	25285
834.544	25362
834.682	25225
834.821	25194
834.959	25282
835.097	25122
835.235	25190
835.373	25114
835.511	25050
835.65	24977
835.788	24905
835.926	25000
836.064	24779
836.202	24665
836.34	25000
836.478	25019
836.615	24985
836.753	24996
836.891	25046
837.029	24977
837.167	24913
837.305	24829
837.443	24787
837.58	24776
837.718	24863
837.856	24829
837.993	24722
838.131	24749
838.269	24779
838.406	24753
838.544	24616
838.681	24429
838.819	24456
838.956	24216
839.094	24148
839.231	24414
839.369	24410
839.506	24627
839.643	24597
839.781	24350
839.918	24209
840.055	24342
840.193	24201
840.33	24178
840.467	24262
840.604	24178
840.742	24330
840.879	24087
841.016	24148
841.153	24083
841.29	24159
841.427	24243
841.564	24270
841.701	24114
841.838	24182
841.975	24190
842.112	24102
842.249	24045
842.385	23920
842.522	24224
842.659	24003
842.796	23935
842.933	23828
843.069	23908
843.206	23904
843.343	23992
843.479	24007
843.616	23927
843.752	23661
843.889	23851
844.025	23878
844.162	23619
844.298	23882
844.435	23794
844.571	23691
844.708	23653
844.844	23832
844.98	23802
845.117	23790
845.253	23638
845.389	23691
845.525	23703
845.661	23467
845.798	23376
845.934	23524
846.07	23531
846.206	23414
846.342	23661
846.478	23429
846.614	23212
846.75	23064
846.886	23208
847.022	23254
847.158	23250
847.294	23200
847.429	23216
847.565	23060
847.701	23452
847.837	22885
847.972	22812
848.108	22949
848.244	22938
848.379	22755
848.515	22786
848.65	22702
848.786	22767
848.921	22691
849.057	22995
849.192	22850
849.328	22900
849.463	22736
849.598	22637
849.734	22710
849.869	22702
850.004	22493
850.14	22580
850.275	22535
850.41	22527
850.545	22478
850.68	22481
850.815	22443
850.95	22500
851.085	22683
851.22	22664
851.355	22691
851.49	22535
851.625	22466
851.76	22413
851.895	22470
852.03	22428
852.165	22577
852.299	22573
852.434	22546
852.569	22577
852.703	22630
852.838	22645
852.973	22713
853.107	22717
853.242	22512
853.376	22314
853.511	22310
853.645	22257
853.78	22405
853.914	22504
854.048	22367
854.183	22287
854.317	22409
854.451	22504
854.585	22284
854.72	22268
854.854	22424
854.988	22379
855.122	22329
855.256	22147
855.39	22306
855.524	22519
855.658	22398
855.792	22352
855.926	22337
856.06	22363
856.194	22371
856.327	22265
856.461	22223
856.595	22322
856.729	22246
856.862	22519
856.996	22318
857.13	22379
857.263	22360
857.397	22402
857.53	22379
857.664	22379
857.797	22443
857.931	22356
858.064	22379
858.197	22451
858.331	22314
858.464	22310
858.597	22200
858.731	22303
858.864	22352
858.997	22325
859.13	22451
859.263	22367
859.396	22508
859.529	22356
859.662	22204
859.795	22303
859.928	22424
860.061	22554
860.194	22538
860.327	22390
860.46	22333
860.592	22432
860.725	22462
860.858	22440
860.99	22386
861.123	22386
861.256	22382
861.388	22219
861.521	23094
861.653	22211
861.786	22162
861.918	22196
862.05	22249
862.183	22234
862.315	22276
862.447	22322
862.58	22295
862.712	22188
862.844	22029
862.976	22177
863.108	22101
863.24	22402
863.372	21827
863.504	22086
863.636	22093
863.768	22135
863.9	21983
864.032	22010
864.164	21968
864.296	21998
864.428	22135
864.559	22196
864.691	22105
864.823	22070
864.954	22002
865.086	22112
865.217	22032
865.349	21918
865.48	22059
865.612	21903
865.743	22112
865.875	21907
866.006	21934
866.137	21991
866.269	21812
866.4	21846
866.531	21785
866.662	21755
866.793	21850
866.924	21838
867.055	21907
867.186	21838
867.317	21854
867.448	21823
867.579	21770
867.71	21736
867.841	21876
867.972	21888
868.103	21907
868.233	21812
868.364	21850
868.495	22010
868.625	22029
868.756	22265
868.886	22036
869.017	22101
869.147	22295
869.278	22204
869.408	22013
869.539	22021
869.669	22215
869.799	22048
869.929	22268
870.06	22344
870.19	22394
870.32	22337
870.45	22394
870.58	22531
870.71	22516
870.84	22725
870.97	22447
871.1	22531
871.23	22653
871.36	22733
871.489	22550
871.619	22660
871.749	22691
871.879	22740
872.008	22866
872.138	22649
872.267	22656
872.397	22607
872.526	22603
872.656	22462
872.785	22554
872.915	22706
873.044	22824
873.173	22774
873.303	22793
873.432	22702
873.561	22744
873.69	22847
873.819	22805
873.948	22733
874.077	22698
874.206	22752
874.335	22782
874.464	22805
874.593	22976
874.722	22904
874.851	22892
874.979	22911
875.108	23041
875.237	22869
875.365	22915
875.494	22839
875.623	22889
875.751	22904
875.88	23060
876.008	23006
876.136	23200
876.265	23330
876.393	23448
876.521	23482
876.65	23471
876.778	23273
876.906	23242
877.034	23193
877.162	23227
877.29	23223
877.418	23372
877.546	23311
877.674	23231
877.802	23261
877.93	23307
878.058	23223
878.185	23326
878.313	23231
878.441	23368
878.568	23048
878.696	23239
878.824	23231
878.951	23315
879.079	23345
879.206	23653
879.333	23543
879.461	23452
879.588	23326
879.715	23356
879.842	23589
879.97	23326
880.097	23227
880.224	23117
880.351	23094
880.478	23143
880.605	23166
880.732	23151
880.859	23326
880.986	23071
881.112	23128
881.239	22965
881.366	22816
881.493	22759
881.619	22698
881.746	22866
881.872	22645
881.999	22717
882.125	22599
882.252	22774
882.378	22630
882.505	22660
882.631	22561
882.757	22405
882.883	22500
883.01	22390
883.136	22375
883.262	22303
883.388	22272
883.514	22428
883.64	22348
883.766	22284
883.892	22067
884.018	22147
884.143	22371
884.269	22428
884.395	21994
884.52	21998
884.646	22029
884.772	21934
884.897	21903
885.023	22070
885.148	22063
885.274	22204
885.399	22097
885.524	22021
885.65	22059
885.775	22010
885.9	21972
886.025	22105
886.15	21907
886.275	21994
886.4	21762
886.525	21991
886.65	21819
886.775	21892
886.9	22048
887.025	22280
887.149	22063
887.274	21728
887.399	21732
887.523	21732
887.648	21644
887.773	21679
887.897	21941
888.021	21812
888.146	21732
888.27	21819
888.395	21789
888.519	21762
888.643	21808
888.767	21759
888.891	21728
889.015	21717
889.139	21618
889.263	21576
889.387	21637
889.511	21812
889.635	21644
889.759	21530
889.883	21595
890.006	21488
890.13	21610
890.254	21443
890.377	21534
890.501	21313
890.624	21233
890.748	21355
890.871	21226
890.995	21127
891.118	21013
891.241	21020
891.364	21062
891.488	21207
891.611	21150
891.734	21074
891.857	21127
891.98	21081
892.103	21146
892.226	21211
892.349	21036
892.471	20861
892.594	21009
892.717	21017
892.839	20952
892.962	21039
893.085	21123
893.207	21001
893.33	20906
893.452	20887
893.575	20921
893.697	20883
893.819	21146
893.941	21214
894.064	21096
894.186	20937
894.308	20933
894.43	21001
894.552	21249
894.674	21001
894.796	20906
894.918	20883
895.04	20963
895.161	21028
895.283	20956
895.405	21001
895.526	21013
895.648	20880
895.769	21077
895.891	20925
896.012	21055
896.134	21055
896.255	21020
896.376	20781
896.498	20975
896.619	21039
896.74	20960
896.861	21123
896.982	21332
897.103	21393
897.224	21302
897.345	21085
897.466	21157
897.587	21089
897.708	21275
897.828	21199
897.949	21116
898.07	21024
898.19	21085
898.311	21237
898.431	21157
898.552	21028
898.672	21268
898.792	21184
898.913	21058
899.033	21047
899.153	20883
899.273	20826
899.393	20861
899.513	20975
899.633	20880
899.753	20864
899.873	20750
899.993	20800
900.113	20815
900.232	20857
900.352	20811
900.472	20651
900.591	20617
900.711	20670
900.83	20613
900.95	20819
901.069	20750
901.189	20537
901.308	20313
901.427	20206
901.546	20210
901.665	20244
901.784	20282
901.904	20138
902.023	20012
902.141	19742
902.26	19822
902.379	19894
902.498	19704
902.617	19715
902.735	19753
902.854	19818
902.973	19575
903.091	19392
903.21	19396
903.328	19369
903.446	19293
903.565	19255
903.683	19217
903.801	19129
903.919	19156
904.038	19156
904.156	18943
904.274	19027
904.392	18947
904.51	18981
904.627	18894
904.745	19053
904.863	18951
904.981	18768
905.098	18631
905.216	18627
905.334	18726
905.451	18658
905.569	18642
905.686	18608
905.803	18585
905.921	18315
906.038	18635
906.155	18403
906.272	18365
906.389	18380
906.506	18243
906.623	18178
906.74	18129
906.857	18076
906.974	18064
907.091	18114
907.208	18235
907.324	18136
907.441	18079
907.557	17950
907.674	17920
907.79	17802
907.907	17973
908.023	17874
908.139	17950
908.256	17832
908.372	17687
908.488	17783
908.604	17672
908.72	17707
908.836	17581
908.952	17573
909.068	17699
909.184	17741
909.3	17623
909.415	17562
909.531	17600
909.647	17421
909.762	17318
909.878	17273
909.993	17239
910.108	17395
910.224	17326
910.339	17220
910.454	17128
910.57	17090
910.685	17010
910.8	17269
910.915	17277
911.03	17109
911.145	16957
911.259	16869
911.374	16847
911.489	16736
911.604	16725
911.718	16584
911.833	16656
911.947	16497
912.062	16447
912.176	16679
912.291	16489
912.405	16664
912.519	16691
912.633	16755
912.748	16637
912.862	16459
912.976	16421
913.09	16329
913.204	16398
913.318	16474
913.431	16424
913.545	16481
913.659	16500
913.772	16455
913.886	16318
914	16226
914.113	16261
914.226	16394
914.34	16306
914.453	16124
914.566	16219
914.68	16093
914.793	16055
914.906	15945
915.019	15876
915.132	15808
915.245	15644
915.358	15827
915.47	15797
915.583	15983
915.696	15724
915.809	15911
915.921	15953
916.034	15698
916.146	15705
916.259	15667
916.371	15800
916.483	15679
916.595	15622
916.708	15625
916.82	15584
916.932	15580
917.044	15595
917.156	15553
917.268	15492
917.38	15450
917.491	15424
917.603	15405
917.715	15500
917.826	15549
917.938	15367
918.049	15260
918.161	15412
918.272	15397
918.384	15431
918.495	15241
918.606	15184
918.717	15100
918.828	15157
918.939	15207
919.05	15085
919.161	15085
919.272	14914
919.383	15055
919.494	15272
919.604	15321
919.715	15157
919.826	14994
919.936	15135
920.047	15150
920.157	15161
920.267	15359
920.378	15150
920.488	15062
920.598	15268
920.708	15500
920.818	15291
920.928	15138
921.038	15389
921.148	15344
921.258	15051
921.368	14910
921.477	14906
921.587	14758
921.697	14621
921.806	14895
921.916	14781
922.025	14522
922.134	14518
922.244	14419
922.353	14537
922.462	14343
922.571	14332
922.68	14218
922.789	14138
922.898	14100
923.007	14027
923.116	14180
923.224	14126
923.333	14035
923.442	13852
923.55	13947
923.659	13997
923.767	13955
923.876	13887
923.984	13974
924.092	13830
924.201	13833
924.309	13803
924.417	13830
924.525	13742
924.633	13803
924.741	14518
924.849	13571
924.956	13620
925.064	13578
925.172	13514
925.279	13449
925.387	13586
925.494	13544
925.602	13620
925.709	13563
925.816	13350
925.924	13464
926.031	13499
926.138	13400
926.245	13491
926.352	13244
926.459	13441
926.566	13438
926.673	13304
926.779	13213
926.886	13270
926.993	13019
927.099	13057
927.206	13038
927.312	12985
927.419	13004
927.525	13069
927.631	13099
927.737	12928
927.843	12875
927.95	12779
928.056	12871
928.162	12909
928.267	12894
928.373	13468
928.479	12962
928.585	12646
928.69	12833
928.796	12741
928.901	12646
929.007	12486
929.112	12646
929.218	12620
929.323	12635
929.428	12494
929.533	12745
929.638	12486
929.743	12547
929.848	12585
929.953	12532
930.058	12372
930.163	12254
930.267	12247
930.372	12418
930.477	12182
930.581	12304
930.685	12254
930.79	12125
930.894	12167
930.998	12106
931.103	12194
931.207	11817
931.311	11794
931.415	11707
931.519	11478
931.623	11444
