Data from test_V78500241_1818.txt Node
Date: Fri Mar 25 15:54:23 CST 2022
User: usil
Spectrometer: V785-0024
Trigger mode: 0
Integration Time (sec): 4.000000E-1
Scans to average: 1
Nonlinearity correction enabled: false
Boxcar width: 0
Storing dark spectrum: false
XAxis mode: Wavelengths
Number of Pixels in Spectrum: 1024
>>>>>Begin Spectral Data<<<<<
801.071	28489
801.214	28786
801.356	28234
801.499	28249
801.641	28131
801.783	28344
801.926	28242
802.068	28166
802.211	28253
802.353	28284
802.496	27903
802.638	27759
802.78	27770
802.923	27675
803.065	27679
803.208	27713
803.35	27755
803.492	28097
803.635	27937
803.777	27880
803.919	28150
804.061	28318
804.204	28109
804.346	28048
804.488	28025
804.63	28196
804.773	28101
804.915	28143
805.057	28268
805.199	28143
805.341	28143
805.483	28291
805.626	28379
805.768	28219
805.91	28386
806.052	28299
806.194	28211
806.336	28413
806.478	28246
806.62	28299
806.762	28489
806.904	28527
807.046	28839
807.188	28538
807.33	28736
807.472	28831
807.614	28596
807.756	28668
807.898	28489
808.04	28569
808.182	28508
808.324	28672
808.465	28569
808.607	28744
808.749	28953
808.891	29060
809.033	29041
809.174	28976
809.316	28862
809.458	28995
809.6	28911
809.741	28972
809.883	29166
810.025	29239
810.166	29174
810.308	29223
810.45	29041
810.591	29159
810.733	28984
810.875	28984
811.016	28896
811.158	28782
811.299	28976
811.441	29185
811.582	29109
811.724	29006
811.865	29010
812.007	29029
812.148	29014
812.29	28995
812.431	29075
812.573	29246
812.714	29368
812.855	29543
812.997	29490
813.138	29729
813.279	29589
813.421	29356
813.562	29311
813.703	29216
813.845	29189
813.986	28888
814.127	28733
814.268	28615
814.41	28645
814.551	28557
814.692	28687
814.833	28653
814.974	28630
815.115	28710
815.256	28504
815.397	28360
815.539	28478
815.68	28618
815.821	28459
815.962	28447
816.103	28554
816.244	28246
816.385	28253
816.526	28230
816.666	28055
816.807	27987
816.948	28158
817.089	28055
817.23	27903
817.371	27953
817.512	27941
817.653	27975
817.793	27991
817.934	27953
818.075	27865
818.216	28120
818.356	27903
818.497	27865
818.638	27720
818.778	27663
818.919	27564
819.06	27831
819.2	27895
819.341	27842
819.481	28032
819.622	28029
819.762	28181
819.903	28185
820.043	28147
820.184	28188
820.324	28120
820.465	28143
820.605	28093
820.746	28090
820.886	27960
821.026	28143
821.167	28059
821.307	28192
821.447	27991
821.588	27903
821.728	27739
821.868	27660
822.008	27462
822.149	27405
822.289	27545
822.429	27230
822.569	27104
822.709	26990
822.849	27039
822.99	26952
823.13	27009
823.27	26853
823.41	26754
823.55	26560
823.69	26746
823.83	26758
823.97	26682
824.11	26686
824.25	26689
824.389	26674
824.529	26842
824.669	26724
824.809	26712
824.949	26613
825.089	26636
825.228	26686
825.368	26453
825.508	26442
825.648	26469
825.787	26526
825.927	26579
826.067	26465
826.206	26427
826.346	26514
826.485	26549
826.625	26442
826.765	26511
826.904	26533
827.044	26256
827.183	26320
827.323	26278
827.462	26164
827.601	26256
827.741	26286
827.88	26195
828.02	26153
828.159	26062
828.298	26206
828.437	26332
828.577	26138
828.716	26210
828.855	26100
828.994	26020
829.134	25803
829.273	26062
829.412	25875
829.551	25894
829.69	25772
829.829	25803
829.968	25936
830.107	25936
830.246	25936
830.385	25822
830.524	25883
830.663	25632
830.802	25582
830.941	25491
831.08	25415
831.219	25552
831.357	25556
831.496	25738
831.635	25525
831.774	25369
831.913	25381
832.051	25190
832.19	25289
832.329	25324
832.467	25247
832.606	25088
832.744	25069
832.883	25217
833.022	25065
833.16	25042
833.299	25065
833.437	25190
833.576	25213
833.714	25213
833.852	25202
833.991	25251
834.129	25217
834.267	25213
834.406	25251
834.544	25209
834.682	25190
834.821	25327
834.959	25312
835.097	25122
835.235	25190
835.373	25225
835.511	25194
835.65	24996
835.788	25053
835.926	24985
836.064	24833
836.202	24897
836.34	25061
836.478	25099
836.615	25023
836.753	25008
836.891	25194
837.029	25053
837.167	24916
837.305	24985
837.443	24878
837.58	24856
837.718	25053
837.856	24878
837.993	24783
838.131	24840
838.269	24688
838.406	24753
838.544	24646
838.681	24471
838.819	24582
838.956	24323
839.094	24426
839.231	24422
839.369	24536
839.506	24745
839.643	24532
839.781	24327
839.918	24232
840.055	24380
840.193	24319
840.33	24330
840.467	24323
840.604	24235
840.742	24574
840.879	24026
841.016	24148
841.153	24114
841.29	24281
841.427	24178
841.564	24251
841.701	24327
841.838	24083
841.975	24133
842.112	24140
842.249	23984
842.385	24034
842.522	24144
842.659	24087
842.796	24060
842.933	23977
843.069	23916
843.206	23874
843.343	23999
843.479	23916
843.616	23927
843.752	23813
843.889	23752
844.025	23878
844.162	23752
844.298	23885
844.435	23710
844.571	23649
844.708	23961
844.844	24018
844.98	23923
845.117	23786
845.253	23638
845.389	23611
845.525	23707
845.661	23642
845.798	23463
845.934	23474
846.07	23486
846.206	23630
846.342	23638
846.478	23410
846.614	23330
846.75	23159
846.886	23216
847.022	23143
847.158	23216
847.294	23166
847.429	23296
847.565	23159
847.701	23364
847.837	22835
847.972	22984
848.108	23025
848.244	23067
848.379	22889
848.515	22740
848.65	22733
848.786	22702
848.921	22790
849.057	22866
849.192	22866
849.328	22889
849.463	22698
849.598	22725
849.734	22767
849.869	22637
850.004	22500
850.14	22668
850.275	22592
850.41	22519
850.545	22516
850.68	22645
850.815	22546
850.95	22592
851.085	22805
851.22	22622
851.355	22538
851.49	22611
851.625	22527
851.76	22580
851.895	22557
852.03	22508
852.165	22641
852.299	22630
852.434	22729
852.569	22687
852.703	22580
852.838	22599
852.973	22656
853.107	22634
853.242	22478
853.376	22394
853.511	22303
853.645	22299
853.78	22462
853.914	22455
854.048	22325
854.183	22322
854.317	22394
854.451	22596
854.585	22344
854.72	22367
854.854	22322
854.988	22276
855.122	22421
855.256	22226
855.39	22318
855.524	22409
855.658	22386
855.792	22390
855.926	22341
856.06	22341
856.194	22375
856.327	22371
856.461	22386
856.595	22333
856.729	22375
856.862	22424
856.996	22371
857.13	22478
857.263	22535
857.397	22443
857.53	22421
857.664	22417
857.797	22516
857.931	22481
858.064	22352
858.197	22596
858.331	22478
858.464	22348
858.597	22295
858.731	22348
858.864	22382
858.997	22322
859.13	22466
859.263	22341
859.396	22379
859.529	22428
859.662	22310
859.795	22314
859.928	22379
860.061	22538
860.194	22546
860.327	22402
860.46	22451
860.592	22626
860.725	22611
860.858	22455
860.99	22337
861.123	22223
861.256	22341
861.388	22348
861.521	23170
861.653	22261
861.786	22097
861.918	22234
862.05	22348
862.183	22234
862.315	22276
862.447	22440
862.58	22337
862.712	22013
862.844	22010
862.976	22109
863.108	22070
863.24	22596
863.372	22097
863.504	22154
863.636	22029
863.768	22002
863.9	22185
864.032	22185
864.164	22128
864.296	22215
864.428	22112
864.559	22067
864.691	22067
864.823	22162
864.954	22006
865.086	22002
865.217	22048
865.349	21823
865.48	21930
865.612	21960
865.743	21987
865.875	21991
866.006	21998
866.137	22017
866.269	21854
866.4	21930
866.531	21934
866.662	21941
866.793	21892
866.924	21960
867.055	22025
867.186	21926
867.317	21861
867.448	21850
867.579	22059
867.71	21873
867.841	21861
867.972	21880
868.103	21960
868.233	21926
868.364	21865
868.495	22067
868.625	22078
868.756	22246
868.886	22048
869.017	22128
869.147	22287
869.278	22230
869.408	22124
869.539	22166
869.669	22158
869.799	22177
869.929	22223
870.06	22242
870.19	22398
870.32	22443
870.45	22500
870.58	22535
870.71	22603
870.84	22535
870.97	22421
871.1	22519
871.23	22782
871.36	22664
871.489	22706
871.619	22611
871.749	22717
871.879	22885
872.008	22786
872.138	22771
872.267	22733
872.397	22641
872.526	22497
872.656	22599
872.785	22668
872.915	22793
873.044	22759
873.173	22862
873.303	22774
873.432	22790
873.561	22797
873.69	22790
873.819	22725
873.948	22801
874.077	22740
874.206	22687
874.335	22740
874.464	22847
874.593	22930
874.722	22850
874.851	23044
874.979	22999
875.108	22965
875.237	22911
875.365	22904
875.494	22843
875.623	22961
875.751	22946
875.88	23014
876.008	23022
876.136	23033
876.265	23364
876.393	23486
876.521	23387
876.65	23360
876.778	23349
876.906	23303
877.034	23379
877.162	23455
877.29	23193
877.418	23265
877.546	23250
877.674	23303
877.802	23421
877.93	23345
878.058	23242
878.185	23121
878.313	23223
878.441	23235
878.568	23121
878.696	23170
878.824	23315
878.951	23318
879.079	23269
879.206	23497
879.333	23429
879.461	23353
879.588	23478
879.715	23471
879.842	23623
879.97	23288
880.097	23010
880.224	23181
880.351	23223
880.478	23181
880.605	23113
880.732	23075
880.859	23200
880.986	23151
881.112	23102
881.239	22991
881.366	22862
881.493	22790
881.619	22755
881.746	22649
881.872	22668
881.999	22740
882.125	22618
882.252	22748
882.378	22679
882.505	22828
882.631	22470
882.757	22428
882.883	22405
883.01	22356
883.136	22280
883.262	22124
883.388	22234
883.514	22325
883.64	22322
883.766	22192
883.892	22070
884.018	22040
884.143	22360
884.269	22219
884.395	22097
884.52	21934
884.646	22017
884.772	21899
884.897	21945
885.023	21918
885.148	22105
885.274	22150
885.399	22185
885.524	21964
885.65	21934
885.775	21934
885.9	22048
886.025	21968
886.15	22082
886.275	22063
886.4	21922
886.525	21930
886.65	21949
886.775	21846
886.9	22188
887.025	22215
887.149	22010
887.274	21747
887.399	21667
887.523	21842
887.648	21606
887.773	21603
887.897	21823
888.021	21762
888.146	21675
888.27	21869
888.395	21941
888.519	21854
888.643	21857
888.767	21808
888.891	21671
889.015	21542
889.139	21633
889.263	21713
889.387	21652
889.511	21747
889.635	21717
889.759	21519
889.883	21572
890.006	21549
890.13	21648
890.254	21393
890.377	21424
890.501	21310
890.624	21176
890.748	21310
890.871	21233
890.995	21195
891.118	21043
891.241	21138
891.364	21055
891.488	21142
891.611	21085
891.734	21135
891.857	21222
891.98	21180
892.103	21298
892.226	21150
892.349	21062
892.471	20906
892.594	21036
892.717	21112
892.839	20986
892.962	20948
893.085	21081
893.207	21043
893.33	20929
893.452	20773
893.575	21085
893.697	21055
893.819	21123
893.941	21180
894.064	21207
894.186	20948
894.308	20960
894.43	21127
894.552	21218
894.674	21104
894.796	20937
894.918	21047
895.04	20941
895.161	21077
895.283	21001
895.405	20899
895.526	20933
895.648	20948
895.769	21142
895.891	21051
896.012	21051
896.134	21131
896.255	21036
896.376	20861
896.498	21074
896.619	21055
896.74	21017
896.861	21074
896.982	21291
897.103	21412
897.224	21203
897.345	21325
897.466	21268
897.587	21138
897.708	21412
897.828	21195
897.949	21161
898.07	20986
898.19	21127
898.311	21176
898.431	21062
898.552	21184
898.672	21203
898.792	21268
898.913	21256
899.033	21013
899.153	20845
899.273	20990
899.393	20967
899.513	20971
899.633	20853
899.753	20899
899.873	20834
899.993	20834
900.113	20769
900.232	20902
900.352	20937
900.472	20735
900.591	20739
900.711	20834
900.83	20735
900.95	20864
901.069	20880
901.189	20579
901.308	20343
901.427	20286
901.546	20244
901.665	20233
901.784	20206
901.904	20149
902.023	20050
902.141	19894
902.26	19769
902.379	19978
902.498	19719
902.617	19704
902.735	19708
902.854	19788
902.973	19655
903.091	19487
903.21	19373
903.328	19422
903.446	19335
903.565	19346
903.683	19198
903.801	19091
903.919	19183
904.038	19141
904.156	19015
904.274	19080
904.392	18951
904.51	18875
904.627	19145
904.745	18993
904.863	19103
904.981	18837
905.098	18635
905.216	18700
905.334	18722
905.451	18650
905.569	18646
905.686	18738
905.803	18555
905.921	18365
906.038	18650
906.155	18532
906.272	18369
906.389	18365
906.506	18270
906.623	18182
906.74	18148
906.857	18136
906.974	18053
907.091	18209
907.208	18209
907.324	18232
907.441	18030
907.557	17950
907.674	17908
907.79	17745
907.907	17851
908.023	17954
908.139	17878
908.256	17817
908.372	17729
908.488	17718
908.604	17581
908.72	17547
908.836	17668
908.952	17505
909.068	17653
909.184	17722
909.3	17608
909.415	17600
909.531	17687
909.647	17299
909.762	17220
909.878	17322
909.993	17299
910.108	17364
910.224	17223
910.339	17288
910.454	17136
910.57	17094
910.685	17109
910.8	17353
910.915	17284
911.03	17086
911.145	16968
911.259	16839
911.374	16885
911.489	16877
911.604	16740
911.718	16672
911.833	16717
911.947	16580
912.062	16523
912.176	16626
912.291	16679
912.405	16626
912.519	16797
912.633	16858
912.748	16649
912.862	16615
912.976	16356
913.09	16348
913.204	16413
913.318	16489
913.431	16451
913.545	16569
913.659	16497
913.772	16356
913.886	16253
914	16097
914.113	16299
914.226	16512
914.34	16234
914.453	16097
914.566	16192
914.68	16032
914.793	16166
914.906	15895
915.019	15808
915.132	15850
915.245	15812
915.358	15884
915.47	15918
915.583	15869
915.696	15850
915.809	15922
915.921	15979
916.034	15698
916.146	15755
916.259	15736
916.371	15861
916.483	15804
916.595	15679
916.708	15633
916.82	15614
916.932	15633
917.044	15557
917.156	15515
917.268	15481
917.38	15454
917.491	15447
917.603	15454
917.715	15519
917.826	15568
917.938	15294
918.049	15336
918.161	15351
918.272	15507
918.384	15466
918.495	15363
918.606	15157
918.717	15157
918.828	15252
918.939	15230
919.05	15119
919.161	15161
919.272	14948
919.383	15005
919.494	15173
919.604	15401
919.715	15116
919.826	15081
919.936	15138
920.047	15279
920.157	15192
920.267	15237
920.378	15169
920.488	15173
920.598	15336
920.708	15382
920.818	15260
920.928	15226
921.038	15519
921.148	15332
921.258	15017
921.368	15036
921.477	14868
921.587	14773
921.697	14735
921.806	14765
921.916	14705
922.025	14575
922.134	14568
922.244	14522
922.353	14518
922.462	14381
922.571	14324
922.68	14214
922.789	14092
922.898	14134
923.007	14039
923.116	14142
923.224	14111
923.333	14111
923.442	13978
923.55	13932
923.659	13902
923.767	13951
923.876	13887
923.984	14016
924.092	13928
924.201	13856
924.309	13837
924.417	13898
924.525	13849
924.633	13769
924.741	14659
924.849	13544
924.956	13681
925.064	13548
925.172	13438
925.279	13559
925.387	13552
925.494	13495
925.602	13651
925.709	13521
925.816	13415
925.924	13449
926.031	13537
926.138	13502
926.245	13521
926.352	13301
926.459	13343
926.566	13525
926.673	13384
926.779	13228
926.886	13232
926.993	13103
927.099	13080
927.206	12958
927.312	13008
927.419	13118
927.525	13057
927.631	13050
927.737	12916
927.843	12947
927.95	12776
928.056	12935
928.162	12935
928.267	12916
928.373	13468
928.479	12924
928.585	12719
928.69	12817
928.796	12863
928.901	12745
929.007	12555
929.112	12795
929.218	12791
929.323	12559
929.428	12589
929.533	12760
929.638	12563
929.743	12494
929.848	12612
929.953	12502
930.058	12418
930.163	12304
930.267	12209
930.372	12357
930.477	12209
930.581	12506
930.685	12315
930.79	12114
930.894	12178
930.998	12076
931.103	12171
931.207	11866
931.311	11783
931.415	11627
931.519	11524
931.623	11493
