Data from test_V78500241_2732.txt Node
Date: Fri Mar 25 16:00:43 CST 2022
User: usil
Spectrometer: V785-0024
Trigger mode: 0
Integration Time (sec): 4.000000E-1
Scans to average: 1
Nonlinearity correction enabled: false
Boxcar width: 0
Storing dark spectrum: false
XAxis mode: Wavelengths
Number of Pixels in Spectrum: 1024
>>>>>Begin Spectral Data<<<<<
801.071	28729
801.214	28900
801.356	28527
801.499	28413
801.641	28436
801.783	28405
801.926	28451
802.068	28394
802.211	28299
802.353	28219
802.496	28025
802.638	28078
802.78	28048
802.923	27968
803.065	27838
803.208	27956
803.35	28093
803.492	28238
803.635	28386
803.777	28162
803.919	28360
804.061	28626
804.204	28306
804.346	28310
804.488	28185
804.63	28139
804.773	28207
804.915	28394
805.057	28421
805.199	28367
805.341	28413
805.483	28497
805.626	28318
805.768	28371
805.91	28428
806.052	28588
806.194	28596
806.336	28679
806.478	28363
806.62	28557
806.762	28626
806.904	28805
807.046	28961
807.188	28911
807.33	28961
807.472	28885
807.614	28942
807.756	28930
807.898	28888
808.04	28892
808.182	28672
808.324	28812
808.465	28957
808.607	28934
808.749	29223
808.891	29197
809.033	29318
809.174	29159
809.316	29151
809.458	29151
809.6	29067
809.741	29223
809.883	29296
810.025	29391
810.166	29330
810.308	29440
810.45	29554
810.591	29467
810.733	29083
810.875	29223
811.016	29136
811.158	29189
811.299	29197
811.441	29193
811.582	29341
811.724	29231
811.865	29254
812.007	29212
812.148	29231
812.29	29231
812.431	29379
812.573	29497
812.714	29638
812.855	29748
812.997	29912
813.138	29828
813.279	29882
813.421	29699
813.562	29668
813.703	29520
813.845	29360
813.986	29231
814.127	28972
814.268	28869
814.41	28820
814.551	28968
814.692	28873
814.833	28835
814.974	28850
815.115	28858
815.256	28904
815.397	28786
815.539	28805
815.68	28801
815.821	28580
815.962	28702
816.103	28824
816.244	28675
816.385	28519
816.526	28409
816.666	28230
816.807	28086
816.948	28360
817.089	28291
817.23	28177
817.371	28261
817.512	28120
817.653	28192
817.793	28154
817.934	28055
818.075	28253
818.216	28211
818.356	28177
818.497	28105
818.638	27972
818.778	27975
818.919	27975
819.06	28036
819.2	28120
819.341	28257
819.481	28128
819.622	28417
819.762	28489
819.903	28588
820.043	28413
820.184	28470
820.324	28280
820.465	28337
820.605	28303
820.746	28432
820.886	28169
821.026	28322
821.167	28303
821.307	28261
821.447	28166
821.588	28059
821.728	28139
821.868	27880
822.008	27739
822.149	27724
822.289	27724
822.429	27412
822.569	27382
822.709	27443
822.849	27321
822.99	27252
823.13	27195
823.27	27123
823.41	26910
823.55	26979
823.69	26971
823.83	26971
823.97	27074
824.11	26887
824.25	26773
824.389	26880
824.529	26979
824.669	26891
824.809	26876
824.949	26937
825.089	26975
825.228	26906
825.368	26682
825.508	26769
825.648	26845
825.787	26743
825.927	26796
826.067	26651
826.206	26785
826.346	26712
826.485	26815
826.625	26746
826.765	26701
826.904	26739
827.044	26545
827.183	26575
827.323	26427
827.462	26366
827.601	26552
827.741	26400
827.88	26469
828.02	26263
828.159	26473
828.298	26594
828.437	26590
828.577	26469
828.716	26457
828.855	26396
828.994	26164
829.134	26161
829.273	26157
829.412	26191
829.551	26073
829.69	26096
829.829	26062
829.968	26259
830.107	26168
830.246	26092
830.385	26012
830.524	25841
830.663	25936
830.802	25860
830.941	25791
831.08	25757
831.219	25852
831.357	25769
831.496	26054
831.635	25693
831.774	25712
831.913	25567
832.051	25567
832.19	25597
832.329	25479
832.467	25464
832.606	25472
832.744	25289
832.883	25388
833.022	25285
833.16	25266
833.299	25388
833.437	25308
833.576	25472
833.714	25460
833.852	25552
833.991	25525
834.129	25472
834.267	25567
834.406	25396
834.544	25658
834.682	25411
834.821	25381
834.959	25708
835.097	25419
835.235	25464
835.373	25499
835.511	25495
835.65	25373
835.788	25388
835.926	25217
836.064	25148
836.202	25103
836.34	25327
836.478	25388
836.615	25312
836.753	25449
836.891	25464
837.029	25403
837.167	25266
837.305	25297
837.443	25228
837.58	25069
837.718	25118
837.856	25168
837.993	25076
838.131	25103
838.269	24973
838.406	25027
838.544	24916
838.681	24749
838.819	24753
838.956	24620
839.094	24582
839.231	24620
839.369	24878
839.506	25080
839.643	24817
839.781	24589
839.918	24464
840.055	24692
840.193	24517
840.33	24464
840.467	24471
840.604	24486
840.742	24852
840.879	24380
841.016	24456
841.153	24308
841.29	24677
841.427	24388
841.564	24464
841.701	24544
841.838	24475
841.975	24456
842.112	24372
842.249	24509
842.385	24277
842.522	24467
842.659	24494
842.796	24281
842.933	24224
843.069	24167
843.206	24296
843.343	24338
843.479	24304
843.616	24365
843.752	24041
843.889	24117
844.025	24258
844.162	23916
844.298	24213
844.435	23977
844.571	23999
844.708	24087
844.844	24174
844.98	24201
845.117	24125
845.253	23935
845.389	23927
845.525	23908
845.661	23866
845.798	23752
845.934	23684
846.07	23665
846.206	23760
846.342	23942
846.478	23783
846.614	23520
846.75	23383
846.886	23444
847.022	23558
847.158	23547
847.294	23452
847.429	23531
847.565	23353
847.701	23767
847.837	23288
847.972	23090
848.108	23318
848.244	23239
848.379	23102
848.515	23197
848.65	22919
848.786	23132
848.921	23037
849.057	23090
849.192	23090
849.328	23261
849.463	23124
849.598	23147
849.734	22972
849.869	22911
850.004	22869
850.14	22965
850.275	22759
850.41	22828
850.545	22790
850.68	22889
850.815	22915
850.95	22866
851.085	22862
851.22	22953
851.355	22755
851.49	22771
851.625	22824
851.76	22733
851.895	22816
852.03	22908
852.165	22862
852.299	22828
852.434	22873
852.569	22881
852.703	22767
852.838	22911
852.973	23064
853.107	22843
853.242	22824
853.376	22660
853.511	22584
853.645	22687
853.78	22778
853.914	22691
854.048	22569
854.183	22611
854.317	22797
854.451	22885
854.585	22733
854.72	22588
854.854	22626
854.988	22660
855.122	22592
855.256	22500
855.39	22615
855.524	22698
855.658	22599
855.792	22603
855.926	22710
856.06	22603
856.194	22698
856.327	22675
856.461	22588
856.595	22573
856.729	22645
856.862	22748
856.996	22736
857.13	22736
857.263	22729
857.397	22759
857.53	22577
857.664	22656
857.797	22759
857.931	22786
858.064	22710
858.197	22869
858.331	22660
858.464	22512
858.597	22641
858.731	22641
858.864	22664
858.997	22630
859.13	22618
859.263	22634
859.396	22774
859.529	22656
859.662	22607
859.795	22523
859.928	22664
860.061	22721
860.194	22934
860.327	22763
860.46	22653
860.592	22854
860.725	22820
860.858	22679
860.99	22694
861.123	22470
861.256	22569
861.388	22649
861.521	23353
861.653	22508
861.786	22459
861.918	22462
862.05	22527
862.183	22527
862.315	22527
862.447	22550
862.58	22493
862.712	22451
862.844	22382
862.976	22382
863.108	22398
863.24	22816
863.372	22246
863.504	22413
863.636	22451
863.768	22421
863.9	22413
864.032	22322
864.164	22325
864.296	22489
864.428	22371
864.559	22417
864.691	22459
864.823	22333
864.954	22253
865.086	22268
865.217	22150
865.349	22185
865.48	22341
865.612	22337
865.743	22325
865.875	22219
866.006	22204
866.137	22196
866.269	22173
866.4	22185
866.531	22162
866.662	22150
866.793	22040
866.924	22135
867.055	22246
867.186	22249
867.317	22078
867.448	22051
867.579	22150
867.71	22093
867.841	22097
867.972	22280
868.103	22181
868.233	22128
868.364	22101
868.495	22242
868.625	22379
868.756	22531
868.886	22306
869.017	22291
869.147	22500
869.278	22557
869.408	22440
869.539	22436
869.669	22428
869.799	22550
869.929	22668
870.06	22573
870.19	22683
870.32	22679
870.45	22641
870.58	22828
870.71	22965
870.84	22919
870.97	22835
871.1	22767
871.23	22904
871.36	23056
871.489	22831
871.619	22953
871.749	22949
871.879	22999
872.008	23284
872.138	22908
872.267	22927
872.397	22961
872.526	22854
872.656	22839
872.785	22839
872.915	23083
873.044	23174
873.173	23010
873.303	23094
873.432	23079
873.561	23048
873.69	23029
873.819	22957
873.948	23136
874.077	22972
874.206	23071
874.335	23048
874.464	23265
874.593	23334
874.722	23246
874.851	23296
874.979	23250
875.108	23227
875.237	23280
875.365	23136
875.494	23216
875.623	23231
875.751	23143
875.88	23273
876.008	23368
876.136	23330
876.265	23764
876.393	23714
876.521	23783
876.65	23752
876.778	23566
876.906	23703
877.034	23547
877.162	23619
877.29	23608
877.418	23566
877.546	23471
877.674	23600
877.802	23539
877.93	23627
878.058	23429
878.185	23429
878.313	23395
878.441	23528
878.568	23463
878.696	23478
878.824	23558
878.951	23710
879.079	23775
879.206	23916
879.333	23695
879.461	23623
879.588	23634
879.715	23745
879.842	23851
879.97	23649
880.097	23398
880.224	23239
880.351	23440
880.478	23402
880.605	23406
880.732	23284
880.859	23577
880.986	23421
881.112	23383
881.239	23292
881.366	23117
881.493	23151
881.619	23006
881.746	22965
881.872	22915
881.999	22976
882.125	22873
882.252	23003
882.378	22961
882.505	23060
882.631	22953
882.757	22504
882.883	22755
883.01	22656
883.136	22512
883.262	22565
883.388	22432
883.514	22596
883.64	22672
883.766	22478
883.892	22367
884.018	22360
884.143	22675
884.269	22622
884.395	22238
884.52	22238
884.646	22226
884.772	22394
884.897	22082
885.023	22257
885.148	22276
885.274	22478
885.399	22375
885.524	22131
885.65	22200
885.775	22284
885.9	22363
886.025	22356
886.15	22211
886.275	22226
886.4	22051
886.525	22162
886.65	22223
886.775	22093
886.9	22322
887.025	22561
887.149	22265
887.274	22120
887.399	21987
887.523	22112
887.648	22070
887.773	21907
887.897	22105
888.021	22002
888.146	22036
888.27	22006
888.395	22051
888.519	22124
888.643	21998
888.767	22063
888.891	21960
889.015	21778
889.139	21915
889.263	21652
889.387	21823
889.511	22044
889.635	21857
889.759	21751
889.883	21728
890.006	21759
890.13	22040
890.254	21686
890.377	21743
890.501	21561
890.624	21603
890.748	21667
890.871	21393
890.995	21306
891.118	21382
891.241	21321
891.364	21317
891.488	21515
891.611	21405
891.734	21321
891.857	21408
891.98	21363
892.103	21306
892.226	21310
892.349	21256
892.471	21066
892.594	21230
892.717	21279
892.839	21264
892.962	21226
893.085	21275
893.207	21252
893.33	21051
893.452	21150
893.575	21382
893.697	21116
893.819	21435
893.941	21492
894.064	21393
894.186	21093
894.308	21131
894.43	21355
894.552	21374
894.674	21260
894.796	21203
894.918	21260
895.04	21165
895.161	21287
895.283	21207
895.405	21184
895.526	21287
895.648	21310
895.769	21157
895.891	21146
896.012	21252
896.134	21306
896.255	21256
896.376	21245
896.498	21340
896.619	21256
896.74	21192
896.861	21226
896.982	21477
897.103	21724
897.224	21439
897.345	21291
897.466	21386
897.587	21428
897.708	21477
897.828	21488
897.949	21363
898.07	21207
898.19	21348
898.311	21416
898.431	21408
898.552	21386
898.672	21450
898.792	21408
898.913	21378
899.033	21287
899.153	21142
899.273	21055
899.393	21039
899.513	21161
899.633	21157
899.753	21199
899.873	20967
899.993	21268
900.113	21055
900.232	21138
900.352	21077
900.472	21001
900.591	20811
900.711	20891
900.83	20902
900.95	20937
901.069	21013
901.189	20941
901.308	20514
901.427	20438
901.546	20484
901.665	20400
901.784	20465
901.904	20267
902.023	20389
902.141	20058
902.26	19963
902.379	20065
902.498	19936
902.617	19871
902.735	20035
902.854	19997
902.973	19753
903.091	19746
903.21	19597
903.328	19552
903.446	19586
903.565	19506
903.683	19426
903.801	19251
903.919	19407
904.038	19384
904.156	19129
904.274	19297
904.392	19244
904.51	19168
904.627	19152
904.745	19255
904.863	19255
904.981	18954
905.098	18817
905.216	18852
905.334	18909
905.451	18871
905.569	18859
905.686	18901
905.803	18890
905.921	18597
906.038	18749
906.155	18620
906.272	18498
906.389	18570
906.506	18395
906.623	18361
906.74	18353
906.857	18232
906.974	18285
907.091	18418
907.208	18525
907.324	18456
907.441	18254
907.557	18053
907.674	18072
907.79	17973
907.907	18190
908.023	18163
908.139	18030
908.256	17999
908.372	17931
908.488	17805
908.604	17813
908.72	17756
908.836	17767
908.952	17733
909.068	17813
909.184	17790
909.3	17760
909.415	17790
909.531	17767
909.647	17516
909.762	17440
909.878	17368
909.993	17482
910.108	17482
910.224	17379
910.339	17471
910.454	17231
910.57	17307
910.685	17094
910.8	17604
910.915	17467
911.03	17178
911.145	17083
911.259	17113
911.374	17090
911.489	17003
911.604	16828
911.718	16733
911.833	16801
911.947	16634
912.062	16713
912.176	16675
912.291	16763
912.405	16752
912.519	16938
912.633	16923
912.748	16839
912.862	16847
912.976	16523
913.09	16538
913.204	16580
913.318	16580
913.431	16706
913.545	16679
913.659	16622
913.772	16618
913.886	16417
914	16242
914.113	16485
914.226	16527
914.34	16440
914.453	16219
914.566	16455
914.68	16322
914.793	16325
914.906	16154
915.019	16044
915.132	15911
915.245	15983
915.358	15903
915.47	16002
915.583	15960
915.696	15953
915.809	16120
915.921	16211
916.034	15842
916.146	15850
916.259	15857
916.371	15994
916.483	15850
916.595	15819
916.708	15854
916.82	15724
916.932	15762
917.044	15800
917.156	15743
917.268	15564
917.38	15690
917.491	15606
917.603	15637
917.715	15629
917.826	15663
917.938	15561
918.049	15443
918.161	15515
918.272	15595
918.384	15637
918.495	15591
918.606	15428
918.717	15272
918.828	15291
918.939	15268
919.05	15252
919.161	15245
919.272	15104
919.383	15184
919.494	15313
919.604	15485
919.715	15260
919.826	15157
919.936	15332
920.047	15317
920.157	15302
920.267	15488
920.378	15279
920.488	15249
920.598	15397
920.708	15629
920.818	15382
920.928	15481
921.038	15576
921.148	15447
921.258	15348
921.368	15074
921.477	15104
921.587	15055
921.697	14781
921.806	15001
921.916	14872
922.025	14625
922.134	14640
922.244	14560
922.353	14701
922.462	14625
922.571	14419
922.68	14256
922.789	14214
922.898	14313
923.007	14225
923.116	14248
923.224	14271
923.333	14168
923.442	14050
923.55	14115
923.659	14164
923.767	14081
923.876	14046
923.984	14115
924.092	13944
924.201	14065
924.309	13997
924.417	13947
924.525	13887
924.633	13944
924.741	14800
924.849	13685
924.956	13818
925.064	13655
925.172	13677
925.279	13605
925.387	13693
925.494	13685
925.602	13761
925.709	13620
925.816	13480
925.924	13590
926.031	13613
926.138	13518
926.245	13681
926.352	13491
926.459	13597
926.566	13586
926.673	13457
926.779	13445
926.886	13472
926.993	13194
927.099	13171
927.206	13152
927.312	13160
927.419	13228
927.525	13179
927.631	13133
927.737	13110
927.843	13046
927.95	12894
928.056	13008
928.162	12897
928.267	13042
928.373	13510
928.479	13061
928.585	12852
928.69	12916
928.796	12924
928.901	12905
929.007	12646
929.112	12859
929.218	12783
929.323	12741
929.428	12688
929.533	12783
929.638	12601
929.743	12642
929.848	12726
929.953	12688
930.058	12589
930.163	12334
930.267	12403
930.372	12475
930.477	12414
930.581	12528
930.685	12426
930.79	12281
930.894	12285
930.998	12277
931.103	12361
931.207	11992
931.311	11931
931.415	11805
931.519	11627
931.623	11570
