Data from test_V78500241_989.txt Node
Date: Fri Mar 25 15:48:39 CST 2022
User: usil
Spectrometer: V785-0024
Trigger mode: 0
Integration Time (sec): 4.000000E-1
Scans to average: 1
Nonlinearity correction enabled: false
Boxcar width: 0
Storing dark spectrum: false
XAxis mode: Wavelengths
Number of Pixels in Spectrum: 1024
>>>>>Begin Spectral Data<<<<<
801.071	28459
801.214	28470
801.356	28188
801.499	28048
801.641	27861
801.783	28006
801.926	28109
802.068	27903
802.211	27907
802.353	27812
802.496	27675
802.638	27610
802.78	27622
802.923	27660
803.065	27728
803.208	27675
803.35	27564
803.492	27781
803.635	27762
803.777	27637
803.919	27835
804.061	28257
804.204	27743
804.346	27808
804.488	27800
804.63	27804
804.773	27914
804.915	27835
805.057	27888
805.199	27838
805.341	28093
805.483	28017
805.626	28078
805.768	27873
805.91	27903
806.052	28067
806.194	27945
806.336	28131
806.478	28051
806.62	28128
806.762	28196
806.904	28352
807.046	28634
807.188	28348
807.33	28504
807.472	28656
807.614	28478
807.756	28386
807.898	28234
808.04	28147
808.182	28242
808.324	28367
808.465	28394
808.607	28706
808.749	28702
808.891	28744
809.033	28828
809.174	28672
809.316	28653
809.458	28596
809.6	28653
809.741	28904
809.883	28801
810.025	28877
810.166	28927
810.308	28976
810.45	28854
810.591	28900
810.733	28786
810.875	28626
811.016	28535
811.158	28622
811.299	28752
811.441	28771
811.582	28927
811.724	28702
811.865	28767
812.007	28965
812.148	28725
812.29	28713
812.431	29060
812.573	29109
812.714	29185
812.855	29250
812.997	29288
813.138	29471
813.279	29284
813.421	29261
813.562	29223
813.703	29014
813.845	28919
813.986	28664
814.127	28485
814.268	28379
814.41	28478
814.551	28390
814.692	28417
814.833	28432
814.974	28413
815.115	28436
815.256	28401
815.397	28257
815.539	28234
815.68	28314
815.821	28169
815.962	28150
816.103	28223
816.244	28166
816.385	27880
816.526	28067
816.666	27762
816.807	27747
816.948	27857
817.089	27831
817.23	27732
817.371	27717
817.512	27747
817.653	27629
817.793	27629
817.934	27561
818.075	27675
818.216	27675
818.356	27690
818.497	27728
818.638	27637
818.778	27485
818.919	27420
819.06	27542
819.2	27610
819.341	27644
819.481	27656
819.622	27994
819.762	28013
819.903	27831
820.043	27873
820.184	27960
820.324	27854
820.465	27895
820.605	27880
820.746	27918
820.886	27778
821.026	27838
821.167	27831
821.307	27956
821.447	27720
821.588	27599
821.728	27504
821.868	27287
822.008	27241
822.149	27112
822.289	27180
822.429	27009
822.569	26895
822.709	26883
822.849	26781
822.99	26746
823.13	26811
823.27	26670
823.41	26594
823.55	26484
823.69	26541
823.83	26552
823.97	26495
824.11	26320
824.25	26282
824.389	26370
824.529	26336
824.669	26473
824.809	26495
824.949	26480
825.089	26488
825.228	26408
825.368	26172
825.508	26145
825.648	26259
825.787	26206
825.927	26256
826.067	26210
826.206	26317
826.346	26248
826.485	26282
826.625	26237
826.765	26507
826.904	26183
827.044	26043
827.183	26119
827.323	25936
827.462	25913
827.601	25947
827.741	25898
827.88	25970
828.02	25837
828.159	25871
828.298	25963
828.437	25959
828.577	25845
828.716	26031
828.855	25837
828.994	25582
829.134	25635
829.273	25712
829.412	25594
829.551	25594
829.69	25521
829.829	25624
829.968	25822
830.107	25647
830.246	25586
830.385	25605
830.524	25548
830.663	25339
830.802	25285
830.941	25263
831.08	25289
831.219	25285
831.357	25304
831.496	25495
831.635	25316
831.774	25247
831.913	25129
832.051	25042
832.19	25065
832.329	25046
832.467	24878
832.606	24856
832.744	24901
832.883	24962
833.022	24863
833.16	24901
833.299	24920
833.437	24992
833.576	24920
833.714	25072
833.852	25152
833.991	24928
834.129	25061
834.267	25126
834.406	25027
834.544	24954
834.682	25110
834.821	24939
834.959	25107
835.097	24871
835.235	24951
835.373	24852
835.511	25038
835.65	24810
835.788	24829
835.926	24700
836.064	24578
836.202	24692
836.34	24821
836.478	24863
836.615	24707
836.753	24764
836.891	24871
837.029	24848
837.167	24806
837.305	24673
837.443	24589
837.58	24578
837.718	24578
837.856	24616
837.993	24456
838.131	24505
838.269	24456
838.406	24464
838.544	24448
838.681	24220
838.819	24281
838.956	24178
839.094	24041
839.231	24148
839.369	24292
839.506	24536
839.643	24350
839.781	24152
839.918	23965
840.055	24038
840.193	23999
840.33	24018
840.467	24079
840.604	24095
840.742	24197
840.879	23855
841.016	24076
841.153	23920
841.29	24003
841.427	23923
841.564	23908
841.701	24194
841.838	23920
841.975	23935
842.112	23916
842.249	23809
842.385	23863
842.522	23980
842.659	23809
842.796	23756
842.933	23821
843.069	23676
843.206	23638
843.343	23859
843.479	23809
843.616	23729
843.752	23547
843.889	23592
844.025	23680
844.162	23535
844.298	23657
844.435	23615
844.571	23467
844.708	23608
844.844	23634
844.98	23573
845.117	23592
845.253	23474
845.389	23387
845.525	23505
845.661	23436
845.798	23292
845.934	23330
846.07	23254
846.206	23288
846.342	23307
846.478	23246
846.614	22976
846.75	22961
846.886	22919
847.022	23109
847.158	23064
847.294	23041
847.429	23083
847.565	22885
847.701	23170
847.837	22626
847.972	22687
848.108	22809
848.244	22729
848.379	22535
848.515	22542
848.65	22615
848.786	22592
848.921	22603
849.057	22672
849.192	22634
849.328	22569
849.463	22489
849.598	22516
849.734	22375
849.869	22329
850.004	22443
850.14	22348
850.275	22341
850.41	22261
850.545	22341
850.68	22261
850.815	22360
850.95	22341
851.085	22451
851.22	22504
851.355	22390
851.49	22398
851.625	22386
851.76	22200
851.895	22219
852.03	22284
852.165	22287
852.299	22504
852.434	22367
852.569	22295
852.703	22375
852.838	22413
852.973	22436
853.107	22485
853.242	22223
853.376	22158
853.511	22067
853.645	22154
853.78	22280
853.914	22257
854.048	22177
854.183	22097
854.317	22200
854.451	22325
854.585	22207
854.72	22143
854.854	22261
854.988	22013
855.122	21994
855.256	22120
855.39	22067
855.524	22173
855.658	22150
855.792	22162
855.926	22276
856.06	22253
856.194	22253
856.327	22223
856.461	22059
856.595	22055
856.729	22105
856.862	22265
856.996	22185
857.13	22337
857.263	22280
857.397	22265
857.53	22169
857.664	22158
857.797	22196
857.931	22185
858.064	22242
858.197	22154
858.331	22101
858.464	22036
858.597	22017
858.731	22169
858.864	22067
858.997	22063
859.13	22166
859.263	22162
859.396	22272
859.529	22090
859.662	22112
859.795	22006
859.928	22147
860.061	22242
860.194	22409
860.327	22082
860.46	22139
860.592	22207
860.725	22295
860.858	22291
860.99	22287
861.123	22048
861.256	22070
861.388	22120
861.521	22816
861.653	21964
861.786	21892
861.918	21903
862.05	22029
862.183	22055
862.315	22063
862.447	22173
862.58	21998
862.712	21865
862.844	21797
862.976	21987
863.108	21926
863.24	22234
863.372	21778
863.504	21842
863.636	21739
863.768	21880
863.9	21907
864.032	21755
864.164	21819
864.296	21884
864.428	21998
864.559	21892
864.691	21956
864.823	21899
864.954	21823
865.086	21861
865.217	21778
865.349	21614
865.48	21606
865.612	21770
865.743	21827
865.875	21781
866.006	21705
866.137	21644
866.269	21854
866.4	21641
866.531	21679
866.662	21534
866.793	21701
866.924	21625
867.055	21766
867.186	21641
867.317	21728
867.448	21583
867.579	21614
867.71	21633
867.841	21572
867.972	21614
868.103	21576
868.233	21648
868.364	21660
868.495	21698
868.625	21983
868.756	21945
868.886	21724
869.017	21808
869.147	22017
869.278	22044
869.408	21991
869.539	21873
869.669	21994
869.799	21880
869.929	22055
870.06	21991
870.19	22253
870.32	22253
870.45	22124
870.58	22261
870.71	22478
870.84	22284
870.97	22276
871.1	22382
871.23	22440
871.36	22497
871.489	22295
871.619	22577
871.749	22523
871.879	22535
872.008	22561
872.138	22489
872.267	22493
872.397	22287
872.526	22310
872.656	22325
872.785	22371
872.915	22497
873.044	22478
873.173	22588
873.303	22618
873.432	22493
873.561	22615
873.69	22622
873.819	22561
873.948	22538
874.077	22519
874.206	22607
874.335	22523
874.464	22561
874.593	22793
874.722	22653
874.851	22729
874.979	22717
875.108	22656
875.237	22626
875.365	22577
875.494	22634
875.623	22740
875.751	22740
875.88	22622
876.008	22877
876.136	22923
876.265	23151
876.393	23216
876.521	23147
876.65	23155
876.778	23136
876.906	23060
877.034	23006
877.162	23071
877.29	23060
877.418	23083
877.546	23041
877.674	23086
877.802	23075
877.93	23075
878.058	23044
878.185	22995
878.313	23018
878.441	23098
878.568	22869
878.696	23010
878.824	23086
878.951	23159
879.079	23151
879.206	23318
879.333	23296
879.461	23174
879.588	23189
879.715	23178
879.842	23395
879.97	23174
880.097	22923
880.224	22930
880.351	22927
880.478	22866
880.605	22892
880.732	22740
880.859	23128
880.986	22889
881.112	22961
881.239	22740
881.366	22508
881.493	22565
881.619	22485
881.746	22352
881.872	22459
881.999	22470
882.125	22344
882.252	22470
882.378	22535
882.505	22618
882.631	22398
882.757	22090
882.883	22291
883.01	22082
883.136	22010
883.262	22120
883.388	21979
883.514	22196
883.64	22154
883.766	21994
883.892	21838
884.018	21918
884.143	21987
884.269	22291
884.395	21869
884.52	21812
884.646	21808
884.772	21778
884.897	21728
885.023	21770
885.148	21865
885.274	22029
885.399	21781
885.524	21766
885.65	21778
885.775	21835
885.9	21759
886.025	21846
886.15	21873
886.275	21861
886.4	21644
886.525	21747
886.65	21663
886.775	21739
886.9	21945
887.025	21895
887.149	21732
887.274	21507
887.399	21477
887.523	21614
887.648	21500
887.773	21526
887.897	21564
888.021	21454
888.146	21466
888.27	21686
888.395	21701
888.519	21545
888.643	21507
888.767	21561
888.891	21534
889.015	21389
889.139	21294
889.263	21359
889.387	21325
889.511	21420
889.635	21481
889.759	21321
889.883	21218
890.006	21287
890.13	21431
890.254	21306
890.377	21233
890.501	21081
890.624	20937
890.748	21150
890.871	20979
890.995	20804
891.118	20845
891.241	20880
891.364	20838
891.488	21020
891.611	20868
891.734	20838
891.857	20937
891.98	20921
892.103	20921
892.226	20830
892.349	20872
892.471	20659
892.594	20838
892.717	20815
892.839	20811
892.962	20705
893.085	20842
893.207	20845
893.33	20674
893.452	20762
893.575	20659
893.697	20743
893.819	20785
893.941	20986
894.064	20868
894.186	20686
894.308	20663
894.43	20777
894.552	20933
894.674	20667
894.796	20659
894.918	20743
895.04	20648
895.161	20895
895.283	20765
895.405	20754
895.526	20823
895.648	20712
895.769	20724
895.891	20796
896.012	20986
896.134	20899
896.255	20746
896.376	20720
896.498	20716
896.619	20746
896.74	20712
896.861	20880
896.982	20971
897.103	21188
897.224	21024
897.345	21032
897.466	21047
897.587	21020
897.708	21058
897.828	20925
897.949	20952
898.07	20762
898.19	20963
898.311	20986
898.431	20979
898.552	20880
898.672	20990
898.792	21062
898.913	20975
899.033	20849
899.153	20785
899.273	20727
899.393	20667
899.513	20655
899.633	20864
899.753	20724
899.873	20716
899.993	20659
900.113	20629
900.232	20568
900.352	20594
900.472	20629
900.591	20450
900.711	20609
900.83	20465
900.95	20629
901.069	20583
901.189	20275
901.308	20130
901.427	20008
901.546	20058
901.665	20084
901.784	20092
901.904	19906
902.023	19822
902.141	19715
902.26	19601
902.379	19651
902.498	19556
902.617	19506
902.735	19563
902.854	19434
902.973	19438
903.091	19244
903.21	19236
903.328	19179
903.446	19156
903.565	19023
903.683	18932
903.801	18833
903.919	18954
904.038	18935
904.156	18768
904.274	18806
904.392	18848
904.51	18658
904.627	18802
904.745	18776
904.863	18825
904.981	18627
905.098	18479
905.216	18376
905.334	18437
905.451	18380
905.569	18372
905.686	18464
905.803	18422
905.921	18228
906.038	18350
906.155	18327
906.272	18133
906.389	18110
906.506	18026
906.623	18068
906.74	17939
906.857	17798
906.974	17874
907.091	17992
907.208	18133
907.324	18019
907.441	17805
907.557	17752
907.674	17764
907.79	17646
907.907	17581
908.023	17672
908.139	17691
908.256	17668
908.372	17592
908.488	17535
908.604	17505
908.72	17356
908.836	17448
908.952	17429
909.068	17448
909.184	17547
909.3	17455
909.415	17486
909.531	17474
909.647	17121
909.762	17083
909.878	17071
909.993	17170
910.108	16984
910.224	17098
910.339	17140
910.454	16919
910.57	16885
910.685	16805
910.8	17109
910.915	17006
911.03	16892
911.145	16839
911.259	16630
911.374	16596
911.489	16550
911.604	16561
911.718	16348
911.833	16474
911.947	16398
912.062	16337
912.176	16459
912.291	16402
912.405	16523
912.519	16603
912.633	16588
912.748	16409
912.862	16356
912.976	16238
913.09	16101
913.204	16101
913.318	16223
913.431	16386
913.545	16333
913.659	16303
913.772	16173
913.886	15994
914	16029
914.113	16139
914.226	16105
914.34	16086
914.453	15892
914.566	15937
914.68	15918
914.793	15972
914.906	15751
915.019	15618
915.132	15549
915.245	15652
915.358	15637
915.47	15576
915.583	15603
915.696	15660
915.809	15762
915.921	15709
916.034	15515
916.146	15515
916.259	15454
916.371	15538
916.483	15542
916.595	15386
916.708	15454
916.82	15431
916.932	15355
917.044	15408
917.156	15287
917.268	15275
917.38	15207
917.491	15268
917.603	15291
917.715	15317
917.826	15317
917.938	15055
918.049	15199
918.161	15161
918.272	15401
918.384	15386
918.495	15150
918.606	15074
918.717	15005
918.828	14998
918.939	14998
919.05	14914
919.161	14902
919.272	14724
919.383	14811
919.494	14979
919.604	15275
919.715	15055
919.826	14937
919.936	14967
920.047	14967
920.157	15009
920.267	15135
920.378	14975
920.488	14956
920.598	15127
920.708	15222
920.818	15047
920.928	15123
921.038	15180
921.148	15161
921.258	14933
921.368	14891
921.477	14697
921.587	14560
921.697	14556
921.806	14746
921.916	14564
922.025	14347
922.134	14324
922.244	14301
922.353	14324
922.462	14183
922.571	14187
922.68	14008
922.789	13944
922.898	13906
923.007	13864
923.116	13936
923.224	13947
923.333	13951
923.442	13849
923.55	13803
923.659	13795
923.767	13807
923.876	13696
923.984	13795
924.092	13647
924.201	13693
924.309	13670
924.417	13662
924.525	13636
924.633	13624
924.741	14598
924.849	13510
924.956	13510
925.064	13377
925.172	13278
925.279	13282
925.387	13331
925.494	13377
925.602	13468
925.709	13449
925.816	13266
925.924	13301
926.031	13343
926.138	13297
926.245	13304
926.352	13103
926.459	13320
926.566	13392
926.673	13194
926.779	13046
926.886	13057
926.993	12993
927.099	12943
927.206	12878
927.312	12757
927.419	12958
927.525	12890
927.631	13023
927.737	12795
927.843	12662
927.95	12650
928.056	12669
928.162	12745
928.267	12734
928.373	13274
928.479	12734
928.585	12502
928.69	12654
928.796	12703
928.901	12585
929.007	12407
929.112	12559
929.218	12574
929.323	12479
929.428	12422
929.533	12525
929.638	12410
929.743	12380
929.848	12464
929.953	12277
930.058	12281
930.163	12057
930.267	12110
930.372	12254
930.477	12091
930.581	12365
930.685	12194
930.79	11973
930.894	11980
930.998	11923
931.103	12068
931.207	11760
931.311	11592
931.415	11581
931.519	11414
931.623	11345
