Data from test_V78500241_1194.txt Node
Date: Fri Mar 25 15:50:04 CST 2022
User: usil
Spectrometer: V785-0024
Trigger mode: 0
Integration Time (sec): 4.000000E-1
Scans to average: 1
Nonlinearity correction enabled: false
Boxcar width: 0
Storing dark spectrum: false
XAxis mode: Wavelengths
Number of Pixels in Spectrum: 1024
>>>>>Begin Spectral Data<<<<<
801.071	28713
801.214	28717
801.356	28333
801.499	28128
801.641	28314
801.783	28150
801.926	28344
802.068	28181
802.211	28143
802.353	27975
802.496	27907
802.638	27846
802.78	27968
802.923	27934
803.065	27770
803.208	27797
803.35	27899
803.492	27987
803.635	27918
803.777	28051
803.919	28154
804.061	28508
804.204	28204
804.346	28185
804.488	27998
804.63	27979
804.773	28017
804.915	28200
805.057	28287
805.199	28059
805.341	28226
805.483	28219
805.626	28207
805.768	28215
805.91	28200
806.052	28257
806.194	28090
806.336	28405
806.478	28306
806.62	28276
806.762	28371
806.904	28607
807.046	28801
807.188	28805
807.33	28733
807.472	28805
807.614	28706
807.756	28656
807.898	28611
808.04	28573
808.182	28672
808.324	28694
808.465	28698
808.607	28771
808.749	29022
808.891	29140
809.033	29277
809.174	29079
809.316	28965
809.458	28927
809.6	28984
809.741	29140
809.883	29197
810.025	29235
810.166	29368
810.308	29307
810.45	29265
810.591	29193
810.733	29098
810.875	28961
811.016	28995
811.158	28877
811.299	29109
811.441	29178
811.582	29254
811.724	29086
811.865	28946
812.007	29041
812.148	29044
812.29	29094
812.431	29174
812.573	29368
812.714	29467
812.855	29642
812.997	29691
813.138	29916
813.279	29855
813.421	29562
813.562	29482
813.703	29448
813.845	29261
813.986	28771
814.127	28778
814.268	28717
814.41	28725
814.551	28752
814.692	28915
814.833	28698
814.974	28569
815.115	28679
815.256	28630
815.397	28584
815.539	28603
815.68	28455
815.821	28409
815.962	28367
816.103	28542
816.244	28500
816.385	28375
816.526	28257
816.666	28166
816.807	28025
816.948	27991
817.089	28082
817.23	28013
817.371	27979
817.512	28051
817.653	28025
817.793	27914
817.934	28002
818.075	28215
818.216	27994
818.356	28090
818.497	27983
818.638	27656
818.778	27682
818.919	27770
819.06	27903
819.2	27793
819.341	27941
819.481	27956
819.622	28116
819.762	28500
819.903	28291
820.043	28249
820.184	28318
820.324	28280
820.465	28249
820.605	28253
820.746	28185
820.886	28120
821.026	28086
821.167	28101
821.307	28234
821.447	28036
821.588	28204
821.728	27842
821.868	27701
822.008	27557
822.149	27507
822.289	27462
822.429	27321
822.569	27226
822.709	27154
822.849	26929
822.99	27001
823.13	27043
823.27	26975
823.41	26823
823.55	26807
823.69	27043
823.83	26826
823.97	26883
824.11	26727
824.25	26678
824.389	26701
824.529	26731
824.669	26739
824.809	26887
824.949	26769
825.089	26701
825.228	26746
825.368	26583
825.508	26503
825.648	26556
825.787	26632
825.927	26590
826.067	26590
826.206	26514
826.346	26522
826.485	26606
826.625	26530
826.765	26773
826.904	26609
827.044	26381
827.183	26385
827.323	26176
827.462	26427
827.601	26195
827.741	26381
827.88	26275
828.02	26233
828.159	26214
828.298	26400
828.437	26347
828.577	26206
828.716	26358
828.855	26134
828.994	26103
829.134	25913
829.273	26005
829.412	25894
829.551	25944
829.69	26050
829.829	25925
829.968	26008
830.107	26065
830.246	25818
830.385	25917
830.524	25837
830.663	25666
830.802	25548
830.941	25586
831.08	25597
831.219	25647
831.357	25742
831.496	25769
831.635	25460
831.774	25537
831.913	25563
832.051	25285
832.19	25266
832.329	25453
832.467	25266
832.606	25145
832.744	25331
832.883	25297
833.022	25228
833.16	25221
833.299	25209
833.437	25316
833.576	25369
833.714	25362
833.852	25335
833.991	25301
834.129	25487
834.267	25301
834.406	25343
834.544	25308
834.682	25411
834.821	25236
834.959	25434
835.097	25042
835.235	25263
835.373	25335
835.511	25244
835.65	25168
835.788	25126
835.926	25103
836.064	24981
836.202	25023
836.34	25122
836.478	25179
836.615	25198
836.753	25095
836.891	25202
837.029	25152
837.167	25023
837.305	25069
837.443	25053
837.58	25000
837.718	25019
837.856	25152
837.993	24966
838.131	24859
838.269	24802
838.406	24920
838.544	24726
838.681	24528
838.819	24490
838.956	24292
839.094	24464
839.231	24544
839.369	24544
839.506	24783
839.643	24700
839.781	24498
839.918	24232
840.055	24330
840.193	24403
840.33	24171
840.467	24357
840.604	24410
840.742	24589
840.879	24224
841.016	24300
841.153	24174
841.29	24384
841.427	24315
841.564	24350
841.701	24350
841.838	24243
841.975	24171
842.112	24209
842.249	24106
842.385	24045
842.522	24239
842.659	24171
842.796	24057
842.933	24144
843.069	23996
843.206	23988
843.343	24121
843.479	23946
843.616	24102
843.752	23824
843.889	23893
844.025	24030
844.162	23840
844.298	24022
844.435	23821
844.571	23733
844.708	23866
844.844	24049
844.98	24041
845.117	23942
845.253	23889
845.389	23611
845.525	23752
845.661	23646
845.798	23524
845.934	23695
846.07	23566
846.206	23589
846.342	23824
846.478	23554
846.614	23402
846.75	23250
846.886	23231
847.022	23318
847.158	23151
847.294	23246
847.429	23326
847.565	23235
847.701	23493
847.837	22885
847.972	23014
848.108	23029
848.244	23018
848.379	22934
848.515	22904
848.65	22919
848.786	22900
848.921	22873
849.057	22953
849.192	22927
849.328	23033
849.463	22984
849.598	22812
849.734	22854
849.869	22721
850.004	22630
850.14	22729
850.275	22641
850.41	22557
850.545	22516
850.68	22577
850.815	22721
850.95	22698
851.085	22858
851.22	22767
851.355	22664
851.49	22618
851.625	22611
851.76	22542
851.895	22493
852.03	22584
852.165	22698
852.299	22702
852.434	22698
852.569	22672
852.703	22626
852.838	22672
852.973	22736
853.107	22717
853.242	22588
853.376	22466
853.511	22322
853.645	22428
853.78	22470
853.914	22554
854.048	22386
854.183	22497
854.317	22485
854.451	22645
854.585	22493
854.72	22386
854.854	22584
854.988	22363
855.122	22421
855.256	22261
855.39	22402
855.524	22470
855.658	22500
855.792	22462
855.926	22531
856.06	22535
856.194	22489
856.327	22314
856.461	22382
856.595	22466
856.729	22462
856.862	22424
856.996	22382
857.13	22561
857.263	22592
857.397	22554
857.53	22519
857.664	22508
857.797	22550
857.931	22573
858.064	22596
858.197	22531
858.331	22417
858.464	22375
858.597	22371
858.731	22466
858.864	22337
858.997	22398
859.13	22668
859.263	22405
859.396	22569
859.529	22523
859.662	22516
859.795	22398
859.928	22542
860.061	22569
860.194	22653
860.327	22588
860.46	22398
860.592	22683
860.725	22611
860.858	22729
860.99	22508
861.123	22390
861.256	22344
861.388	22455
861.521	23189
861.653	22329
861.786	21987
861.918	22265
862.05	22322
862.183	22455
862.315	22493
862.447	22371
862.58	22291
862.712	22192
862.844	22048
862.976	22299
863.108	22211
863.24	22584
863.372	22067
863.504	22268
863.636	22352
863.768	22181
863.9	22177
864.032	22013
864.164	21968
864.296	22249
864.428	22325
864.559	22120
864.691	22249
864.823	22105
864.954	22120
865.086	22238
865.217	22181
865.349	21903
865.48	22090
865.612	22070
865.743	22143
865.875	22010
866.006	21983
866.137	22067
866.269	22013
866.4	21953
866.531	22048
866.662	21945
866.793	22055
866.924	22051
867.055	21953
867.186	21953
867.317	21907
867.448	21880
867.579	21968
867.71	22025
867.841	21899
867.972	21922
868.103	21911
868.233	21941
868.364	21850
868.495	21998
868.625	22093
868.756	22344
868.886	22116
869.017	22284
869.147	22265
869.278	22371
869.408	22230
869.539	22207
869.669	22314
869.799	22287
869.929	22360
870.06	22303
870.19	22523
870.32	22565
870.45	22569
870.58	22592
870.71	22664
870.84	22656
870.97	22713
871.1	22584
871.23	22869
871.36	22664
871.489	22672
871.619	22816
871.749	22752
871.879	22889
872.008	22953
872.138	22820
872.267	22725
872.397	22679
872.526	22599
872.656	22679
872.785	22641
872.915	22824
873.044	22866
873.173	22915
873.303	22877
873.432	22862
873.561	22957
873.69	22854
873.819	22911
873.948	22976
874.077	22862
874.206	22637
874.335	22805
874.464	22961
874.593	23052
874.722	23022
874.851	22995
874.979	23128
875.108	23037
875.237	22976
875.365	22847
875.494	23006
875.623	23022
875.751	22961
875.88	23064
876.008	23060
876.136	23239
876.265	23459
876.393	23554
876.521	23524
876.65	23448
876.778	23455
876.906	23376
877.034	23303
877.162	23395
877.29	23204
877.418	23535
877.546	23376
877.674	23383
877.802	23383
877.93	23277
878.058	23368
878.185	23197
878.313	23292
878.441	23379
878.568	23200
878.696	23284
878.824	23509
878.951	23349
879.079	23630
879.206	23657
879.333	23615
879.461	23471
879.588	23429
879.715	23490
879.842	23581
879.97	23543
880.097	23113
880.224	23208
880.351	23208
880.478	23075
880.605	23086
880.732	23220
880.859	23524
880.986	23200
881.112	23265
881.239	23033
881.366	22858
881.493	22892
881.619	22873
881.746	22786
881.872	22717
881.999	22744
882.125	22531
882.252	22850
882.378	22702
882.505	22896
882.631	22470
882.757	22443
882.883	22500
883.01	22504
883.136	22337
883.262	22329
883.388	22291
883.514	22375
883.64	22550
883.766	22363
883.892	22192
884.018	22147
884.143	22432
884.269	22443
884.395	22006
884.52	22032
884.646	22013
884.772	21899
884.897	22006
885.023	22006
885.148	22272
885.274	22120
885.399	22109
885.524	21998
885.65	22086
885.775	22124
885.9	22051
886.025	22166
886.15	22143
886.275	22048
886.4	22070
886.525	21960
886.65	21934
886.775	21857
886.9	22116
887.025	22223
887.149	22040
887.274	21842
887.399	21854
887.523	21785
887.648	21808
887.773	21751
887.897	21884
888.021	21747
888.146	21778
888.27	21842
888.395	21926
888.519	21728
888.643	21751
888.767	21922
888.891	21804
889.015	21538
889.139	21606
889.263	21591
889.387	21679
889.511	21850
889.635	21717
889.759	21523
889.883	21629
890.006	21603
890.13	21679
890.254	21523
890.377	21397
890.501	21313
890.624	21359
890.748	21412
890.871	21302
890.995	21123
891.118	21135
891.241	21055
891.364	21252
891.488	21325
891.611	21165
891.734	21207
891.857	21230
891.98	21211
892.103	21329
892.226	21169
892.349	21077
892.471	20960
892.594	20937
892.717	21066
892.839	21070
892.962	21066
893.085	21070
893.207	21043
893.33	20948
893.452	20994
893.575	21001
893.697	21055
893.819	21245
893.941	21249
894.064	21211
894.186	21005
894.308	20899
894.43	21070
894.552	21211
894.674	21161
894.796	21005
894.918	20937
895.04	21055
895.161	21169
895.283	21047
895.405	20952
895.526	21013
895.648	21013
895.769	21074
895.891	21051
896.012	21036
896.134	21055
896.255	21138
896.376	20830
896.498	21020
896.619	21180
896.74	20963
896.861	21009
896.982	21298
897.103	21447
897.224	21188
897.345	21310
897.466	21211
897.587	21283
897.708	21393
897.828	21294
897.949	21180
898.07	21032
898.19	21112
898.311	21256
898.431	21252
898.552	21283
898.672	21176
898.792	21230
898.913	21173
899.033	21188
899.153	21074
899.273	20838
899.393	20925
899.513	20971
899.633	20880
899.753	20982
899.873	20960
899.993	20967
900.113	20918
900.232	20861
900.352	20891
900.472	20663
900.591	20697
900.711	20727
900.83	20746
900.95	20887
901.069	20785
901.189	20640
901.308	20339
901.427	20244
901.546	20294
901.665	20290
901.784	20332
901.904	20149
902.023	20039
902.141	19868
902.26	19841
902.379	19807
902.498	19791
902.617	19765
902.735	19860
902.854	19757
902.973	19689
903.091	19426
903.21	19445
903.328	19343
903.446	19403
903.565	19255
903.683	19225
903.801	19088
903.919	19282
904.038	19202
904.156	18996
904.274	19072
904.392	19080
904.51	18981
904.627	19000
904.745	19053
904.863	18993
904.981	18829
905.098	18757
905.216	18741
905.334	18741
905.451	18745
905.569	18692
905.686	18715
905.803	18726
905.921	18521
906.038	18494
906.155	18486
906.272	18338
906.389	18502
906.506	18224
906.623	18323
906.74	18194
906.857	18060
906.974	18057
907.091	18418
907.208	18353
907.324	18220
907.441	18064
907.557	17901
907.674	18011
907.79	17927
907.907	17897
908.023	17954
908.139	17992
908.256	17920
908.372	17741
908.488	17775
908.604	17710
908.72	17566
908.836	17562
908.952	17547
909.068	17623
909.184	17748
909.3	17570
909.415	17547
909.531	17684
909.647	17341
909.762	17368
909.878	17391
909.993	17417
910.108	17315
910.224	17261
910.339	17227
910.454	17178
910.57	17102
910.685	17033
910.8	17391
910.915	17174
911.03	17162
911.145	16911
911.259	17022
911.374	16915
911.489	16816
911.604	16797
911.718	16656
911.833	16592
911.947	16599
912.062	16500
912.176	16656
912.291	16637
912.405	16656
912.519	16892
912.633	16873
912.748	16664
912.862	16546
912.976	16481
913.09	16310
913.204	16390
913.318	16371
913.431	16531
913.545	16402
913.659	16573
913.772	16417
913.886	16291
914	16196
914.113	16417
914.226	16322
914.34	16424
914.453	16078
914.566	16341
914.68	16120
914.793	16105
914.906	15922
915.019	15812
915.132	15766
915.245	15762
915.358	15842
915.47	15873
915.583	15854
915.696	15869
915.809	15934
915.921	16082
916.034	15785
916.146	15690
916.259	15724
916.371	15808
916.483	15857
916.595	15701
916.708	15751
916.82	15618
916.932	15618
917.044	15656
917.156	15637
917.268	15466
917.38	15496
917.491	15488
917.603	15435
917.715	15507
917.826	15561
917.938	15481
918.049	15359
918.161	15249
918.272	15507
918.384	15526
918.495	15329
918.606	15188
918.717	15222
918.828	15154
918.939	15268
919.05	15173
919.161	15241
919.272	14994
919.383	15055
919.494	15256
919.604	15351
919.715	15146
919.826	15081
919.936	15100
920.047	15272
920.157	15093
920.267	15374
920.378	15127
920.488	15100
920.598	15310
920.708	15439
920.818	15279
920.928	15291
921.038	15386
921.148	15374
921.258	15020
921.368	15104
921.477	14937
921.587	14773
921.697	14819
921.806	14819
921.916	14625
922.025	14545
922.134	14446
922.244	14434
922.353	14480
922.462	14389
922.571	14278
922.68	14172
922.789	14233
922.898	14149
923.007	14073
923.116	14195
923.224	14252
923.333	14050
923.442	14016
923.55	13887
923.659	13993
923.767	14031
923.876	13795
923.984	14054
924.092	13890
924.201	13799
924.309	13845
924.417	13845
924.525	13647
924.633	13677
924.741	14518
924.849	13552
924.956	13712
925.064	13605
925.172	13502
925.279	13510
925.387	13499
925.494	13537
925.602	13628
925.709	13658
925.816	13407
925.924	13495
926.031	13552
926.138	13415
926.245	13457
926.352	13422
926.459	13487
926.566	13510
926.673	13388
926.779	13346
926.886	13190
926.993	13129
927.099	13076
927.206	13084
927.312	13069
927.419	13164
927.525	13046
927.631	13027
927.737	12993
927.843	12848
927.95	12791
928.056	12833
928.162	12894
928.267	12859
928.373	13582
928.479	12939
928.585	12707
928.69	12741
928.796	12920
928.901	12757
929.007	12635
929.112	12757
929.218	12684
929.323	12665
929.428	12532
929.533	12757
929.638	12536
929.743	12574
929.848	12456
929.953	12475
930.058	12338
930.163	12194
930.267	12296
930.372	12471
930.477	12228
930.581	12509
930.685	12270
930.79	12102
930.894	12121
930.998	12129
931.103	12372
931.207	11954
931.311	11794
931.415	11748
931.519	11520
931.623	11558
