Data from test_V78500241_399.txt Node
Date: Fri Mar 25 15:44:33 CST 2022
User: usil
Spectrometer: V785-0024
Trigger mode: 0
Integration Time (sec): 4.000000E-1
Scans to average: 1
Nonlinearity correction enabled: false
Boxcar width: 0
Storing dark spectrum: false
XAxis mode: Wavelengths
Number of Pixels in Spectrum: 1024
>>>>>Begin Spectral Data<<<<<
801.071	28755
801.214	28622
801.356	28535
801.499	28519
801.641	28546
801.783	28375
801.926	28295
802.068	28428
802.211	28276
802.353	28207
802.496	28074
802.638	27975
802.78	28044
802.923	28044
803.065	27865
803.208	27800
803.35	27956
803.492	28101
803.635	28105
803.777	28051
803.919	28032
804.061	28474
804.204	28253
804.346	28025
804.488	28131
804.63	28310
804.773	27991
804.915	28097
805.057	28200
805.199	28093
805.341	28215
805.483	28299
805.626	28154
805.768	28249
805.91	28192
806.052	28287
806.194	28287
806.336	28440
806.478	28314
806.62	28223
806.762	28398
806.904	28531
807.046	28771
807.188	28759
807.33	28721
807.472	28740
807.614	28691
807.756	28649
807.898	28489
808.04	28615
808.182	28523
808.324	28394
808.465	28470
808.607	28679
808.749	28854
808.891	28999
809.033	28946
809.174	28976
809.316	29048
809.458	28839
809.6	28828
809.741	29022
809.883	29121
810.025	29265
810.166	29079
810.308	29174
810.45	29178
810.591	29162
810.733	28957
810.875	28953
811.016	28618
811.158	28869
811.299	29033
811.441	28995
811.582	28968
811.724	28790
811.865	28824
812.007	28835
812.148	28721
812.29	28816
812.431	28904
812.573	29223
812.714	29242
812.855	29353
812.997	29520
813.138	29608
813.279	29547
813.421	29414
813.562	29368
813.703	29193
813.845	29022
813.986	28957
814.127	28656
814.268	28573
814.41	28478
814.551	28531
814.692	28462
814.833	28455
814.974	28622
815.115	28508
815.256	28508
815.397	28485
815.539	28451
815.68	28401
815.821	28265
815.962	28219
816.103	28207
816.244	28158
816.385	28112
816.526	28051
816.666	27812
816.807	27793
816.948	27949
817.089	27724
817.23	27869
817.371	27682
817.512	27660
817.653	27797
817.793	27736
817.934	27606
818.075	27736
818.216	27838
818.356	27671
818.497	27690
818.638	27473
818.778	27477
818.919	27599
819.06	27564
819.2	27595
819.341	27701
819.481	27660
819.622	27846
819.762	27960
819.903	27968
820.043	27781
820.184	27835
820.324	27774
820.465	27823
820.605	27945
820.746	27892
820.886	27545
821.026	28032
821.167	27781
821.307	27846
821.447	27679
821.588	27496
821.728	27504
821.868	27344
822.008	27241
822.149	27150
822.289	26979
822.429	26914
822.569	26781
822.709	26682
822.849	26640
822.99	26686
823.13	26473
823.27	26689
823.41	26370
823.55	26153
823.69	26465
823.83	26404
823.97	26320
824.11	26176
824.25	26206
824.389	26206
824.529	26298
824.669	26240
824.809	26336
824.949	26347
825.089	26351
825.228	26355
825.368	26153
825.508	26065
825.648	26050
825.787	26229
825.927	26290
826.067	26069
826.206	26012
826.346	26145
826.485	25997
826.625	26199
826.765	26149
826.904	26065
827.044	25811
827.183	25788
827.323	25803
827.462	25898
827.601	25788
827.741	25658
827.88	25814
828.02	25731
828.159	25772
828.298	25883
828.437	25849
828.577	25742
828.716	25830
828.855	25628
828.994	25521
829.134	25537
829.273	25548
829.412	25343
829.551	25289
829.69	25457
829.829	25563
829.968	25544
830.107	25590
830.246	25396
830.385	25369
830.524	25377
830.663	25183
830.802	25095
830.941	24924
831.08	24992
831.219	25095
831.357	25156
831.496	25171
831.635	24951
831.774	24875
831.913	24905
832.051	24875
832.19	24768
832.329	24764
832.467	24703
832.606	24673
832.744	24464
832.883	24783
833.022	24627
833.16	24616
833.299	24681
833.437	24776
833.576	24654
833.714	24673
833.852	24760
833.991	24768
834.129	24757
834.267	24806
834.406	24635
834.544	24707
834.682	24783
834.821	24608
834.959	24894
835.097	24635
835.235	24738
835.373	24768
835.511	24745
835.65	24486
835.788	24528
835.926	24395
836.064	24300
836.202	24277
836.34	24448
836.478	24715
836.615	24456
836.753	24464
836.891	24555
837.029	24509
837.167	24502
837.305	24536
837.443	24323
837.58	24308
837.718	24410
837.856	24384
837.993	24258
838.131	24418
838.269	24311
838.406	24258
838.544	24224
838.681	24026
838.819	23973
838.956	23832
839.094	23908
839.231	23920
839.369	24022
839.506	24205
839.643	24125
839.781	23824
839.918	23722
840.055	23863
840.193	23665
840.33	23615
840.467	23859
840.604	23939
840.742	24003
840.879	23665
841.016	23707
841.153	23630
841.29	23843
841.427	23680
841.564	23775
841.701	23775
841.838	23634
841.975	23767
842.112	23474
842.249	23501
842.385	23505
842.522	23756
842.659	23383
842.796	23402
842.933	23535
843.069	23307
843.206	23315
843.343	23509
843.479	23478
843.616	23448
843.752	23090
843.889	23231
844.025	23288
844.162	23200
844.298	23242
844.435	23121
844.571	23174
844.708	23162
844.844	23265
844.98	23421
845.117	23227
845.253	23071
845.389	23052
845.525	23178
845.661	22927
845.798	22900
845.934	23105
846.07	22892
846.206	22854
846.342	23014
846.478	22957
846.614	22698
846.75	22550
846.886	22713
847.022	22809
847.158	22672
847.294	22565
847.429	22622
847.565	22577
847.701	22911
847.837	22287
847.972	22253
848.108	22462
848.244	22478
848.379	22223
848.515	22265
848.65	22143
848.786	22185
848.921	22177
849.057	22371
849.192	22188
849.328	22204
849.463	22223
849.598	22010
849.734	22101
849.869	22070
850.004	21960
850.14	21964
850.275	22044
850.41	21865
850.545	21903
850.68	21941
850.815	21998
850.95	21930
851.085	22048
851.22	22029
851.355	21884
851.49	21937
851.625	21918
851.76	21838
851.895	21876
852.03	21895
852.165	21983
852.299	21922
852.434	21991
852.569	21949
852.703	21968
852.838	21991
852.973	22017
853.107	22044
853.242	21869
853.376	21682
853.511	21622
853.645	21797
853.78	21895
853.914	21895
854.048	21686
854.183	21827
854.317	21770
854.451	21968
854.585	21739
854.72	21747
854.854	21755
854.988	21568
855.122	21720
855.256	21500
855.39	21656
855.524	21717
855.658	21903
855.792	21781
855.926	21804
856.06	21717
856.194	21800
856.327	21717
856.461	21713
856.595	21797
856.729	21759
856.862	21823
856.996	21736
857.13	21854
857.263	21781
857.397	21808
857.53	21720
857.664	21724
857.797	21884
857.931	21846
858.064	21770
858.197	21713
858.331	21728
858.464	21762
858.597	21553
858.731	21762
858.864	21671
858.997	21667
859.13	21728
859.263	21755
859.396	21861
859.529	21816
859.662	21644
859.795	21682
859.928	21656
860.061	21831
860.194	21861
860.327	21797
860.46	21663
860.592	21842
860.725	21797
860.858	21873
860.99	21675
861.123	21622
861.256	21690
861.388	21656
861.521	22367
861.653	21580
861.786	21542
861.918	21542
862.05	21610
862.183	21618
862.315	21724
862.447	21663
862.58	21523
862.712	21431
862.844	21359
862.976	21469
863.108	21496
863.24	21880
863.372	21389
863.504	21492
863.636	21530
863.768	21367
863.9	21458
864.032	21279
864.164	21367
864.296	21431
864.428	21359
864.559	21348
864.691	21439
864.823	21443
864.954	21485
865.086	21454
865.217	21348
865.349	21336
865.48	21279
865.612	21336
865.743	21477
865.875	21230
866.006	21180
866.137	21237
866.269	21363
866.4	21256
866.531	21192
866.662	21294
866.793	21211
866.924	21268
867.055	21214
867.186	21245
867.317	21211
867.448	21039
867.579	21157
867.71	21150
867.841	21203
867.972	21313
868.103	21256
868.233	21260
868.364	21245
868.495	21325
868.625	21519
868.756	21507
868.886	21279
869.017	21534
869.147	21496
869.278	21606
869.408	21511
869.539	21477
869.669	21526
869.799	21458
869.929	21572
870.06	21545
870.19	21694
870.32	21724
870.45	21720
870.58	21800
870.71	21903
870.84	21926
870.97	21808
871.1	21884
871.23	21994
871.36	22021
871.489	22051
871.619	21964
871.749	21949
871.879	22139
872.008	22059
872.138	21998
872.267	21953
872.397	21934
872.526	21835
872.656	21823
872.785	21846
872.915	22021
873.044	22112
873.173	22067
873.303	22040
873.432	22196
873.561	22200
873.69	22120
873.819	22059
873.948	22150
874.077	22154
874.206	22002
874.335	22070
874.464	22185
874.593	22169
874.722	22177
874.851	22344
874.979	22386
875.108	22390
875.237	22215
875.365	22204
875.494	22154
875.623	22303
875.751	22188
875.88	22337
876.008	22443
876.136	22485
876.265	22637
876.393	22812
876.521	22782
876.65	22786
876.778	22706
876.906	22637
877.034	22584
877.162	22664
877.29	22527
877.418	22634
877.546	22702
877.674	22546
877.802	22573
877.93	22584
878.058	22573
878.185	22512
878.313	22649
878.441	22554
878.568	22474
878.696	22516
878.824	22580
878.951	22702
879.079	22816
879.206	22904
879.333	22778
879.461	22592
879.588	22790
879.715	22767
879.842	22873
879.97	22668
880.097	22489
880.224	22550
880.351	22428
880.478	22440
880.605	22386
880.732	22432
880.859	22584
880.986	22508
881.112	22489
881.239	22257
881.366	22272
881.493	22120
881.619	22135
881.746	22021
881.872	22162
881.999	22051
882.125	21911
882.252	22101
882.378	21918
882.505	22204
882.631	21956
882.757	21759
882.883	21762
883.01	21789
883.136	21728
883.262	21667
883.388	21610
883.514	21705
883.64	21789
883.766	21644
883.892	21549
884.018	21504
884.143	21785
884.269	21629
884.395	21466
884.52	21363
884.646	21431
884.772	21291
884.897	21237
885.023	21447
885.148	21435
885.274	21610
885.399	21481
885.524	21332
885.65	21389
885.775	21389
885.9	21306
886.025	21458
886.15	21542
886.275	21169
886.4	21256
886.525	21386
886.65	21294
886.775	21249
886.9	21507
887.025	21519
887.149	21260
887.274	21116
887.399	21100
887.523	21116
887.648	21100
887.773	21127
887.897	21154
888.021	21150
888.146	21020
888.27	21154
888.395	21218
888.519	21055
888.643	21062
888.767	21135
888.891	20986
889.015	20944
889.139	21081
889.263	20937
889.387	20967
889.511	21032
889.635	21093
889.759	20826
889.883	20925
890.006	20883
890.13	21005
890.254	20792
890.377	20724
890.501	20602
890.624	20530
890.748	20659
890.871	20526
890.995	20423
891.118	20355
891.241	20560
891.364	20488
891.488	20499
891.611	20419
891.734	20438
891.857	20537
891.98	20511
892.103	20476
892.226	20533
892.349	20389
892.471	20248
892.594	20244
892.717	20347
892.839	20465
892.962	20317
893.085	20396
893.207	20263
893.33	20286
893.452	20324
893.575	20457
893.697	20282
893.819	20446
893.941	20511
894.064	20480
894.186	20282
894.308	20282
894.43	20427
894.552	20488
894.674	20412
894.796	20088
894.918	20374
895.04	20259
895.161	20381
895.283	20347
895.405	20225
895.526	20282
895.648	20404
895.769	20415
895.891	20404
896.012	20381
896.134	20488
896.255	20431
896.376	20328
896.498	20267
896.619	20309
896.74	20408
896.861	20419
896.982	20743
897.103	20929
897.224	20598
897.345	20564
897.466	20663
897.587	20575
897.708	20800
897.828	20651
897.949	20629
898.07	20385
898.19	20575
898.311	20739
898.431	20533
898.552	20568
898.672	20667
898.792	20552
898.913	20503
899.033	20446
899.153	20339
899.273	20294
899.393	20298
899.513	20351
899.633	20309
899.753	20240
899.873	20267
899.993	20362
900.113	20225
900.232	20332
900.352	20195
900.472	20092
900.591	20069
900.711	20176
900.83	20035
900.95	20100
901.069	20267
901.189	20046
901.308	19700
901.427	19719
901.546	19693
901.665	19670
901.784	19750
901.904	19544
902.023	19396
902.141	19259
902.26	19247
902.379	19259
902.498	19103
902.617	19103
902.735	19244
902.854	19228
902.973	19156
903.091	19012
903.21	18787
903.328	18886
903.446	18722
903.565	18612
903.683	18620
903.801	18566
903.919	18627
904.038	18506
904.156	18452
904.274	18426
904.392	18361
904.51	18315
904.627	18353
904.745	18464
904.863	18429
904.981	18235
905.098	17999
905.216	18072
905.334	18072
905.451	18125
905.569	17961
905.686	18136
905.803	18019
905.921	17866
906.038	17931
906.155	17847
906.272	17802
906.389	17756
906.506	17585
906.623	17611
906.74	17646
906.857	17501
906.974	17539
907.091	17558
907.208	17699
907.324	17539
907.441	17615
907.557	17239
907.674	17341
907.79	17292
907.907	17318
908.023	17303
908.139	17315
908.256	17189
908.372	17079
908.488	17056
908.604	17090
908.72	16934
908.836	17045
908.952	16976
909.068	16984
909.184	17067
909.3	16862
909.415	16976
909.531	16976
909.647	16831
909.762	16645
909.878	16577
909.993	16675
910.108	16679
910.224	16508
910.339	16664
910.454	16489
910.57	16584
910.685	16337
910.8	16748
910.915	16577
911.03	16459
911.145	16329
911.259	16249
911.374	16306
911.489	16097
911.604	16154
911.718	16010
911.833	15998
911.947	15972
912.062	15876
912.176	16013
912.291	16131
912.405	15987
912.519	16101
912.633	16101
912.748	16071
912.862	15895
912.976	15926
913.09	15701
913.204	15774
913.318	15724
913.431	15964
913.545	15797
913.659	15915
913.772	15770
913.886	15625
914	15675
914.113	15797
914.226	15679
914.34	15682
914.453	15458
914.566	15644
914.68	15557
914.793	15458
914.906	15279
915.019	15146
915.132	15302
915.245	15154
915.358	15325
915.47	15192
915.583	15211
915.696	15188
915.809	15317
915.921	15348
916.034	15214
916.146	15142
916.259	15237
916.371	15142
916.483	15233
916.595	15036
916.708	15119
916.82	15058
916.932	14979
917.044	15066
917.156	14994
917.268	14944
917.38	14941
917.491	14861
917.603	14830
917.715	14910
917.826	14899
917.938	14773
918.049	14834
918.161	14804
918.272	14921
918.384	14929
918.495	14762
918.606	14663
918.717	14492
918.828	14613
918.939	14602
919.05	14549
919.161	14598
919.272	14408
919.383	14427
919.494	14613
919.604	14727
919.715	14560
919.826	14492
919.936	14556
920.047	14636
920.157	14571
920.267	14815
920.378	14583
920.488	14568
920.598	14720
920.708	14910
920.818	14724
920.928	14678
921.038	14804
921.148	14811
921.258	14457
921.368	14431
921.477	14294
921.587	14328
921.697	14157
921.806	14286
921.916	14103
922.025	13974
922.134	13989
922.244	13898
922.353	13970
922.462	13841
922.571	13719
922.68	13651
922.789	13552
922.898	13540
923.007	13510
923.116	13624
923.224	13548
923.333	13559
923.442	13460
923.55	13411
923.659	13400
923.767	13434
923.876	13259
923.984	13396
924.092	13339
924.201	13308
924.309	13346
924.417	13377
924.525	13308
924.633	13171
924.741	14107
924.849	12996
924.956	13126
925.064	13080
925.172	12970
925.279	13042
925.387	13129
925.494	13004
925.602	13152
925.709	13072
925.816	12913
925.924	12916
926.031	13053
926.138	12924
926.245	12901
926.352	12833
926.459	13015
926.566	13069
926.673	12913
926.779	12722
926.886	12692
926.993	12589
927.099	12593
927.206	12456
927.312	12517
927.419	12601
927.525	12464
927.631	12502
927.737	12414
927.843	12388
927.95	12243
928.056	12399
928.162	12384
928.267	12319
928.373	13084
928.479	12460
928.585	12266
928.69	12281
928.796	12361
928.901	12239
929.007	12064
929.112	12258
929.218	12140
929.323	12072
929.428	12049
929.533	12216
929.638	12114
929.743	12007
929.848	12026
929.953	12038
930.058	11939
930.163	11771
930.267	11840
930.372	11942
930.477	11680
930.581	11923
930.685	11828
930.79	11665
930.894	11707
930.998	11615
931.103	11805
931.207	11452
931.311	11379
931.415	11239
931.519	11041
931.623	11109
