Data from test_V78500241_2598.txt Node
Date: Fri Mar 25 15:59:47 CST 2022
User: usil
Spectrometer: V785-0024
Trigger mode: 0
Integration Time (sec): 4.000000E-1
Scans to average: 1
Nonlinearity correction enabled: false
Boxcar width: 0
Storing dark spectrum: false
XAxis mode: Wavelengths
Number of Pixels in Spectrum: 1024
>>>>>Begin Spectral Data<<<<<
801.071	28428
801.214	28360
801.356	28238
801.499	28253
801.641	28040
801.783	28105
801.926	28166
802.068	28032
802.211	27991
802.353	28010
802.496	27713
802.638	27759
802.78	27610
802.923	27511
803.065	27606
803.208	27542
803.35	27743
803.492	27861
803.635	28029
803.777	27869
803.919	27941
804.061	28306
804.204	27960
804.346	27861
804.488	27804
804.63	27838
804.773	27831
804.915	27991
805.057	28177
805.199	27998
805.341	27884
805.483	28048
805.626	27998
805.768	28074
805.91	28006
806.052	28078
806.194	27968
806.336	28246
806.478	28067
806.62	27998
806.762	28257
806.904	28337
807.046	28554
807.188	28432
807.33	28577
807.472	28664
807.614	28474
807.756	28371
807.898	28363
808.04	28360
808.182	28299
808.324	28394
808.465	28386
808.607	28656
808.749	28713
808.891	28820
809.033	28942
809.174	28774
809.316	28706
809.458	28675
809.6	28717
809.741	28972
809.883	28911
810.025	28995
810.166	29155
810.308	29094
810.45	29018
810.591	28881
810.733	28835
810.875	28729
811.016	28717
811.158	28691
811.299	28839
811.441	28953
811.582	28850
811.724	28596
811.865	28858
812.007	28797
812.148	28812
812.29	28683
812.431	28900
812.573	29132
812.714	29064
812.855	29231
812.997	29372
813.138	29516
813.279	29448
813.421	29250
813.562	29334
813.703	29083
813.845	29071
813.986	28801
814.127	28542
814.268	28512
814.41	28607
814.551	28500
814.692	28599
814.833	28360
814.974	28398
815.115	28424
815.256	28341
815.397	28325
815.539	28310
815.68	28074
815.821	28295
815.962	28303
816.103	28356
816.244	28086
816.385	28059
816.526	27918
816.666	27960
816.807	27629
816.948	27926
817.089	27930
817.23	27720
817.371	27800
817.512	27846
817.653	27850
817.793	27835
817.934	27755
818.075	27816
818.216	27690
818.356	27698
818.497	27728
818.638	27572
818.778	27447
818.919	27587
819.06	27591
819.2	27698
819.341	27762
819.481	27827
819.622	27838
819.762	28154
819.903	28017
820.043	27987
820.184	27949
820.324	27922
820.465	27895
820.605	27827
820.746	27690
820.886	27667
821.026	27778
821.167	27675
821.307	27930
821.447	27876
821.588	27808
821.728	27622
821.868	27287
822.008	27298
822.149	27222
822.289	27203
822.429	27001
822.569	26887
822.709	26914
822.849	26678
822.99	26731
823.13	26731
823.27	26758
823.41	26480
823.55	26613
823.69	26651
823.83	26621
823.97	26575
824.11	26503
824.25	26263
824.389	26446
824.529	26377
824.669	26495
824.809	26431
824.949	26473
825.089	26476
825.228	26499
825.368	26324
825.508	26339
825.648	26438
825.787	26252
825.927	26339
826.067	26221
826.206	26309
826.346	26328
826.485	26343
826.625	26195
826.765	26347
826.904	26385
827.044	25974
827.183	26130
827.323	25917
827.462	26096
827.601	25951
827.741	25947
827.88	25894
828.02	25993
828.159	25875
828.298	25947
828.437	25906
828.577	26012
828.716	26005
828.855	25852
828.994	25597
829.134	25742
829.273	25913
829.412	25616
829.551	25651
829.69	25780
829.829	25814
829.968	25906
830.107	25624
830.246	25620
830.385	25666
830.524	25597
830.663	25487
830.802	25510
830.941	25369
831.08	25282
831.219	25377
831.357	25426
831.496	25483
831.635	25251
831.774	25145
831.913	25175
832.051	25152
832.19	25072
832.329	25091
832.467	24935
832.606	24882
832.744	24863
832.883	25065
833.022	24890
833.16	24977
833.299	25072
833.437	25008
833.576	25088
833.714	25038
833.852	25042
833.991	25080
834.129	25080
834.267	25015
834.406	25012
834.544	25065
834.682	25061
834.821	24996
834.959	25156
835.097	24924
835.235	24951
835.373	24905
835.511	25023
835.65	24951
835.788	24817
835.926	24715
836.064	24677
836.202	24688
836.34	24844
836.478	24973
836.615	24715
836.753	24787
836.891	24859
837.029	24833
837.167	24681
837.305	24707
837.443	24741
837.58	24654
837.718	24772
837.856	24715
837.993	24585
838.131	24635
838.269	24673
838.406	24642
838.544	24654
838.681	24311
838.819	24334
838.956	24148
839.094	24148
839.231	24346
839.369	24315
839.506	24505
839.643	24441
839.781	24220
839.918	24136
840.055	24106
840.193	24266
840.33	24159
840.467	24038
840.604	24140
840.742	24323
840.879	23958
841.016	24030
841.153	23904
841.29	24110
841.427	24091
841.564	24079
841.701	23904
841.838	24015
841.975	23942
842.112	24015
842.249	23824
842.385	23729
842.522	24007
842.659	23840
842.796	23805
842.933	23893
843.069	23707
843.206	23703
843.343	23817
843.479	23764
843.616	23729
843.752	23646
843.889	23642
844.025	23783
844.162	23425
844.298	23718
844.435	23646
844.571	23585
844.708	23577
844.844	23779
844.98	23809
845.117	23573
845.253	23528
845.389	23402
845.525	23368
845.661	23372
845.798	23337
845.934	23315
846.07	23334
846.206	23349
846.342	23334
846.478	23239
846.614	23181
846.75	22915
846.886	23056
847.022	23102
847.158	23033
847.294	23060
847.429	23083
847.565	22991
847.701	23303
847.837	22702
847.972	22645
848.108	22881
848.244	22828
848.379	22694
848.515	22634
848.65	22573
848.786	22607
848.921	22641
849.057	22710
849.192	22812
849.328	22599
849.463	22561
849.598	22611
849.734	22588
849.869	22443
850.004	22428
850.14	22474
850.275	22382
850.41	22382
850.545	22337
850.68	22291
850.815	22295
850.95	22379
851.085	22565
851.22	22436
851.355	22424
851.49	22394
851.625	22360
851.76	22337
851.895	22470
852.03	22253
852.165	22447
852.299	22409
852.434	22531
852.569	22371
852.703	22474
852.838	22493
852.973	22550
853.107	22519
853.242	22344
853.376	22143
853.511	22055
853.645	22211
853.78	22310
853.914	22272
854.048	22215
854.183	22181
854.317	22238
854.451	22462
854.585	22284
854.72	22181
854.854	22211
854.988	22249
855.122	22272
855.256	22166
855.39	22188
855.524	22276
855.658	22234
855.792	22200
855.926	22158
856.06	22272
856.194	22413
856.327	22131
856.461	22166
856.595	22067
856.729	22177
856.862	22325
856.996	22265
857.13	22367
857.263	22234
857.397	22329
857.53	22169
857.664	22356
857.797	22242
857.931	22348
858.064	22352
858.197	22363
858.331	22181
858.464	22196
858.597	22196
858.731	22204
858.864	22268
858.997	22131
859.13	22276
859.263	22135
859.396	22299
859.529	22090
859.662	22131
859.795	21994
859.928	22325
860.061	22303
860.194	22379
860.327	22291
860.46	22276
860.592	22382
860.725	22329
860.858	22272
860.99	22230
861.123	22196
861.256	22280
861.388	22192
861.521	22850
861.653	22013
861.786	22013
861.918	22051
862.05	22048
862.183	22097
862.315	22185
862.447	22185
862.58	22112
862.712	21888
862.844	22006
862.976	22086
863.108	21949
863.24	22531
863.372	21831
863.504	21785
863.636	21804
863.768	21781
863.9	21934
864.032	21857
864.164	21930
864.296	21968
864.428	21998
864.559	21991
864.691	22044
864.823	21739
864.954	22017
865.086	21823
865.217	21800
865.349	21599
865.48	21793
865.612	21835
865.743	21953
865.875	21861
866.006	21717
866.137	21823
866.269	21747
866.4	21778
866.531	21709
866.662	21827
866.793	21797
866.924	21724
867.055	21857
867.186	21679
867.317	21732
867.448	21633
867.579	21728
867.71	21606
867.841	21603
867.972	21705
868.103	21705
868.233	21724
868.364	21759
868.495	21899
868.625	21873
868.756	22002
868.886	21865
869.017	21888
869.147	22112
869.278	22074
869.408	21926
869.539	21994
869.669	22128
869.799	21930
869.929	22086
870.06	22124
870.19	22253
870.32	22303
870.45	22230
870.58	22481
870.71	22497
870.84	22500
870.97	22329
871.1	22390
871.23	22550
871.36	22554
871.489	22443
871.619	22645
871.749	22504
871.879	22565
872.008	22759
872.138	22500
872.267	22519
872.397	22375
872.526	22333
872.656	22382
872.785	22379
872.915	22527
873.044	22683
873.173	22588
873.303	22660
873.432	22702
873.561	22622
873.69	22462
873.819	22519
873.948	22615
874.077	22508
874.206	22500
874.335	22554
874.464	22672
874.593	22763
874.722	22744
874.851	22744
874.979	22805
875.108	22782
875.237	22755
875.365	22694
875.494	22736
875.623	22782
875.751	22729
875.88	22858
876.008	22854
876.136	22938
876.265	23102
876.393	23372
876.521	23284
876.65	23151
876.778	23212
876.906	23181
877.034	23159
877.162	23273
877.29	23048
877.418	23204
877.546	23140
877.674	23037
877.802	23128
877.93	23071
878.058	23086
878.185	23064
878.313	23102
878.441	23162
878.568	22927
878.696	22976
878.824	23227
878.951	23086
879.079	23391
879.206	23448
879.333	23273
879.461	23174
879.588	23284
879.715	23337
879.842	23516
879.97	23193
880.097	22949
880.224	22942
880.351	22999
880.478	22987
880.605	22949
880.732	23003
880.859	23353
880.986	22961
881.112	22927
881.239	22816
881.366	22706
881.493	22630
881.619	22569
881.746	22580
881.872	22565
881.999	22481
882.125	22550
882.252	22588
882.378	22546
882.505	22630
882.631	22367
882.757	22226
882.883	22363
883.01	22196
883.136	22166
883.262	22105
883.388	22078
883.514	22196
883.64	22284
883.766	22181
883.892	21979
884.018	22059
884.143	22147
884.269	22265
884.395	21926
884.52	21694
884.646	21918
884.772	21835
884.897	21793
885.023	21838
885.148	21941
885.274	21968
885.399	22010
885.524	21846
885.65	21888
885.775	21838
885.9	21854
886.025	21800
886.15	21838
886.275	21797
886.4	21762
886.525	21770
886.65	21751
886.775	21797
886.9	21888
887.025	22063
887.149	21713
887.274	21747
887.399	21671
887.523	21545
887.648	21679
887.773	21477
887.897	21728
888.021	21625
888.146	21606
888.27	21690
888.395	21675
888.519	21694
888.643	21698
888.767	21580
888.891	21564
889.015	21504
889.139	21576
889.263	21401
889.387	21599
889.511	21606
889.635	21469
889.759	21412
889.883	21405
890.006	21386
890.13	21530
890.254	21245
890.377	21332
890.501	21211
890.624	21176
890.748	21222
890.871	21089
890.995	20971
891.118	20937
891.241	20883
891.364	20952
891.488	21028
891.611	21001
891.734	21055
891.857	20876
891.98	20876
892.103	20929
892.226	21017
892.349	20792
892.471	20663
892.594	20834
892.717	20823
892.839	20743
892.962	20849
893.085	20785
893.207	20876
893.33	20823
893.452	20769
893.575	20804
893.697	20830
893.819	20906
893.941	21077
894.064	21036
894.186	20788
894.308	20762
894.43	20929
894.552	20986
894.674	20937
894.796	20674
894.918	20781
895.04	20830
895.161	20804
895.283	20929
895.405	20720
895.526	20845
895.648	20750
895.769	20800
895.891	20921
896.012	21058
896.134	20853
896.255	20758
896.376	20845
896.498	20925
896.619	20933
896.74	20758
896.861	20883
896.982	21173
897.103	21207
897.224	21150
897.345	21077
897.466	20990
897.587	21230
897.708	21112
897.828	21085
897.949	20990
898.07	20887
898.19	20982
898.311	21116
898.431	21055
898.552	21062
898.672	21123
898.792	21154
898.913	20982
899.033	20925
899.153	20880
899.273	20602
899.393	20697
899.513	20891
899.633	20872
899.753	20819
899.873	20689
899.993	20861
900.113	20712
900.232	20743
900.352	20609
900.472	20629
900.591	20446
900.711	20549
900.83	20541
900.95	20705
901.069	20705
901.189	20537
901.308	20122
901.427	20119
901.546	20157
901.665	20119
901.784	20100
901.904	20024
902.023	19871
902.141	19753
902.26	19689
902.379	19811
902.498	19685
902.617	19628
902.735	19742
902.854	19635
902.973	19487
903.091	19415
903.21	19381
903.328	19244
903.446	19152
903.565	19133
903.683	19133
903.801	18977
903.919	18981
904.038	18977
904.156	18776
904.274	18951
904.392	18856
904.51	18829
904.627	18829
904.745	18928
904.863	18821
904.981	18601
905.098	18445
905.216	18410
905.334	18616
905.451	18551
905.569	18445
905.686	18513
905.803	18589
905.921	18266
906.038	18353
906.155	18281
906.272	18277
906.389	18266
906.506	18026
906.623	18129
906.74	18114
906.857	17935
906.974	17973
907.091	17897
907.208	18129
907.324	18030
907.441	17965
907.557	17752
907.674	17832
907.79	17707
907.907	17786
908.023	17775
908.139	17668
908.256	17764
908.372	17577
908.488	17592
908.604	17497
908.72	17406
908.836	17539
908.952	17474
909.068	17486
909.184	17581
909.3	17493
909.415	17436
909.531	17448
909.647	17212
909.762	17181
909.878	17197
909.993	17227
910.108	17147
910.224	17174
910.339	17200
910.454	16953
910.57	16987
910.685	16980
910.8	17136
910.915	17132
911.03	17003
911.145	16660
911.259	16706
911.374	16774
911.489	16740
911.604	16588
911.718	16443
911.833	16512
911.947	16413
912.062	16402
912.176	16519
912.291	16466
912.405	16531
912.519	16611
912.633	16592
912.748	16554
912.862	16474
912.976	16390
913.09	16150
913.204	16272
913.318	16303
913.431	16325
913.545	16390
913.659	16432
913.772	16219
913.886	16139
914	15934
914.113	16135
914.226	16120
914.34	16086
914.453	15975
914.566	16086
914.68	15975
914.793	15975
914.906	15762
915.019	15686
915.132	15671
915.245	15774
915.358	15682
915.47	15648
915.583	15720
915.696	15728
915.809	15724
915.921	15732
916.034	15648
916.146	15587
916.259	15538
916.371	15507
916.483	15618
916.595	15515
916.708	15511
916.82	15496
916.932	15488
917.044	15496
917.156	15374
917.268	15348
917.38	15370
917.491	15329
917.603	15348
917.715	15408
917.826	15313
917.938	15245
918.049	15195
918.161	15252
918.272	15344
918.384	15351
918.495	15195
918.606	15116
918.717	15070
918.828	15020
918.939	15157
919.05	15043
919.161	15051
919.272	14933
919.383	14906
919.494	15176
919.604	15233
919.715	14994
919.826	14971
919.936	14986
920.047	15131
920.157	15066
920.267	15154
920.378	15085
920.488	14971
920.598	15184
920.708	15275
920.818	15058
920.928	15203
921.038	15287
921.148	15237
921.258	15070
921.368	14887
921.477	14785
921.587	14731
921.697	14640
921.806	14735
921.916	14651
922.025	14488
922.134	14389
922.244	14237
922.353	14309
922.462	14282
922.571	14138
922.68	14081
922.789	14065
922.898	14035
923.007	13928
923.116	14069
923.224	13947
923.333	13993
923.442	13940
923.55	13856
923.659	13902
923.767	13894
923.876	13776
923.984	13868
924.092	13674
924.201	13700
924.309	13677
924.417	13651
924.525	13628
924.633	13693
924.741	14560
924.849	13392
924.956	13529
925.064	13438
925.172	13415
925.279	13377
925.387	13365
925.494	13457
925.602	13575
925.709	13460
925.816	13381
925.924	13350
926.031	13441
926.138	13327
926.245	13350
926.352	13270
926.459	13282
926.566	13407
926.673	13289
926.779	13145
926.886	13152
926.993	12996
927.099	13031
927.206	12905
927.312	12920
927.419	13015
927.525	13008
927.631	12966
927.737	12886
927.843	12844
927.95	12612
928.056	12711
928.162	12783
928.267	12753
928.373	13411
928.479	12798
928.585	12597
928.69	12768
928.796	12711
928.901	12684
929.007	12536
929.112	12692
929.218	12589
929.323	12486
929.428	12441
929.533	12566
929.638	12380
929.743	12403
929.848	12456
929.953	12410
930.058	12296
930.163	12148
930.267	12171
930.372	12334
930.477	12091
930.581	12289
930.685	12228
930.79	12064
930.894	12098
930.998	12030
931.103	12007
931.207	11733
931.311	11699
931.415	11615
931.519	11360
931.623	11402
