Data from test_V78500241_2971.txt Node
Date: Fri Mar 25 16:02:22 CST 2022
User: usil
Spectrometer: V785-0024
Trigger mode: 0
Integration Time (sec): 4.000000E-1
Scans to average: 1
Nonlinearity correction enabled: false
Boxcar width: 0
Storing dark spectrum: false
XAxis mode: Wavelengths
Number of Pixels in Spectrum: 1024
>>>>>Begin Spectral Data<<<<<
801.071	28318
801.214	28150
801.356	28124
801.499	28086
801.641	27850
801.783	27869
801.926	27880
802.068	27781
802.211	27873
802.353	27774
802.496	27770
802.638	27553
802.78	27542
802.923	27382
803.065	27447
803.208	27576
803.35	27603
803.492	27846
803.635	27911
803.777	27641
803.919	27701
804.061	28097
804.204	27770
804.346	27732
804.488	27789
804.63	27644
804.773	27774
804.915	27842
805.057	27914
805.199	27907
805.341	27850
805.483	27895
805.626	27979
805.768	27865
805.91	27960
806.052	27968
806.194	27869
806.336	28226
806.478	28029
806.62	27960
806.762	28025
806.904	28238
807.046	28580
807.188	28390
807.33	28379
807.472	28360
807.614	28447
807.756	28344
807.898	28207
808.04	28249
808.182	28192
808.324	28223
808.465	28348
808.607	28508
808.749	28550
808.891	28850
809.033	28801
809.174	28710
809.316	28577
809.458	28630
809.6	28596
809.741	28778
809.883	28744
810.025	28759
810.166	28820
810.308	28888
810.45	28866
810.591	28809
810.733	28645
810.875	28535
811.016	28546
811.158	28519
811.299	28694
811.441	28656
811.582	28778
811.724	28580
811.865	28504
812.007	28497
812.148	28607
812.29	28679
812.431	28637
812.573	28965
812.714	29018
812.855	29128
812.997	29273
813.138	29364
813.279	29250
813.421	29269
813.562	29239
813.703	28976
813.845	28713
813.986	28596
814.127	28371
814.268	28337
814.41	28375
814.551	28322
814.692	28287
814.833	28356
814.974	28253
815.115	28295
815.256	28306
815.397	28112
815.539	28192
815.68	28147
815.821	28177
815.962	28154
816.103	28105
816.244	28002
816.385	27880
816.526	27983
816.666	27724
816.807	27576
816.948	27625
817.089	27717
817.23	27629
817.371	27656
817.512	27462
817.653	27549
817.793	27545
817.934	27583
818.075	27641
818.216	27686
818.356	27523
818.497	27389
818.638	27504
818.778	27462
818.919	27420
819.06	27424
819.2	27564
819.341	27660
819.481	27561
819.622	27880
819.762	28074
819.903	27911
820.043	27770
820.184	27732
820.324	27846
820.465	27869
820.605	27804
820.746	27762
820.886	27671
821.026	27675
821.167	27709
821.307	27766
821.447	27739
821.588	27622
821.728	27386
821.868	27222
822.008	27176
822.149	27127
822.289	27062
822.429	26762
822.569	26899
822.709	26754
822.849	26579
822.99	26655
823.13	26640
823.27	26564
823.41	26457
823.55	26218
823.69	26549
823.83	26370
823.97	26358
824.11	26206
824.25	26187
824.389	26240
824.529	26419
824.669	26305
824.809	26431
824.949	26385
825.089	26309
825.228	26423
825.368	26088
825.508	26142
825.648	26126
825.787	26130
825.927	26271
826.067	25993
826.206	26077
826.346	26309
826.485	26065
826.625	26191
826.765	26336
826.904	26267
827.044	25830
827.183	25887
827.323	25772
827.462	25940
827.601	26001
827.741	25791
827.88	25936
828.02	25731
828.159	25784
828.298	25894
828.437	25788
828.577	25742
828.716	25811
828.855	25753
828.994	25521
829.134	25468
829.273	25540
829.412	25529
829.551	25392
829.69	25514
829.829	25795
829.968	25742
830.107	25677
830.246	25582
830.385	25514
830.524	25510
830.663	25282
830.802	25301
830.941	25175
831.08	25190
831.219	25114
831.357	25282
831.496	25346
831.635	25091
831.774	25057
831.913	25065
832.051	25012
832.19	24932
832.329	24958
832.467	24844
832.606	24939
832.744	24711
832.883	24852
833.022	24844
833.16	24840
833.299	24916
833.437	24715
833.576	24996
833.714	24886
833.852	24992
833.991	24977
834.129	24962
834.267	24920
834.406	24905
834.544	25038
834.682	24943
834.821	24745
834.959	25023
835.097	24856
835.235	24840
835.373	24776
835.511	24791
835.65	24745
835.788	24707
835.926	24722
836.064	24578
836.202	24418
836.34	24703
836.478	24730
836.615	24760
836.753	24753
836.891	24795
837.029	24665
837.167	24696
837.305	24677
837.443	24505
837.58	24551
837.718	24589
837.856	24616
837.993	24547
838.131	24517
838.269	24319
838.406	24475
838.544	24441
838.681	24171
838.819	24224
838.956	24152
839.094	23946
839.231	24083
839.369	24182
839.506	24380
839.643	24296
839.781	23992
839.918	23878
840.055	24148
840.193	23923
840.33	23973
840.467	23916
840.604	23977
840.742	24015
840.879	23847
841.016	23893
841.153	23661
841.29	23958
841.427	23882
841.564	23965
841.701	24041
841.838	23916
841.975	23859
842.112	23847
842.249	23718
842.385	23653
842.522	24076
842.659	23726
842.796	23611
842.933	23611
843.069	23589
843.206	23493
843.343	23771
843.479	23649
843.616	23623
843.752	23573
843.889	23566
844.025	23672
844.162	23402
844.298	23570
844.435	23493
844.571	23398
844.708	23459
844.844	23539
844.98	23611
845.117	23520
845.253	23608
845.389	23326
845.525	23379
845.661	23345
845.798	23121
845.934	23189
846.07	23193
846.206	23235
846.342	23178
846.478	23094
846.614	23037
846.75	22896
846.886	22919
847.022	22869
847.158	22968
847.294	22927
847.429	22869
847.565	22934
847.701	23212
847.837	22630
847.972	22611
848.108	22752
848.244	22771
848.379	22535
848.515	22519
848.65	22405
848.786	22519
848.921	22436
849.057	22535
849.192	22557
849.328	22523
849.463	22508
849.598	22519
849.734	22337
849.869	22417
850.004	22246
850.14	22333
850.275	22219
850.41	22158
850.545	22276
850.68	22230
850.815	22242
850.95	22352
851.085	22390
851.22	22280
851.355	22265
851.49	22249
851.625	22188
851.76	22181
851.895	22169
852.03	22204
852.165	22135
852.299	22238
852.434	22363
852.569	22215
852.703	22249
852.838	22348
852.973	22276
853.107	22261
853.242	22185
853.376	22116
853.511	21953
853.645	22002
853.78	22086
853.914	22120
854.048	22051
854.183	22158
854.317	22032
854.451	22200
854.585	22162
854.72	22112
854.854	22322
854.988	22025
855.122	22048
855.256	21926
855.39	22010
855.524	22109
855.658	22116
855.792	21994
855.926	22185
856.06	22128
856.194	22253
856.327	22036
856.461	21934
856.595	22013
856.729	22029
856.862	22059
856.996	22124
857.13	22017
857.263	22295
857.397	22211
857.53	22032
857.664	22268
857.797	22207
857.931	22215
858.064	22162
858.197	22128
858.331	22109
858.464	21930
858.597	21972
858.731	21956
858.864	21991
858.997	21937
859.13	22074
859.263	22150
859.396	22090
859.529	22063
859.662	22101
859.795	22120
859.928	22090
860.061	22120
860.194	22265
860.327	22139
860.46	22120
860.592	22272
860.725	22333
860.858	22177
860.99	22036
861.123	22078
861.256	22116
861.388	22124
861.521	22869
861.653	21975
861.786	21907
861.918	21865
862.05	22025
862.183	21991
862.315	21998
862.447	22017
862.58	22021
862.712	21831
862.844	21861
862.976	21865
863.108	21755
863.24	22287
863.372	21854
863.504	21774
863.636	21789
863.768	21797
863.9	21747
864.032	21842
864.164	21781
864.296	21956
864.428	21797
864.559	21762
864.691	21800
864.823	21770
864.954	21720
865.086	21675
865.217	21781
865.349	21591
865.48	21709
865.612	21720
865.743	21842
865.875	21652
866.006	21618
866.137	21694
866.269	21637
866.4	21663
866.531	21618
866.662	21610
866.793	21595
866.924	21538
867.055	21652
867.186	21614
867.317	21656
867.448	21431
867.579	21625
867.71	21542
867.841	21485
867.972	21606
868.103	21523
868.233	21641
868.364	21530
868.495	21698
868.625	21854
868.756	21922
868.886	21789
869.017	21888
869.147	21975
869.278	21964
869.408	21945
869.539	21857
869.669	21991
869.799	22006
869.929	22078
870.06	22006
870.19	22120
870.32	22211
870.45	22124
870.58	22109
870.71	22325
870.84	22424
870.97	22246
871.1	22234
871.23	22367
871.36	22481
871.489	22367
871.619	22466
871.749	22580
871.879	22428
872.008	22459
872.138	22462
872.267	22386
872.397	22348
872.526	22272
872.656	22333
872.785	22200
872.915	22557
873.044	22485
873.173	22466
873.303	22599
873.432	22447
873.561	22649
873.69	22459
873.819	22436
873.948	22489
874.077	22512
874.206	22451
874.335	22508
874.464	22561
874.593	22805
874.722	22615
874.851	22710
874.979	22824
875.108	22744
875.237	22672
875.365	22596
875.494	22630
875.623	22828
875.751	22664
875.88	22725
876.008	22672
876.136	22930
876.265	23170
876.393	23193
876.521	23223
876.65	23121
876.778	23075
876.906	23094
877.034	23105
877.162	22995
877.29	23052
877.418	22968
877.546	23010
877.674	22995
877.802	22942
877.93	22965
878.058	23022
878.185	22881
878.313	23086
878.441	23010
878.568	22976
878.696	22892
878.824	23018
878.951	23140
879.079	23235
879.206	23303
879.333	23113
879.461	22934
879.588	23159
879.715	23220
879.842	23178
879.97	23029
880.097	22885
880.224	22736
880.351	22869
880.478	22793
880.605	22896
880.732	22828
880.859	23037
880.986	22889
881.112	22869
881.239	22679
881.366	22542
881.493	22588
881.619	22421
881.746	22508
881.872	22447
881.999	22455
882.125	22481
882.252	22341
882.378	22409
882.505	22443
882.631	22287
882.757	22097
882.883	22207
883.01	22112
883.136	22044
883.262	22044
883.388	22040
883.514	22021
883.64	22105
883.766	21983
883.892	21804
884.018	21899
884.143	22051
884.269	22055
884.395	21781
884.52	21781
884.646	21732
884.772	21743
884.897	21561
885.023	21759
885.148	21842
885.274	21869
885.399	21797
885.524	21842
885.65	21713
885.775	21789
885.9	21625
886.025	21838
886.15	21804
886.275	21808
886.4	21633
886.525	21804
886.65	21709
886.775	21648
886.9	21739
887.025	21888
887.149	21690
887.274	21644
887.399	21572
887.523	21351
887.648	21450
887.773	21401
887.897	21701
888.021	21500
888.146	21401
888.27	21572
888.395	21599
888.519	21435
888.643	21534
888.767	21534
888.891	21370
889.015	21374
889.139	21363
889.263	21367
889.387	21378
889.511	21378
889.635	21348
889.759	21294
889.883	21298
890.006	21310
890.13	21374
890.254	21249
890.377	21283
890.501	21005
890.624	21062
890.748	21066
890.871	20948
890.995	20902
891.118	20804
891.241	20872
891.364	20929
891.488	21070
891.611	20921
891.734	20823
891.857	21036
891.98	20952
892.103	20941
892.226	20963
892.349	20727
892.471	20693
892.594	20754
892.717	20697
892.839	20739
892.962	20823
893.085	20864
893.207	20720
893.33	20526
893.452	20541
893.575	20701
893.697	20720
893.819	20842
893.941	20982
894.064	20834
894.186	20731
894.308	20606
894.43	20880
894.552	20899
894.674	20804
894.796	20659
894.918	20701
895.04	20602
895.161	20754
895.283	20906
895.405	20606
895.526	20667
895.648	20758
895.769	20701
895.891	20750
896.012	20819
896.134	20906
896.255	20686
896.376	20583
896.498	20750
896.619	20777
896.74	20769
896.861	20743
896.982	20960
897.103	21157
897.224	21055
897.345	20975
897.466	20777
897.587	20990
897.708	21047
897.828	21020
897.949	20864
898.07	20876
898.19	20853
898.311	20956
898.431	21017
898.552	20902
898.672	21081
898.792	20902
898.913	20899
899.033	20708
899.153	20845
899.273	20674
899.393	20697
899.513	20674
899.633	20629
899.753	20655
899.873	20739
899.993	20682
900.113	20613
900.232	20629
900.352	20488
900.472	20590
900.591	20408
900.711	20389
900.83	20385
900.95	20560
901.069	20450
901.189	20374
901.308	20092
901.427	19955
901.546	20031
901.665	19993
901.784	20073
901.904	19906
902.023	19742
902.141	19635
902.26	19514
902.379	19575
902.498	19559
902.617	19457
902.735	19575
902.854	19453
902.973	19457
903.091	19316
903.21	19164
903.328	19266
903.446	19148
903.565	19004
903.683	18935
903.801	18928
903.919	18954
904.038	18966
904.156	18768
904.274	18913
904.392	18802
904.51	18703
904.627	18646
904.745	18711
904.863	18837
904.981	18475
905.098	18399
905.216	18403
905.334	18376
905.451	18498
905.569	18350
905.686	18494
905.803	18384
905.921	18292
906.038	18296
906.155	18205
906.272	18053
906.389	18129
906.506	17980
906.623	17999
906.74	18030
906.857	17809
906.974	17878
907.091	18060
907.208	18026
907.324	17961
907.441	17813
907.557	17684
907.674	17676
907.79	17573
907.907	17646
908.023	17729
908.139	17764
908.256	17604
908.372	17520
908.488	17535
908.604	17364
908.72	17410
908.836	17398
908.952	17246
909.068	17391
909.184	17471
909.3	17444
909.415	17425
909.531	17334
909.647	17121
909.762	17102
909.878	16972
909.993	17075
910.108	17067
910.224	17075
910.339	16995
910.454	16850
910.57	16938
910.685	16816
910.8	17041
910.915	16968
911.03	16889
911.145	16717
911.259	16500
911.374	16599
911.489	16542
911.604	16508
911.718	16485
911.833	16352
911.947	16276
912.062	16268
912.176	16379
912.291	16428
912.405	16325
912.519	16603
912.633	16546
912.748	16443
912.862	16474
912.976	16211
913.09	16078
913.204	16226
913.318	16234
913.431	16394
913.545	16211
913.659	16363
913.772	16109
913.886	16051
914	15934
914.113	16093
914.226	16051
914.34	16131
914.453	15945
914.566	16025
914.68	15945
914.793	15899
914.906	15705
915.019	15648
915.132	15599
915.245	15572
915.358	15690
915.47	15618
915.583	15705
915.696	15576
915.809	15743
915.921	15671
916.034	15603
916.146	15488
916.259	15584
916.371	15629
916.483	15542
916.595	15435
916.708	15408
916.82	15511
916.932	15363
917.044	15313
917.156	15351
917.268	15245
917.38	15325
917.491	15241
917.603	15233
917.715	15317
917.826	15332
917.938	15211
918.049	15173
918.161	15119
918.272	15264
918.384	15325
918.495	15161
918.606	15085
918.717	14918
918.828	15081
918.939	15104
919.05	14887
919.161	14880
919.272	14746
919.383	14876
919.494	15093
919.604	15199
919.715	14956
919.826	14823
919.936	14902
920.047	15020
920.157	14872
920.267	15195
920.378	14880
920.488	14918
920.598	15085
920.708	15222
920.818	15055
920.928	15123
921.038	15173
921.148	15237
921.258	14864
921.368	14712
921.477	14785
921.587	14545
921.697	14571
921.806	14670
921.916	14450
922.025	14271
922.134	14347
922.244	14248
922.353	14324
922.462	14161
922.571	14153
922.68	13963
922.789	13944
922.898	14062
923.007	13856
923.116	13955
923.224	13856
923.333	13909
923.442	13765
923.55	13822
923.659	13814
923.767	13822
923.876	13719
923.984	13795
924.092	13670
924.201	13712
924.309	13757
924.417	13639
924.525	13651
924.633	13578
924.741	14374
924.849	13457
924.956	13571
925.064	13362
925.172	13293
925.279	13278
925.387	13415
925.494	13377
925.602	13320
925.709	13304
925.816	13206
925.924	13301
926.031	13426
926.138	13225
926.245	13400
926.352	13171
926.459	13301
926.566	13350
926.673	13133
926.779	13110
926.886	13023
926.993	13023
927.099	12935
927.206	12890
927.312	12901
927.419	12932
927.525	12863
927.631	12882
927.737	12745
927.843	12749
927.95	12574
928.056	12673
928.162	12684
928.267	12764
928.373	13289
928.479	12814
928.585	12631
928.69	12665
928.796	12688
928.901	12551
929.007	12418
929.112	12494
929.218	12479
929.323	12426
929.428	12437
929.533	12521
929.638	12388
929.743	12380
929.848	12395
929.953	12357
930.058	12251
930.163	12053
930.267	12133
930.372	12304
930.477	12091
930.581	12266
930.685	12102
930.79	11897
930.894	12114
930.998	11916
931.103	12110
931.207	11771
931.311	11634
931.415	11501
931.519	11398
931.623	11383
