Data from test_V78500241_14.txt Node
Date: Fri Mar 25 15:41:53 CST 2022
User: usil
Spectrometer: V785-0024
Trigger mode: 0
Integration Time (sec): 4.000000E-1
Scans to average: 1
Nonlinearity correction enabled: false
Boxcar width: 0
Storing dark spectrum: false
XAxis mode: Wavelengths
Number of Pixels in Spectrum: 1024
>>>>>Begin Spectral Data<<<<<
801.071	27142
801.214	26940
801.356	26811
801.499	26739
801.641	26393
801.783	26560
801.926	26465
802.068	26381
802.211	26336
802.353	26263
802.496	26054
802.638	26073
802.78	26024
802.923	25997
803.065	25871
803.208	25970
803.35	25871
803.492	25966
803.635	26081
803.777	25875
803.919	26016
804.061	26240
804.204	26001
804.346	26020
804.488	25986
804.63	25944
804.773	25757
804.915	25894
805.057	25856
805.199	25917
805.341	25940
805.483	26065
805.626	25993
805.768	25822
805.91	25986
806.052	26016
806.194	25822
806.336	26107
806.478	25928
806.62	26005
806.762	25955
806.904	26183
807.046	26358
807.188	26286
807.33	26370
807.472	26370
807.614	26305
807.756	26096
807.898	26126
808.04	25974
808.182	26092
808.324	26031
808.465	26130
808.607	26233
808.749	26317
808.891	26423
809.033	26431
809.174	26355
809.316	26317
809.458	26385
809.6	26389
809.741	26499
809.883	26480
810.025	26545
810.166	26587
810.308	26583
810.45	26651
810.591	26442
810.733	26286
810.875	26313
811.016	26240
811.158	26058
811.299	26438
811.441	26450
811.582	26366
811.724	26187
811.865	26309
812.007	26290
812.148	26206
812.29	26252
812.431	26484
812.573	26480
812.714	26640
812.855	26663
812.997	26727
813.138	26998
813.279	26918
813.421	26857
813.562	26579
813.703	26674
813.845	26469
813.986	26183
814.127	25966
814.268	25913
814.41	25845
814.551	25982
814.692	25864
814.833	25731
814.974	25738
815.115	25715
815.256	25689
815.397	25540
815.539	25540
815.68	25533
815.821	25426
815.962	25415
816.103	25403
816.244	25346
816.385	25293
816.526	25137
816.666	25156
816.807	24817
816.948	24859
817.089	24992
817.23	24951
817.371	24829
817.512	24909
817.653	24700
817.793	24890
817.934	24707
818.075	24856
818.216	24882
818.356	24703
818.497	24688
818.638	24502
818.778	24460
818.919	24616
819.06	24528
819.2	24574
819.341	24661
819.481	24654
819.622	24829
819.762	25004
819.903	24985
820.043	24776
820.184	24806
820.324	24757
820.465	24817
820.605	24703
820.746	24616
820.886	24627
821.026	24741
821.167	24764
821.307	25004
821.447	24582
821.588	24483
821.728	24513
821.868	24300
822.008	24125
822.149	24034
822.289	24155
822.429	23767
822.569	23870
822.709	23798
822.849	23649
822.99	23619
823.13	23429
823.27	23429
823.41	23341
823.55	23258
823.69	23330
823.83	23440
823.97	23296
824.11	23109
824.25	23060
824.389	23094
824.529	23117
824.669	22995
824.809	23273
824.949	23105
825.089	23242
825.228	23105
825.368	22866
825.508	22816
825.648	22850
825.787	22915
825.927	22877
826.067	22782
826.206	22793
826.346	22839
826.485	22984
826.625	22991
826.765	22850
826.904	22930
827.044	22653
827.183	22508
827.323	22432
827.462	22584
827.601	22626
827.741	22390
827.88	22679
828.02	22382
828.159	22360
828.298	22455
828.437	22542
828.577	22485
828.716	22584
828.855	22402
828.994	22219
829.134	22173
829.273	22200
829.412	22116
829.551	22166
829.69	22276
829.829	22265
829.968	22166
830.107	22242
830.246	22120
830.385	22131
830.524	22051
830.663	21964
830.802	21907
830.941	21766
831.08	21583
831.219	21930
831.357	21876
831.496	21953
831.635	21667
831.774	21561
831.913	21519
832.051	21538
832.19	21496
832.329	21534
832.467	21450
832.606	21363
832.744	21294
832.883	21256
833.022	21351
833.16	21348
833.299	21408
833.437	21306
833.576	21287
833.714	21428
833.852	21351
833.991	21405
834.129	21355
834.267	21454
834.406	21382
834.544	21336
834.682	21348
834.821	21192
834.959	21477
835.097	21237
835.235	21389
835.373	21317
835.511	21294
835.65	21241
835.788	21142
835.926	21017
836.064	21104
836.202	20979
836.34	21188
836.478	21355
836.615	21157
836.753	21226
836.891	21264
837.029	21180
837.167	21051
837.305	21074
837.443	21028
837.58	21020
837.718	21241
837.856	21017
837.993	20963
838.131	21089
838.269	21047
838.406	20899
838.544	20979
838.681	20708
838.819	20689
838.956	20526
839.094	20454
839.231	20499
839.369	20701
839.506	20819
839.643	20629
839.781	20461
839.918	20450
840.055	20461
840.193	20438
840.33	20412
840.467	20404
840.604	20336
840.742	20712
840.879	20252
841.016	20218
841.153	20248
841.29	20408
841.427	20423
841.564	20389
841.701	20438
841.838	20336
841.975	20256
842.112	20214
842.249	20237
842.385	20164
842.522	20263
842.659	20210
842.796	20024
842.933	20096
843.069	19947
843.206	20073
843.343	20058
843.479	20039
843.616	20016
843.752	19890
843.889	19898
844.025	19944
844.162	19712
844.298	19826
844.435	19837
844.571	19651
844.708	19913
844.844	19917
844.98	19913
845.117	19883
845.253	19734
845.389	19795
845.525	19643
845.661	19628
845.798	19491
845.934	19518
846.07	19559
846.206	19502
846.342	19578
846.478	19506
846.614	19293
846.75	19289
846.886	19118
847.022	19384
847.158	19247
847.294	19278
847.429	19304
847.565	19175
847.701	19571
847.837	18970
847.972	18996
848.108	18958
848.244	19072
848.379	18894
848.515	18817
848.65	18738
848.786	18795
848.921	18806
849.057	18905
849.192	18913
849.328	18840
849.463	18852
849.598	18798
849.734	18783
849.869	18703
850.004	18635
850.14	18639
850.275	18540
850.41	18441
850.545	18540
850.68	18525
850.815	18471
850.95	18395
851.085	18677
851.22	18684
851.355	18509
851.49	18559
851.625	18574
851.76	18418
851.895	18418
852.03	18456
852.165	18479
852.299	18563
852.434	18433
852.569	18566
852.703	18486
852.838	18528
852.973	18673
853.107	18623
853.242	18403
853.376	18350
853.511	18205
853.645	18281
853.78	18448
853.914	18251
854.048	18205
854.183	18216
854.317	18258
854.451	18574
854.585	18266
854.72	18330
854.854	18281
854.988	18235
855.122	18330
855.256	18197
855.39	18403
855.524	18327
855.658	18437
855.792	18292
855.926	18372
856.06	18365
856.194	18433
856.327	18346
856.461	18273
856.595	18209
856.729	18292
856.862	18391
856.996	18365
857.13	18361
857.263	18319
857.397	18369
857.53	18220
857.664	18448
857.797	18285
857.931	18540
858.064	18346
858.197	18376
858.331	18224
858.464	18136
858.597	18095
858.731	18247
858.864	18216
858.997	18209
859.13	18338
859.263	18323
859.396	18197
859.529	18224
859.662	18129
859.795	18277
859.928	18251
860.061	18380
860.194	18346
860.327	18330
860.46	18254
860.592	18304
860.725	18319
860.858	18323
860.99	18163
861.123	18106
861.256	18136
861.388	18194
861.521	18802
861.653	17992
861.786	18079
861.918	18026
862.05	18235
862.183	18247
862.315	18323
862.447	18365
862.58	18289
862.712	17965
862.844	18003
862.976	18091
863.108	18034
863.24	18281
863.372	17866
863.504	17863
863.636	17980
863.768	18022
863.9	17969
864.032	17931
864.164	17836
864.296	17984
864.428	17969
864.559	18083
864.691	18049
864.823	17946
864.954	17847
865.086	17950
865.217	17889
865.349	17783
865.48	17897
865.612	17988
865.743	17980
865.875	17950
866.006	17828
866.137	18019
866.269	17832
866.4	17901
866.531	17840
866.662	17733
866.793	17817
866.924	17855
867.055	17836
867.186	17771
867.317	17847
867.448	17653
867.579	17832
867.71	17745
867.841	17821
867.972	17809
868.103	17756
868.233	17863
868.364	17847
868.495	17950
868.625	18064
868.756	18129
868.886	17923
869.017	18072
869.147	18110
869.278	18277
869.408	18140
869.539	18190
869.669	18235
869.799	18053
869.929	18125
870.06	18129
870.19	18353
870.32	18361
870.45	18380
870.58	18585
870.71	18627
870.84	18563
870.97	18433
871.1	18437
871.23	18696
871.36	18593
871.489	18616
871.619	18620
871.749	18597
871.879	18776
872.008	18684
872.138	18642
872.267	18783
872.397	18509
872.526	18483
872.656	18551
872.785	18528
872.915	18616
873.044	18810
873.173	18734
873.303	18798
873.432	18730
873.561	18867
873.69	18848
873.819	18658
873.948	18916
874.077	18692
874.206	18692
874.335	18673
874.464	18791
874.593	18966
874.722	18920
874.851	18996
874.979	19069
875.108	19095
875.237	18973
875.365	18928
875.494	18897
875.623	19072
875.751	18989
875.88	19122
876.008	19133
876.136	19228
876.265	19415
876.393	19658
876.521	19426
876.65	19480
876.778	19476
876.906	19415
877.034	19343
877.162	19365
877.29	19324
877.418	19308
877.546	19278
877.674	19255
877.802	19320
877.93	19316
878.058	19365
878.185	19228
878.313	19240
878.441	19403
878.568	19187
878.696	19297
878.824	19388
878.951	19460
879.079	19544
879.206	19731
879.333	19529
879.461	19521
879.588	19434
879.715	19384
879.842	19674
879.97	19403
880.097	19278
880.224	19225
880.351	19213
880.478	19110
880.605	19236
880.732	19221
880.859	19434
880.986	19320
881.112	19160
881.239	19240
881.366	18882
881.493	18909
881.619	18970
881.746	18913
881.872	18802
881.999	18817
882.125	18798
882.252	18814
882.378	18829
882.505	18993
882.631	18608
882.757	18661
882.883	18665
883.01	18608
883.136	18601
883.262	18353
883.388	18490
883.514	18585
883.64	18597
883.766	18540
883.892	18456
884.018	18464
884.143	18635
884.269	18658
884.395	18376
884.52	18270
884.646	18235
884.772	18273
884.897	18239
885.023	18323
885.148	18365
885.274	18471
885.399	18464
885.524	18338
885.65	18270
885.775	18330
885.9	18167
886.025	18448
886.15	18296
886.275	18182
886.4	18125
886.525	18251
886.65	18136
886.775	18159
886.9	18353
887.025	18460
887.149	18277
887.274	18159
887.399	18060
887.523	18011
887.648	17969
887.773	18030
887.897	18155
888.021	18076
888.146	18068
888.27	18133
888.395	18148
888.519	18106
888.643	18026
888.767	18121
888.891	17961
889.015	17874
889.139	17939
889.263	17779
889.387	17965
889.511	18110
889.635	17889
889.759	17802
889.883	17866
890.006	17786
890.13	17996
890.254	17748
890.377	17783
890.501	17589
890.624	17596
890.748	17707
890.871	17493
890.995	17467
891.118	17387
891.241	17452
891.364	17433
891.488	17619
891.611	17459
891.734	17436
891.857	17509
891.98	17482
892.103	17661
892.226	17463
892.349	17554
892.471	17296
892.594	17425
892.717	17493
892.839	17471
892.962	17425
893.085	17467
893.207	17440
893.33	17326
893.452	17425
893.575	17490
893.697	17337
893.819	17558
893.941	17665
894.064	17459
894.186	17372
894.308	17364
894.43	17566
894.552	17592
894.674	17570
894.796	17326
894.918	17402
895.04	17436
895.161	17543
895.283	17512
895.405	17505
895.526	17516
895.648	17547
895.769	17482
895.891	17543
896.012	17623
896.134	17592
896.255	17566
896.376	17528
896.498	17516
896.619	17543
896.74	17543
896.861	17642
896.982	18015
897.103	18114
897.224	17901
897.345	17741
897.466	17623
897.587	17874
897.708	17901
897.828	17821
897.949	17707
898.07	17661
898.19	17748
898.311	17885
898.431	17764
898.552	17786
898.672	17824
898.792	17920
898.913	17805
899.033	17714
899.153	17596
899.273	17421
899.393	17459
899.513	17558
899.633	17558
899.753	17585
899.873	17524
899.993	17554
900.113	17520
900.232	17452
900.352	17471
900.472	17482
900.591	17349
900.711	17478
900.83	17322
900.95	17634
901.069	17459
901.189	17356
901.308	16991
901.427	16984
901.546	17037
901.665	17018
901.784	17056
901.904	16824
902.023	16717
902.141	16523
902.26	16580
902.379	16687
902.498	16447
902.617	16417
902.735	16561
902.854	16500
902.973	16325
903.091	16276
903.21	16280
903.328	16204
903.446	16071
903.565	16048
903.683	16120
903.801	15915
903.919	15987
904.038	15964
904.156	15873
904.274	15945
904.392	15793
904.51	15762
904.627	15774
904.745	15915
904.863	15899
904.981	15492
905.098	15488
905.216	15557
905.334	15557
905.451	15496
905.569	15519
905.686	15473
905.803	15412
905.921	15268
906.038	15382
906.155	15203
906.272	15157
906.389	15123
906.506	15024
906.623	15112
906.74	15116
906.857	14963
906.974	14902
907.091	15097
907.208	15116
907.324	15074
907.441	14914
907.557	14750
907.674	14682
907.79	14629
907.907	14670
908.023	14720
908.139	14712
908.256	14667
908.372	14583
908.488	14549
908.604	14385
908.72	14381
908.836	14389
908.952	14454
909.068	14480
909.184	14495
909.3	14358
909.415	14518
909.531	14404
909.647	14115
909.762	14107
909.878	14142
909.993	14088
910.108	14065
910.224	14142
910.339	14103
910.454	14050
910.57	13997
910.685	13959
910.8	14240
910.915	14092
911.03	13932
911.145	13795
911.259	13788
911.374	13822
911.489	13723
911.604	13651
911.718	13548
911.833	13571
911.947	13540
912.062	13400
912.176	13491
912.291	13552
912.405	13658
912.519	13674
912.633	13750
912.748	13514
912.862	13510
912.976	13324
913.09	13301
913.204	13320
913.318	13331
913.431	13441
913.545	13453
913.659	13400
913.772	13320
913.886	13206
914	13179
914.113	13335
914.226	13339
914.34	13221
914.453	13126
914.566	13293
914.68	13156
914.793	13129
914.906	12844
915.019	12878
915.132	12810
915.245	12867
915.358	12890
915.47	12890
915.583	12859
915.696	12951
915.809	12951
915.921	12977
916.034	12871
916.146	12814
916.259	12673
916.371	12985
916.483	12924
916.595	12783
916.708	12734
916.82	12779
916.932	12654
917.044	12726
917.156	12703
917.268	12597
917.38	12642
917.491	12597
917.603	12631
917.715	12677
917.826	12669
917.938	12551
918.049	12388
918.161	12582
918.272	12589
918.384	12707
918.495	12509
918.606	12369
918.717	12304
918.828	12384
918.939	12376
919.05	12311
919.161	12429
919.272	12182
919.383	12300
919.494	12369
919.604	12585
919.715	12285
919.826	12285
919.936	12338
920.047	12517
920.157	12407
920.267	12563
920.378	12479
920.488	12353
920.598	12635
920.708	12681
920.818	12452
920.928	12517
921.038	12688
921.148	12642
921.258	12319
921.368	12232
921.477	12091
921.587	12068
921.697	11920
921.806	12091
921.916	12091
922.025	11897
922.134	11836
922.244	11748
922.353	11805
922.462	11661
922.571	11649
922.68	11459
922.789	11459
922.898	11558
923.007	11349
923.116	11463
923.224	11429
923.333	11379
923.442	11307
923.55	11277
923.659	11349
923.767	11417
923.876	11292
923.984	11391
924.092	11185
924.201	11254
924.309	11353
924.417	11296
924.525	11201
924.633	11227
924.741	12197
924.849	10965
924.956	11170
925.064	10938
925.172	10980
925.279	10980
925.387	11018
925.494	11003
925.602	11147
925.709	11048
925.816	10957
925.924	11075
926.031	11029
926.138	11022
926.245	11014
926.352	10889
926.459	11033
926.566	11010
926.673	10965
926.779	10885
926.886	10824
926.993	10717
927.099	10580
927.206	10668
927.312	10596
927.419	10626
927.525	10675
927.631	10660
927.737	10493
927.843	10508
927.95	10386
928.056	10478
928.162	10497
928.267	10485
928.373	11208
928.479	10603
928.585	10363
928.69	10417
928.796	10489
928.901	10424
929.007	10303
929.112	10299
929.218	10314
929.323	10261
929.428	10329
929.533	10409
929.638	10242
929.743	10200
929.848	10242
929.953	10215
930.058	10169
930.163	9972
930.267	9987
930.372	10086
930.477	10006
930.581	10219
930.685	9949
930.79	9861
930.894	9987
930.998	9823
931.103	10010
931.207	9614
931.311	9622
931.415	9454
931.519	9408
931.623	9256
