Data from test_V78500241_511.txt Node
Date: Fri Mar 25 15:45:20 CST 2022
User: usil
Spectrometer: V785-0024
Trigger mode: 0
Integration Time (sec): 4.000000E-1
Scans to average: 1
Nonlinearity correction enabled: false
Boxcar width: 0
Storing dark spectrum: false
XAxis mode: Wavelengths
Number of Pixels in Spectrum: 1024
>>>>>Begin Spectral Data<<<<<
801.071	27233
801.214	27165
801.356	26830
801.499	26971
801.641	26777
801.783	26785
801.926	26800
802.068	26651
802.211	26629
802.353	26663
802.496	26469
802.638	26355
802.78	26305
802.923	26320
803.065	26267
803.208	26389
803.35	26370
803.492	26404
803.635	26457
803.777	26412
803.919	26552
804.061	26804
804.204	26537
804.346	26461
804.488	26427
804.63	26484
804.773	26453
804.915	26499
805.057	26651
805.199	26594
805.341	26427
805.483	26617
805.626	26545
805.768	26404
805.91	26499
806.052	26598
806.194	26579
806.336	26921
806.478	26712
806.62	26727
806.762	26686
806.904	26864
807.046	27135
807.188	27100
807.33	26948
807.472	27226
807.614	26933
807.756	26990
807.898	26921
808.04	26781
808.182	26765
808.324	26937
808.465	26880
808.607	27089
808.749	27199
808.891	27313
809.033	27427
809.174	27374
809.316	27176
809.458	27359
809.6	27344
809.741	27534
809.883	27458
810.025	27427
810.166	27488
810.308	27416
810.45	27336
810.591	27447
810.733	27176
810.875	27188
811.016	27195
811.158	27123
811.299	27321
811.441	27275
811.582	27359
811.724	27127
811.865	27199
812.007	27230
812.148	27165
812.29	27294
812.431	27431
812.573	27435
812.714	27656
812.855	27675
812.997	27918
813.138	27785
813.279	27998
813.421	27808
813.562	27599
813.703	27580
813.845	27450
813.986	27036
814.127	26921
814.268	26967
814.41	26834
814.551	26861
814.692	27005
814.833	26796
814.974	26819
815.115	26872
815.256	26773
815.397	26697
815.539	26598
815.68	26705
815.821	26632
815.962	26754
816.103	26640
816.244	26434
816.385	26374
816.526	26427
816.666	26221
816.807	26069
816.948	26305
817.089	26328
817.23	26176
817.371	26077
817.512	26096
817.653	26103
817.793	26096
817.934	26210
818.075	26142
818.216	25978
818.356	26111
818.497	26031
818.638	25906
818.778	25776
818.919	25799
819.06	25906
819.2	26008
819.341	26035
819.481	26096
819.622	26191
819.762	26366
819.903	26294
820.043	26149
820.184	26393
820.324	26267
820.465	26290
820.605	26183
820.746	26225
820.886	26035
821.026	26142
821.167	26111
821.307	26206
821.447	26065
821.588	26096
821.728	25997
821.868	25685
822.008	25674
822.149	25594
822.289	25582
822.429	25343
822.569	25225
822.709	25244
822.849	25126
822.99	25179
823.13	25114
823.27	25027
823.41	24970
823.55	24787
823.69	24943
823.83	24897
823.97	24909
824.11	24669
824.25	24696
824.389	24646
824.529	24901
824.669	24772
824.809	24901
824.949	24741
825.089	24738
825.228	24783
825.368	24563
825.508	24536
825.648	24582
825.787	24582
825.927	24703
826.067	24513
826.206	24498
826.346	24578
826.485	24570
826.625	24646
826.765	24593
826.904	24627
827.044	24247
827.183	24342
827.323	24209
827.462	24365
827.601	24315
827.741	24315
827.88	24376
828.02	24121
828.159	24117
828.298	24308
828.437	24289
828.577	24144
828.716	24330
828.855	24114
828.994	23923
829.134	24015
829.273	24125
829.412	23920
829.551	23824
829.69	24022
829.829	24018
829.968	24015
830.107	24087
830.246	24026
830.385	23863
830.524	23920
830.663	23707
830.802	23649
830.941	23562
831.08	23395
831.219	23722
831.357	23630
831.496	23786
831.635	23691
831.774	23440
831.913	23516
832.051	23444
832.19	23360
832.329	23444
832.467	23368
832.606	23212
832.744	23277
832.883	23341
833.022	23296
833.16	23277
833.299	23261
833.437	23307
833.576	23417
833.714	23239
833.852	23372
833.991	23296
834.129	23493
834.267	23322
834.406	23360
834.544	23345
834.682	23326
834.821	23197
834.959	23436
835.097	23265
835.235	23398
835.373	23197
835.511	23155
835.65	23178
835.788	23174
835.926	23071
836.064	22850
836.202	22961
836.34	23223
836.478	23220
836.615	23143
836.753	23227
836.891	23307
837.029	23280
837.167	23105
837.305	22984
837.443	23022
837.58	23014
837.718	22919
837.856	22908
837.993	22911
838.131	22946
838.269	22786
838.406	22946
838.544	22767
838.681	22843
838.819	22702
838.956	22447
839.094	22386
839.231	22504
839.369	22588
839.506	22839
839.643	22713
839.781	22512
839.918	22371
840.055	22451
840.193	22363
840.33	22379
840.467	22455
840.604	22516
840.742	22630
840.879	22284
841.016	22322
841.153	22261
841.29	22561
841.427	22455
841.564	22386
841.701	22299
841.838	22265
841.975	22375
842.112	22318
842.249	22234
842.385	22257
842.522	22382
842.659	22303
842.796	22128
842.933	22158
843.069	22116
843.206	22131
843.343	22226
843.479	22116
843.616	22234
843.752	21808
843.889	21964
844.025	22021
844.162	21869
844.298	21983
844.435	22013
844.571	21785
844.708	21869
844.844	22040
844.98	21991
845.117	21911
845.253	21876
845.389	21770
845.525	21686
845.661	21880
845.798	21641
845.934	21694
846.07	21793
846.206	21705
846.342	21762
846.478	21660
846.614	21526
846.75	21298
846.886	21287
847.022	21378
847.158	21412
847.294	21412
847.429	21477
847.565	21416
847.701	21523
847.837	21150
847.972	21081
848.108	21192
848.244	21138
848.379	21024
848.515	20925
848.65	20990
848.786	20891
848.921	21051
849.057	21051
849.192	21058
849.328	20956
849.463	20906
849.598	20906
849.734	20830
849.869	20868
850.004	20731
850.14	20804
850.275	20765
850.41	20549
850.545	20651
850.68	20716
850.815	20781
850.95	20731
851.085	20952
851.22	20754
851.355	20796
851.49	20857
851.625	20807
851.76	20602
851.895	20655
852.03	20727
852.165	20804
852.299	20796
852.434	20918
852.569	20765
852.703	20765
852.838	20731
852.973	20777
853.107	20823
853.242	20678
853.376	20617
853.511	20492
853.645	20442
853.78	20663
853.914	20594
854.048	20541
854.183	20587
854.317	20617
854.451	20739
854.585	20583
854.72	20648
854.854	20564
854.988	20552
855.122	20598
855.256	20427
855.39	20571
855.524	20796
855.658	20636
855.792	20583
855.926	20678
856.06	20682
856.194	20602
856.327	20648
856.461	20712
856.595	20492
856.729	20560
856.862	20655
856.996	20682
857.13	20659
857.263	20674
857.397	20762
857.53	20575
857.664	20659
857.797	20644
857.931	20667
858.064	20644
858.197	20693
858.331	20667
858.464	20518
858.597	20533
858.731	20606
858.864	20568
858.997	20518
859.13	20545
859.263	20545
859.396	20815
859.529	20564
859.662	20537
859.795	20537
859.928	20575
860.061	20743
860.194	20785
860.327	20678
860.46	20602
860.592	20754
860.725	20857
860.858	20800
860.99	20568
861.123	20488
861.256	20484
861.388	20438
861.521	21245
861.653	20431
861.786	20434
861.918	20446
862.05	20499
862.183	20469
862.315	20423
862.447	20625
862.58	20454
862.712	20412
862.844	20347
862.976	20336
863.108	20301
863.24	20781
863.372	20202
863.504	20434
863.636	20275
863.768	20309
863.9	20324
864.032	20229
864.164	20237
864.296	20248
864.428	20461
864.559	20377
864.691	20427
864.823	20263
864.954	20214
865.086	20229
865.217	20149
865.349	19898
865.48	20225
865.612	20126
865.743	20351
865.875	20286
866.006	20134
866.137	20206
866.269	20149
866.4	20077
866.531	20153
866.662	20145
866.793	20119
866.924	20119
867.055	20077
867.186	20039
867.317	20172
867.448	20103
867.579	20172
867.71	20157
867.841	20016
867.972	20168
868.103	20084
868.233	20077
868.364	20142
868.495	20237
868.625	20275
868.756	20465
868.886	20347
869.017	20347
869.147	20518
869.278	20541
869.408	20324
869.539	20419
869.669	20522
869.799	20400
869.929	20549
870.06	20446
870.19	20613
870.32	20659
870.45	20731
870.58	20765
870.71	20899
870.84	20883
870.97	20868
871.1	20758
871.23	20960
871.36	20921
871.489	20910
871.619	20914
871.749	20990
871.879	20914
872.008	21157
872.138	20967
872.267	20975
872.397	20830
872.526	20834
872.656	20823
872.785	20861
872.915	21074
873.044	20952
873.173	21009
873.303	21123
873.432	21028
873.561	21116
873.69	20986
873.819	21058
873.948	20979
874.077	21104
874.206	21138
874.335	21066
874.464	21138
874.593	21237
874.722	21283
874.851	21344
874.979	21230
875.108	21370
875.237	21131
875.365	21173
875.494	21169
875.623	21340
875.751	21260
875.88	21306
876.008	21355
876.136	21500
876.265	21747
876.393	21781
876.521	21720
876.65	21720
876.778	21603
876.906	21610
877.034	21542
877.162	21614
877.29	21679
877.418	21648
877.546	21603
877.674	21629
877.802	21580
877.93	21713
878.058	21610
878.185	21496
878.313	21485
878.441	21637
878.568	21329
878.696	21553
878.824	21648
878.951	21778
879.079	21785
879.206	21895
879.333	21812
879.461	21561
879.588	21793
879.715	21720
879.842	21755
879.97	21667
880.097	21359
880.224	21576
880.351	21408
880.478	21542
880.605	21424
880.732	21359
880.859	21610
880.986	21507
881.112	21462
881.239	21218
881.366	21169
881.493	21005
881.619	21055
881.746	20967
881.872	21051
881.999	20948
882.125	20963
882.252	21089
882.378	20979
882.505	21077
882.631	20990
882.757	20697
882.883	20811
883.01	20735
883.136	20621
883.262	20701
883.388	20575
883.514	20743
883.64	20762
883.766	20739
883.892	20408
884.018	20568
884.143	20556
884.269	20765
884.395	20473
884.52	20396
884.646	20438
884.772	20259
884.897	20328
885.023	20286
885.148	20431
885.274	20495
885.399	20492
885.524	20419
885.65	20362
885.775	20237
885.9	20457
886.025	20427
886.15	20351
886.275	20309
886.4	20221
886.525	20290
886.65	20377
886.775	20240
886.9	20404
887.025	20541
887.149	20362
887.274	20282
887.399	19978
887.523	20126
887.648	20214
887.773	20134
887.897	20183
888.021	20180
888.146	20145
888.27	20282
888.395	20298
888.519	20115
888.643	20237
888.767	20195
888.891	19993
889.015	19974
889.139	20039
889.263	19955
889.387	19951
889.511	20176
889.635	19989
889.759	19845
889.883	19879
890.006	20031
890.13	20005
890.254	19947
890.377	19944
890.501	19795
890.624	19662
890.748	19898
890.871	19746
890.995	19422
891.118	19407
891.241	19529
891.364	19651
891.488	19616
891.611	19491
891.734	19518
891.857	19624
891.98	19537
892.103	19594
892.226	19480
892.349	19460
892.471	19316
892.594	19537
892.717	19559
892.839	19491
892.962	19419
893.085	19457
893.207	19263
893.33	19304
893.452	19384
893.575	19472
893.697	19331
893.819	19666
893.941	19658
894.064	19499
894.186	19362
894.308	19476
894.43	19620
894.552	19609
894.674	19468
894.796	19400
894.918	19381
895.04	19411
895.161	19575
895.283	19514
895.405	19324
895.526	19430
895.648	19487
895.769	19578
895.891	19476
896.012	19594
896.134	19525
896.255	19571
896.376	19415
896.498	19495
896.619	19518
896.74	19468
896.861	19502
896.982	19837
897.103	20050
897.224	19727
897.345	19742
897.466	19677
897.587	19738
897.708	19772
897.828	19689
897.949	19620
898.07	19537
898.19	19624
898.311	19723
898.431	19628
898.552	19651
898.672	19693
898.792	19841
898.913	19685
899.033	19590
899.153	19540
899.273	19438
899.393	19403
899.513	19537
899.633	19506
899.753	19533
899.873	19293
899.993	19533
900.113	19358
900.232	19552
900.352	19373
900.472	19365
900.591	19247
900.711	19316
900.83	19232
900.95	19312
901.069	19324
901.189	19213
901.308	19000
901.427	18844
901.546	18886
901.665	18913
901.784	18741
901.904	18753
902.023	18661
902.141	18384
902.26	18357
902.379	18494
902.498	18391
902.617	18350
902.735	18467
902.854	18384
902.973	18270
903.091	18098
903.21	18106
903.328	18106
903.446	17992
903.565	17878
903.683	17923
903.801	17794
903.919	17866
904.038	17783
904.156	17665
904.274	17687
904.392	17524
904.51	17608
904.627	17619
904.745	17703
904.863	17783
904.981	17364
905.098	17254
905.216	17280
905.334	17284
905.451	17345
905.569	17334
905.686	17356
905.803	17269
905.921	17083
906.038	17189
906.155	17113
906.272	17029
906.389	17094
906.506	16805
906.623	16896
906.74	16866
906.857	16759
906.974	16767
907.091	16866
907.208	16991
907.324	16873
907.441	16797
907.557	16615
907.674	16512
907.79	16413
907.907	16523
908.023	16474
908.139	16462
908.256	16580
908.372	16447
908.488	16485
908.604	16295
908.72	16325
908.836	16329
908.952	16234
909.068	16318
909.184	16341
909.3	16204
909.415	16375
909.531	16204
909.647	16067
909.762	15953
909.878	15926
909.993	16002
910.108	15949
910.224	15873
910.339	15953
910.454	15930
910.57	15713
910.685	15705
910.8	16055
910.915	15964
911.03	15876
911.145	15747
911.259	15584
911.374	15538
911.489	15405
911.604	15519
911.718	15336
911.833	15431
911.947	15355
912.062	15233
912.176	15450
912.291	15268
912.405	15386
912.519	15500
912.633	15564
912.748	15408
912.862	15245
912.976	15127
913.09	14982
913.204	15058
913.318	15256
913.431	15348
913.545	15154
913.659	15306
913.772	15173
913.886	14975
914	15043
914.113	15074
914.226	14994
914.34	14986
914.453	14952
914.566	15142
914.68	14849
914.793	14906
914.906	14663
915.019	14598
915.132	14530
915.245	14571
915.358	14682
915.47	14659
915.583	14530
915.696	14648
915.809	14765
915.921	14716
916.034	14526
916.146	14476
916.259	14514
916.371	14594
916.483	14556
916.595	14434
916.708	14366
916.82	14476
916.932	14366
917.044	14355
917.156	14423
917.268	14294
917.38	14218
917.491	14320
917.603	14328
917.715	14355
917.826	14309
917.938	14210
918.049	14039
918.161	14153
918.272	14282
918.384	14476
918.495	14142
918.606	14062
918.717	13967
918.828	14183
918.939	14115
919.05	13970
919.161	14012
919.272	13822
919.383	13887
919.494	14084
919.604	14248
919.715	13974
919.826	13932
919.936	13963
920.047	14092
920.157	13978
920.267	14206
920.378	14050
920.488	13959
920.598	14168
920.708	14259
920.818	14149
920.928	14172
921.038	14282
921.148	14332
921.258	14073
921.368	13868
921.477	13704
921.587	13803
921.697	13677
921.806	13750
921.916	13597
922.025	13514
922.134	13365
922.244	13324
922.353	13476
922.462	13312
922.571	13213
922.68	13152
922.789	13122
922.898	13042
923.007	13004
923.116	13168
923.224	12981
923.333	13080
923.442	12981
923.55	12886
923.659	12916
923.767	13004
923.876	12901
923.984	12951
924.092	12662
924.201	12844
924.309	12791
924.417	12798
924.525	12798
924.633	12745
924.741	13407
924.849	12555
924.956	12730
925.064	12517
925.172	12410
925.279	12502
925.387	12612
925.494	12460
925.602	12715
925.709	12551
925.816	12475
925.924	12467
926.031	12509
926.138	12490
926.245	12528
926.352	12395
926.459	12502
926.566	12429
926.673	12437
926.779	12330
926.886	12311
926.993	12175
927.099	12072
927.206	12091
927.312	11977
927.419	12178
927.525	12079
927.631	12194
927.737	11996
927.843	11908
927.95	11798
928.056	11954
928.162	11939
928.267	12011
928.373	12566
928.479	12057
928.585	11718
928.69	11935
928.796	11942
928.901	11684
929.007	11680
929.112	11745
929.218	11691
929.323	11688
929.428	11653
929.533	11813
929.638	11676
929.743	11627
929.848	11676
929.953	11543
930.058	11528
930.163	11322
930.267	11368
930.372	11592
930.477	11360
930.581	11566
930.685	11410
930.79	11288
930.894	11208
930.998	11334
931.103	11414
931.207	10961
931.311	10957
931.415	10934
931.519	10771
931.623	10611
