Data from test_V78500241_863.txt Node
Date: Fri Mar 25 15:47:46 CST 2022
User: usil
Spectrometer: V785-0024
Trigger mode: 0
Integration Time (sec): 4.000000E-1
Scans to average: 1
Nonlinearity correction enabled: false
Boxcar width: 0
Storing dark spectrum: false
XAxis mode: Wavelengths
Number of Pixels in Spectrum: 1024
>>>>>Begin Spectral Data<<<<<
801.071	27701
801.214	27580
801.356	27283
801.499	27401
801.641	27161
801.783	27355
801.926	27272
802.068	27272
802.211	27135
802.353	27058
802.496	26883
802.638	26765
802.78	26819
802.923	26891
803.065	26781
803.208	26868
803.35	26891
803.492	26842
803.635	27123
803.777	26849
803.919	27013
804.061	27340
804.204	27093
804.346	27001
804.488	26925
804.63	27039
804.773	26948
804.915	27062
805.057	27195
805.199	27024
805.341	27199
805.483	27108
805.626	27245
805.768	27135
805.91	27146
806.052	27211
806.194	27142
806.336	27332
806.478	27370
806.62	27123
806.762	27310
806.904	27679
807.046	27679
807.188	27530
807.33	27637
807.472	27603
807.614	27564
807.756	27545
807.898	27378
808.04	27496
808.182	27420
808.324	27454
808.465	27538
808.607	27610
808.749	27865
808.891	27979
809.033	28093
809.174	27880
809.316	27770
809.458	27781
809.6	27876
809.741	27865
809.883	28139
810.025	28169
810.166	28029
810.308	28048
810.45	28242
810.591	27914
810.733	27865
810.875	27869
811.016	27682
811.158	27823
811.299	28074
811.441	28040
811.582	28067
811.724	27880
811.865	27911
812.007	27911
812.148	27903
812.29	27857
812.431	28048
812.573	28200
812.714	28242
812.855	28341
812.997	28405
813.138	28405
813.279	28542
813.421	28485
813.562	28344
813.703	28101
813.845	28143
813.986	27857
814.127	27671
814.268	27568
814.41	27549
814.551	27583
814.692	27622
814.833	27496
814.974	27549
815.115	27454
815.256	27408
815.397	27435
815.539	27397
815.68	27279
815.821	27427
815.962	27313
816.103	27321
816.244	27260
816.385	27275
816.526	26929
816.666	26880
816.807	26834
816.948	26967
817.089	27009
817.23	26868
817.371	26880
817.512	26724
817.653	26727
817.793	26724
817.934	26686
818.075	26834
818.216	26811
818.356	26648
818.497	26613
818.638	26590
818.778	26575
818.919	26461
819.06	26587
819.2	26651
819.341	26876
819.481	26845
819.622	26944
819.762	27108
819.903	27100
820.043	26994
820.184	27013
820.324	26918
820.465	27043
820.605	26963
820.746	26929
820.886	26735
821.026	26857
821.167	26819
821.307	27066
821.447	26895
821.588	26693
821.728	26792
821.868	26488
822.008	26320
822.149	26282
822.289	26248
822.429	26035
822.569	25989
822.709	25974
822.849	25852
822.99	25833
823.13	25689
823.27	25719
823.41	25571
823.55	25582
823.69	25639
823.83	25575
823.97	25571
824.11	25403
824.25	25320
824.389	25331
824.529	25514
824.669	25521
824.809	25453
824.949	25430
825.089	25521
825.228	25384
825.368	25293
825.508	25335
825.648	25240
825.787	25331
825.927	25396
826.067	25293
826.206	25289
826.346	25369
826.485	25350
826.625	25179
826.765	25453
826.904	25369
827.044	25076
827.183	25107
827.323	25034
827.462	24951
827.601	25084
827.741	24970
827.88	25000
828.02	24962
828.159	25042
828.298	25038
828.437	25012
828.577	25038
828.716	25141
828.855	24970
828.994	24814
829.134	24719
829.273	24760
829.412	24707
829.551	24715
829.69	24768
829.829	24764
829.968	24833
830.107	24719
830.246	24768
830.385	24692
830.524	24635
830.663	24536
830.802	24475
830.941	24285
831.08	24254
831.219	24498
831.357	24536
831.496	24551
831.635	24201
831.774	24262
831.913	24216
832.051	24072
832.19	24182
832.329	24201
832.467	24064
832.606	24003
832.744	23916
832.883	24026
833.022	24030
833.16	23973
833.299	24114
833.437	24110
833.576	24155
833.714	24022
833.852	24155
833.991	24129
834.129	24182
834.267	24083
834.406	24148
834.544	24129
834.682	23969
834.821	24011
834.959	24155
835.097	23920
835.235	23996
835.373	24053
835.511	23984
835.65	23912
835.788	23999
835.926	23767
836.064	23687
836.202	23901
836.34	23897
836.478	23920
836.615	23908
836.753	23958
836.891	23984
837.029	23920
837.167	23775
837.305	23767
837.443	23752
837.58	23615
837.718	23703
837.856	23745
837.993	23619
838.131	23767
838.269	23619
838.406	23543
838.544	23684
838.681	23402
838.819	23277
838.956	23166
839.094	23174
839.231	23436
839.369	23398
839.506	23562
839.643	23425
839.781	23239
839.918	23273
840.055	23220
840.193	23235
840.33	23075
840.467	23181
840.604	23212
840.742	23391
840.879	22991
841.016	23075
841.153	23022
841.29	23280
841.427	23067
841.564	23113
841.701	23102
841.838	22980
841.975	23003
842.112	23022
842.249	23029
842.385	22892
842.522	23181
842.659	22942
842.796	22904
842.933	22812
843.069	22904
843.206	22862
843.343	22976
843.479	22824
843.616	22717
843.752	22607
843.889	22710
844.025	22721
844.162	22634
844.298	22782
844.435	22668
844.571	22717
844.708	22729
844.844	22744
844.98	22801
845.117	22828
845.253	22538
845.389	22599
845.525	22656
845.661	22462
845.798	22394
845.934	22459
846.07	22299
846.206	22405
846.342	22432
846.478	22352
846.614	22105
846.75	22109
846.886	22044
847.022	22139
847.158	22097
847.294	22135
847.429	22040
847.565	22082
847.701	22432
847.837	21850
847.972	21884
848.108	21907
848.244	21869
848.379	21759
848.515	21732
848.65	21690
848.786	21724
848.921	21846
849.057	21755
849.192	21713
849.328	21781
849.463	21648
849.598	21656
849.734	21603
849.869	21542
850.004	21504
850.14	21587
850.275	21504
850.41	21348
850.545	21534
850.68	21393
850.815	21458
850.95	21370
851.085	21583
851.22	21545
851.355	21504
851.49	21374
851.625	21473
851.76	21431
851.895	21340
852.03	21325
852.165	21412
852.299	21530
852.434	21504
852.569	21378
852.703	21313
852.838	21656
852.973	21515
853.107	21656
853.242	21260
853.376	21211
853.511	21161
853.645	21287
853.78	21306
853.914	21222
854.048	21298
854.183	21332
854.317	21287
854.451	21386
854.585	21298
854.72	21279
854.854	21275
854.988	21169
855.122	21378
855.256	21108
855.39	21218
855.524	21424
855.658	21188
855.792	21313
855.926	21287
856.06	21268
856.194	21260
856.327	21351
856.461	21146
856.595	21176
856.729	21222
856.862	21332
856.996	21287
857.13	21367
857.263	21428
857.397	21443
857.53	21359
857.664	21325
857.797	21408
857.931	21519
858.064	21298
858.197	21317
858.331	21310
858.464	21359
858.597	21135
858.731	21348
858.864	21146
858.997	21233
859.13	21245
859.263	21298
859.396	21268
859.529	21268
859.662	21367
859.795	21180
859.928	21329
860.061	21462
860.194	21424
860.327	21222
860.46	21348
860.592	21374
860.725	21458
860.858	21466
860.99	21313
861.123	21249
861.256	21123
861.388	21252
861.521	21918
861.653	21055
861.786	21093
861.918	21066
862.05	21142
862.183	21245
862.315	21207
862.447	21294
862.58	21268
862.712	20986
862.844	20906
862.976	21127
863.108	21032
863.24	21355
863.372	20979
863.504	21028
863.636	20956
863.768	20986
863.9	20891
864.032	20971
864.164	20921
864.296	20952
864.428	21036
864.559	21074
864.691	21051
864.823	20975
864.954	20948
865.086	21032
865.217	20921
865.349	20807
865.48	20941
865.612	20887
865.743	21032
865.875	20811
866.006	20834
866.137	20800
866.269	20807
866.4	20857
866.531	20819
866.662	20773
866.793	20819
866.924	20887
867.055	20895
867.186	20838
867.317	20762
867.448	20693
867.579	20785
867.71	20811
867.841	20613
867.972	20773
868.103	20758
868.233	20876
868.364	20781
868.495	20994
868.625	21077
868.756	21001
868.886	20982
869.017	21207
869.147	21298
869.278	21173
869.408	21123
869.539	21089
869.669	21001
869.799	21161
869.929	21127
870.06	21104
870.19	21420
870.32	21382
870.45	21420
870.58	21378
870.71	21557
870.84	21443
870.97	21454
871.1	21325
871.23	21572
871.36	21701
871.489	21629
871.619	21572
871.749	21724
871.879	21717
872.008	21838
872.138	21774
872.267	21633
872.397	21553
872.526	21549
872.656	21519
872.785	21431
872.915	21766
873.044	21713
873.173	21694
873.303	21663
873.432	21717
873.561	21732
873.69	21732
873.819	21580
873.948	21705
874.077	21660
874.206	21637
874.335	21606
874.464	21819
874.593	21994
874.722	21865
874.851	21979
874.979	21854
875.108	21937
875.237	21911
875.365	21808
875.494	21781
875.623	21827
875.751	21884
875.88	21975
876.008	22029
876.136	22048
876.265	22196
876.393	22417
876.521	22303
876.65	22409
876.778	22375
876.906	22253
877.034	22090
877.162	22280
877.29	22109
877.418	22333
877.546	22223
877.674	22295
877.802	22207
877.93	22139
878.058	22211
878.185	22051
878.313	22242
878.441	22101
878.568	22090
878.696	22344
878.824	22295
878.951	22360
879.079	22306
879.206	22634
879.333	22470
879.461	22375
879.588	22394
879.715	22470
879.842	22542
879.97	22417
880.097	22040
880.224	22090
880.351	22097
880.478	22147
880.605	22036
880.732	22044
880.859	22265
880.986	22177
881.112	21972
881.239	22067
881.366	21774
881.493	21720
881.619	21614
881.746	21705
881.872	21705
881.999	21603
882.125	21576
882.252	21641
882.378	21500
882.505	21781
882.631	21572
882.757	21355
882.883	21454
883.01	21287
883.136	21272
883.262	21157
883.388	21195
883.514	21348
883.64	21397
883.766	21226
883.892	21135
884.018	21089
884.143	21428
884.269	21294
884.395	20944
884.52	20979
884.646	21036
884.772	20933
884.897	20845
885.023	21039
885.148	21104
885.274	21070
885.399	21180
885.524	21173
885.65	20963
885.775	20982
885.9	20986
886.025	20956
886.15	21009
886.275	20868
886.4	20838
886.525	20842
886.65	20887
886.775	20906
886.9	21184
887.025	21214
887.149	20914
887.274	20891
887.399	20823
887.523	20906
887.648	20731
887.773	20659
887.897	20845
888.021	20758
888.146	20655
888.27	20708
888.395	20815
888.519	20720
888.643	20746
888.767	20849
888.891	20693
889.015	20571
889.139	20598
889.263	20541
889.387	20594
889.511	20785
889.635	20765
889.759	20678
889.883	20427
890.006	20625
890.13	20590
890.254	20431
890.377	20518
890.501	20419
890.624	20320
890.748	20370
890.871	20320
890.995	20084
891.118	20062
891.241	20134
891.364	20161
891.488	20176
891.611	20187
891.734	20149
891.857	20092
891.98	20069
892.103	20233
892.226	20176
892.349	20043
892.471	19913
892.594	20024
892.717	20001
892.839	20054
892.962	20031
893.085	20195
893.207	20046
893.33	19887
893.452	19932
893.575	20100
893.697	20043
893.819	20183
893.941	20225
894.064	20134
894.186	19997
894.308	19925
894.43	20206
894.552	20168
894.674	20149
894.796	19902
894.918	19974
895.04	19967
895.161	20115
895.283	19947
895.405	19986
895.526	20001
895.648	20012
895.769	20119
895.891	20054
896.012	20176
896.134	20092
896.255	20103
896.376	19997
896.498	19970
896.619	20035
896.74	20035
896.861	20069
896.982	20336
897.103	20552
897.224	20256
897.345	20271
897.466	20210
897.587	20218
897.708	20434
897.828	20328
897.949	20206
898.07	20100
898.19	20298
898.311	20320
898.431	20259
898.552	20282
898.672	20374
898.792	20290
898.913	20282
899.033	20134
899.153	20164
899.273	19936
899.393	20130
899.513	20031
899.633	19970
899.753	20115
899.873	20001
899.993	20122
900.113	19883
900.232	19967
900.352	19940
900.472	19887
900.591	19788
900.711	19864
900.83	19818
900.95	19955
901.069	19818
901.189	19719
901.308	19411
901.427	19415
901.546	19358
901.665	19381
901.784	19457
901.904	19316
902.023	19171
902.141	18977
902.26	18901
902.379	19023
902.498	18954
902.617	18943
902.735	18913
902.854	18924
902.973	18760
903.091	18658
903.21	18589
903.328	18502
903.446	18502
903.565	18456
903.683	18369
903.801	18319
903.919	18388
904.038	18315
904.156	18197
904.274	18289
904.392	18178
904.51	18106
904.627	18182
904.745	18213
904.863	18178
904.981	17927
905.098	17813
905.216	17916
905.334	17813
905.451	17817
905.569	17737
905.686	17824
905.803	17824
905.921	17615
906.038	17665
906.155	17627
906.272	17436
906.389	17402
906.506	17383
906.623	17353
906.74	17376
906.857	17246
906.974	17292
907.091	17440
907.208	17410
907.324	17265
907.441	17204
907.557	17121
907.674	17155
907.79	16999
907.907	16991
908.023	17018
908.139	17075
908.256	16991
908.372	16961
908.488	17010
908.604	16839
908.72	16721
908.836	16839
908.952	16710
909.068	16797
909.184	16953
909.3	16713
909.415	16835
909.531	16706
909.647	16493
909.762	16402
909.878	16405
909.993	16493
910.108	16451
910.224	16569
910.339	16478
910.454	16325
910.57	16306
910.685	16276
910.8	16478
910.915	16493
911.03	16280
911.145	16147
911.259	16166
911.374	16135
911.489	16090
911.604	15956
911.718	15827
911.833	15778
911.947	15644
912.062	15656
912.176	15819
912.291	15846
912.405	15895
912.519	16078
912.633	16044
912.748	15876
912.862	15762
912.976	15701
913.09	15477
913.204	15648
913.318	15705
913.431	15625
913.545	15690
913.659	15762
913.772	15618
913.886	15473
914	15408
914.113	15492
914.226	15534
914.34	15523
914.453	15294
914.566	15526
914.68	15332
914.793	15256
914.906	15222
915.019	14948
915.132	15017
915.245	14998
915.358	15032
915.47	15123
915.583	15123
915.696	15058
915.809	15188
915.921	15165
916.034	14944
916.146	15013
916.259	14952
916.371	15013
916.483	15062
916.595	15001
916.708	14906
916.82	14861
916.932	14853
917.044	14868
917.156	14758
917.268	14651
917.38	14716
917.491	14644
917.603	14701
917.715	14849
917.826	14773
917.938	14613
918.049	14480
918.161	14655
918.272	14727
918.384	14762
918.495	14648
918.606	14480
918.717	14385
918.828	14549
918.939	14480
919.05	14374
919.161	14370
919.272	14343
919.383	14328
919.494	14522
919.604	14739
919.715	14434
919.826	14393
919.936	14480
920.047	14530
920.157	14503
920.267	14598
920.378	14427
920.488	14377
920.598	14610
920.708	14716
920.818	14590
920.928	14507
921.038	14769
921.148	14610
921.258	14442
921.368	14244
921.477	14138
921.587	14191
921.697	14008
921.806	14218
921.916	14069
922.025	13856
922.134	13780
922.244	13799
922.353	13818
922.462	13715
922.571	13613
922.68	13430
922.789	13483
922.898	13491
923.007	13369
923.116	13540
923.224	13502
923.333	13430
923.442	13369
923.55	13346
923.659	13312
923.767	13403
923.876	13274
923.984	13381
924.092	13194
924.201	13316
924.309	13202
924.417	13247
924.525	13133
924.633	13099
924.741	14069
924.849	13019
924.956	13057
925.064	12932
925.172	12863
925.279	12878
925.387	12905
925.494	12905
925.602	13065
925.709	12928
925.816	12844
925.924	12821
926.031	12970
926.138	12848
926.245	12886
926.352	12764
926.459	12802
926.566	12897
926.673	12734
926.779	12635
926.886	12593
926.993	12502
927.099	12460
927.206	12311
927.312	12350
927.419	12513
927.525	12467
927.631	12414
927.737	12369
927.843	12296
927.95	12171
928.056	12266
928.162	12247
928.267	12376
928.373	12856
928.479	12414
928.585	12228
928.69	12273
928.796	12178
928.901	12232
929.007	12045
929.112	12178
929.218	12038
929.323	12038
929.428	12038
929.533	12129
929.638	11931
929.743	12022
929.848	11973
929.953	11984
930.058	11885
930.163	11680
930.267	11710
930.372	11805
930.477	11688
930.581	11923
930.685	11752
930.79	11615
930.894	11665
930.998	11585
931.103	11688
931.207	11372
931.311	11250
931.415	11109
931.519	10934
931.623	10980
