Data from test_V78500241_2366.txt Node
Date: Fri Mar 25 15:58:11 CST 2022
User: usil
Spectrometer: V785-0024
Trigger mode: 0
Integration Time (sec): 4.000000E-1
Scans to average: 1
Nonlinearity correction enabled: false
Boxcar width: 0
Storing dark spectrum: false
XAxis mode: Wavelengths
Number of Pixels in Spectrum: 1024
>>>>>Begin Spectral Data<<<<<
801.071	28348
801.214	28333
801.356	28242
801.499	28082
801.641	28013
801.783	27979
801.926	28074
802.068	28059
802.211	27911
802.353	27953
802.496	27743
802.638	27561
802.78	27595
802.923	27431
803.065	27633
803.208	27549
803.35	27633
803.492	27880
803.635	27732
803.777	27713
803.919	27960
804.061	28200
804.204	28048
804.346	27778
804.488	27835
804.63	27854
804.773	27854
804.915	28006
805.057	28070
805.199	27759
805.341	28002
805.483	28017
805.626	27994
805.768	27930
805.91	28002
806.052	27998
806.194	28070
806.336	28177
806.478	28067
806.62	28109
806.762	27998
806.904	28173
807.046	28497
807.188	28512
807.33	28440
807.472	28478
807.614	28303
807.756	28394
807.898	28428
808.04	28280
808.182	28344
808.324	28360
808.465	28447
808.607	28550
808.749	28831
808.891	28790
809.033	28801
809.174	28896
809.316	28664
809.458	28778
809.6	28637
809.741	28641
809.883	28885
810.025	28805
810.166	28965
810.308	28965
810.45	29014
810.591	28942
810.733	28793
810.875	28740
811.016	28691
811.158	28516
811.299	28721
811.441	28862
811.582	28847
811.724	28618
811.865	28649
812.007	28683
812.148	28538
812.29	28828
812.431	28824
812.573	28957
812.714	29105
812.855	29235
812.997	29273
813.138	29398
813.279	29250
813.421	29170
813.562	29136
813.703	28987
813.845	28866
813.986	28710
814.127	28329
814.268	28443
814.41	28462
814.551	28200
814.692	28443
814.833	28230
814.974	28265
815.115	28360
815.256	28234
815.397	28405
815.539	28154
815.68	28093
815.821	28112
815.962	28131
816.103	28128
816.244	28101
816.385	28010
816.526	27956
816.666	27701
816.807	27599
816.948	27778
817.089	27694
817.23	27789
817.371	27599
817.512	27671
817.653	27717
817.793	27690
817.934	27618
818.075	27705
818.216	27660
818.356	27637
818.497	27481
818.638	27408
818.778	27450
818.919	27287
819.06	27424
819.2	27481
819.341	27641
819.481	27538
819.622	27812
819.762	27998
819.903	27937
820.043	27778
820.184	27774
820.324	27869
820.465	27934
820.605	27838
820.746	27774
820.886	27530
821.026	27861
821.167	27800
821.307	27755
821.447	27671
821.588	27606
821.728	27568
821.868	27287
822.008	27207
822.149	27165
822.289	27108
822.429	26804
822.569	26933
822.709	26823
822.849	26640
822.99	26712
823.13	26697
823.27	26560
823.41	26568
823.55	26237
823.69	26427
823.83	26457
823.97	26526
824.11	26355
824.25	26290
824.389	26263
824.529	26507
824.669	26313
824.809	26446
824.949	26381
825.089	26313
825.228	26389
825.368	26005
825.508	26221
825.648	26267
825.787	26210
825.927	26290
826.067	26012
826.206	26229
826.346	26309
826.485	26176
826.625	26267
826.765	26450
826.904	26191
827.044	25852
827.183	25898
827.323	25894
827.462	25989
827.601	26027
827.741	25871
827.88	26031
828.02	25719
828.159	25845
828.298	25780
828.437	25909
828.577	25818
828.716	25947
828.855	25811
828.994	25575
829.134	25616
829.273	25578
829.412	25556
829.551	25506
829.69	25681
829.829	25590
829.968	25639
830.107	25563
830.246	25628
830.385	25616
830.524	25514
830.663	25369
830.802	25396
830.941	25209
831.08	25225
831.219	25240
831.357	25297
831.496	25407
831.635	25175
831.774	25080
831.913	25084
832.051	25053
832.19	24962
832.329	24867
832.467	24863
832.606	24821
832.744	24798
832.883	24920
833.022	24776
833.16	25072
833.299	24882
833.437	24977
833.576	24970
833.714	24867
833.852	24920
833.991	24909
834.129	25038
834.267	25065
834.406	24943
834.544	24970
834.682	25023
834.821	24837
834.959	25103
835.097	24783
835.235	25095
835.373	24954
835.511	24924
835.65	24802
835.788	24768
835.926	24665
836.064	24616
836.202	24665
836.34	24821
836.478	24882
836.615	24654
836.753	24875
836.891	24825
837.029	24730
837.167	24642
837.305	24703
837.443	24601
837.58	24544
837.718	24673
837.856	24585
837.993	24555
838.131	24585
838.269	24426
838.406	24429
838.544	24426
838.681	24216
838.819	24057
838.956	24213
839.094	24026
839.231	24289
839.369	24110
839.506	24334
839.643	24452
839.781	24076
839.918	23847
840.055	23980
840.193	24091
840.33	24011
840.467	24072
840.604	23912
840.742	24319
840.879	23775
841.016	23920
841.153	23897
841.29	24083
841.427	23843
841.564	24003
841.701	23885
841.838	23817
841.975	23916
842.112	23847
842.249	23874
842.385	23756
842.522	23920
842.659	23752
842.796	23676
842.933	23733
843.069	23714
843.206	23638
843.343	23676
843.479	23623
843.616	23646
843.752	23471
843.889	23547
844.025	23718
844.162	23604
844.298	23509
844.435	23551
844.571	23467
844.708	23566
844.844	23619
844.98	23653
845.117	23619
845.253	23395
845.389	23174
845.525	23429
845.661	23444
845.798	23292
845.934	23162
846.07	23246
846.206	23220
846.342	23334
846.478	23170
846.614	23056
846.75	22774
846.886	22881
847.022	22900
847.158	23006
847.294	23006
847.429	23006
847.565	22873
847.701	23090
847.837	22744
847.972	22565
848.108	22782
848.244	22733
848.379	22569
848.515	22500
848.65	22557
848.786	22618
848.921	22478
849.057	22687
849.192	22626
849.328	22497
849.463	22630
849.598	22512
849.734	22447
849.869	22474
850.004	22181
850.14	22344
850.275	22238
850.41	22242
850.545	22318
850.68	22341
850.815	22398
850.95	22291
851.085	22462
851.22	22394
851.355	22333
851.49	22272
851.625	22261
851.76	22242
851.895	22284
852.03	22128
852.165	22402
852.299	22249
852.434	22291
852.569	22291
852.703	22234
852.838	22440
852.973	22382
853.107	22428
853.242	22143
853.376	22109
853.511	22074
853.645	22101
853.78	22261
853.914	22261
854.048	22040
854.183	22021
854.317	22040
854.451	22344
854.585	22242
854.72	22040
854.854	22177
854.988	22032
855.122	22143
855.256	21953
855.39	22070
855.524	22162
855.658	22287
855.792	22139
855.926	22177
856.06	22169
856.194	22070
856.327	22055
856.461	22135
856.595	22059
856.729	22074
856.862	22200
856.996	22025
857.13	22101
857.263	22234
857.397	22128
857.53	22177
857.664	22158
857.797	22268
857.931	22200
858.064	22040
858.197	22143
858.331	22154
858.464	21941
858.597	22006
858.731	22086
858.864	21994
858.997	22059
859.13	22192
859.263	22074
859.396	22128
859.529	22048
859.662	22010
859.795	22002
859.928	22101
860.061	22207
860.194	22306
860.327	22131
860.46	22055
860.592	22200
860.725	22265
860.858	22261
860.99	22078
861.123	21842
861.256	21945
861.388	22063
861.521	22679
861.653	22013
861.786	21983
861.918	22040
862.05	21941
862.183	21975
862.315	22017
862.447	22067
862.58	21991
862.712	21743
862.844	21724
862.976	21888
863.108	21850
863.24	22211
863.372	21701
863.504	21789
863.636	21701
863.768	21903
863.9	21762
864.032	21660
864.164	21629
864.296	21880
864.428	21968
864.559	21838
864.691	21892
864.823	21705
864.954	21759
865.086	21755
865.217	21698
865.349	21656
865.48	21679
865.612	21739
865.743	21873
865.875	21618
866.006	21701
866.137	21778
866.269	21637
866.4	21618
866.531	21545
866.662	21633
866.793	21519
866.924	21747
867.055	21762
867.186	21568
867.317	21610
867.448	21564
867.579	21641
867.71	21595
867.841	21576
867.972	21561
868.103	21618
868.233	21610
868.364	21679
868.495	21633
868.625	21835
868.756	21907
868.886	21667
869.017	21823
869.147	21937
869.278	21994
869.408	21827
869.539	21789
869.669	21876
869.799	21899
869.929	22051
870.06	21983
870.19	22128
870.32	22135
870.45	22120
870.58	22295
870.71	22310
870.84	22363
870.97	22204
871.1	22223
871.23	22344
871.36	22371
871.489	22249
871.619	22379
871.749	22436
871.879	22481
872.008	22645
872.138	22500
872.267	22565
872.397	22402
872.526	22337
872.656	22268
872.785	22219
872.915	22375
873.044	22459
873.173	22466
873.303	22402
873.432	22550
873.561	22588
873.69	22504
873.819	22481
873.948	22569
874.077	22497
874.206	22451
874.335	22344
874.464	22641
874.593	22862
874.722	22660
874.851	22729
874.979	22717
875.108	22622
875.237	22637
875.365	22596
875.494	22664
875.623	22752
875.751	22615
875.88	22805
876.008	22736
876.136	22934
876.265	23124
876.393	23105
876.521	23216
876.65	23071
876.778	23018
876.906	23018
877.034	23029
877.162	23117
877.29	22984
877.418	23041
877.546	23006
877.674	23083
877.802	23003
877.93	23025
878.058	22877
878.185	22908
878.313	23041
878.441	23109
878.568	22923
878.696	22843
878.824	23064
878.951	23113
879.079	23185
879.206	23402
879.333	23185
879.461	22938
879.588	23090
879.715	23170
879.842	23330
879.97	23044
880.097	22923
880.224	22774
880.351	22911
880.478	22927
880.605	22835
880.732	22809
880.859	23109
880.986	22839
881.112	22847
881.239	22748
881.366	22489
881.493	22470
881.619	22337
881.746	22550
881.872	22390
881.999	22379
882.125	22337
882.252	22615
882.378	22447
882.505	22459
882.631	22211
882.757	22021
882.883	22215
883.01	22124
883.136	22002
883.262	21911
883.388	21926
883.514	22006
883.64	22177
883.766	21994
883.892	21793
884.018	21998
884.143	22101
884.269	22154
884.395	21804
884.52	21705
884.646	21797
884.772	21637
884.897	21633
885.023	21823
885.148	21800
885.274	21785
885.399	21857
885.524	21736
885.65	21816
885.775	21720
885.9	21751
886.025	21793
886.15	21865
886.275	21679
886.4	21526
886.525	21762
886.65	21625
886.775	21599
886.9	21903
887.025	21983
887.149	21671
887.274	21572
887.399	21587
887.523	21462
887.648	21469
887.773	21321
887.897	21542
888.021	21564
888.146	21515
888.27	21591
888.395	21564
888.519	21370
888.643	21583
888.767	21564
888.891	21374
889.015	21355
889.139	21405
889.263	21313
889.387	21412
889.511	21450
889.635	21382
889.759	21214
889.883	21268
890.006	21226
890.13	21203
890.254	21188
890.377	21173
890.501	21024
890.624	21032
890.748	20979
890.871	20861
890.995	20781
891.118	20746
891.241	20807
891.364	20792
891.488	20982
891.611	20906
891.734	20823
891.857	20914
891.98	20765
892.103	20963
892.226	20933
892.349	20815
892.471	20648
892.594	20693
892.717	20902
892.839	20735
892.962	20762
893.085	20785
893.207	20781
893.33	20674
893.452	20587
893.575	20739
893.697	20667
893.819	20868
893.941	20937
894.064	20819
894.186	20579
894.308	20697
894.43	20750
894.552	20849
894.674	20861
894.796	20674
894.918	20693
895.04	20609
895.161	20773
895.283	20800
895.405	20785
895.526	20613
895.648	20765
895.769	20750
895.891	20792
896.012	20872
896.134	20762
896.255	20765
896.376	20743
896.498	20765
896.619	20735
896.74	20796
896.861	20731
896.982	20918
897.103	21161
897.224	21017
897.345	20944
897.466	20861
897.587	20925
897.708	20933
897.828	20971
897.949	20876
898.07	20792
898.19	20929
898.311	21032
898.431	20880
898.552	20891
898.672	20952
898.792	21043
898.913	20918
899.033	20952
899.153	20712
899.273	20594
899.393	20762
899.513	20648
899.633	20712
899.753	20720
899.873	20659
899.993	20769
900.113	20575
900.232	20621
900.352	20636
900.472	20454
900.591	20457
900.711	20469
900.83	20431
900.95	20564
901.069	20541
901.189	20332
901.308	20077
901.427	19967
901.546	20119
901.665	20115
901.784	20107
901.904	19811
902.023	19811
902.141	19666
902.26	19521
902.379	19788
902.498	19483
902.617	19499
902.735	19620
902.854	19460
902.973	19518
903.091	19285
903.21	19266
903.328	19179
903.446	19129
903.565	18966
903.683	19000
903.801	18920
903.919	18871
904.038	19042
904.156	18776
904.274	18776
904.392	18726
904.51	18772
904.627	18631
904.745	18753
904.863	18859
904.981	18452
905.098	18479
905.216	18521
905.334	18445
905.451	18521
905.569	18433
905.686	18483
905.803	18380
905.921	18216
906.038	18308
906.155	18357
906.272	18060
906.389	18197
906.506	18022
906.623	17931
906.74	17946
906.857	17923
906.974	17893
907.091	18076
907.208	17999
907.324	18019
907.441	17878
907.557	17638
907.674	17760
907.79	17592
907.907	17668
908.023	17619
908.139	17646
908.256	17672
908.372	17570
908.488	17478
908.604	17406
908.72	17341
908.836	17372
908.952	17246
909.068	17318
909.184	17463
909.3	17360
909.415	17349
909.531	17277
909.647	17090
909.762	17048
909.878	17033
909.993	17136
910.108	17105
910.224	17025
910.339	16976
910.454	16923
910.57	16866
910.685	16835
910.8	17086
910.915	17143
911.03	16904
911.145	16713
911.259	16554
911.374	16588
911.489	16622
911.604	16565
911.718	16394
911.833	16478
911.947	16314
912.062	16234
912.176	16360
912.291	16424
912.405	16333
912.519	16615
912.633	16558
912.748	16493
912.862	16341
912.976	16265
913.09	16078
913.204	16143
913.318	16261
913.431	16318
913.545	16379
913.659	16166
913.772	16185
913.886	16048
914	15998
914.113	16074
914.226	16131
914.34	16101
914.453	15781
914.566	15972
914.68	15880
914.793	15774
914.906	15713
915.019	15652
915.132	15591
915.245	15534
915.358	15637
915.47	15625
915.583	15622
915.696	15644
915.809	15667
915.921	15804
916.034	15469
916.146	15488
916.259	15378
916.371	15618
916.483	15462
916.595	15435
916.708	15378
916.82	15386
916.932	15374
917.044	15344
917.156	15332
917.268	15260
917.38	15260
917.491	15249
917.603	15252
917.715	15245
917.826	15260
917.938	15233
918.049	15055
918.161	15192
918.272	15283
918.384	15230
918.495	15123
918.606	15055
918.717	14918
918.828	15062
918.939	15085
919.05	14861
919.161	14967
919.272	14758
919.383	14845
919.494	15005
919.604	15192
919.715	14982
919.826	14864
919.936	14914
920.047	14990
920.157	15020
920.267	15077
920.378	14842
920.488	14781
920.598	15176
920.708	15218
920.818	15135
920.928	14937
921.038	15188
921.148	15188
921.258	14880
921.368	14754
921.477	14670
921.587	14629
921.697	14469
921.806	14640
921.916	14457
922.025	14336
922.134	14214
922.244	14278
922.353	14332
922.462	14153
922.571	14027
922.68	13970
922.789	13928
922.898	13967
923.007	13909
923.116	13932
923.224	13944
923.333	13887
923.442	13830
923.55	13803
923.659	13826
923.767	13879
923.876	13765
923.984	13742
924.092	13677
924.201	13712
924.309	13666
924.417	13753
924.525	13533
924.633	13616
924.741	14511
924.849	13373
924.956	13556
925.064	13365
925.172	13183
925.279	13373
925.387	13373
925.494	13335
925.602	13434
925.709	13293
925.816	13149
925.924	13259
926.031	13373
926.138	13293
926.245	13228
926.352	13190
926.459	13270
926.566	13312
926.673	13156
926.779	13080
926.886	13076
926.993	12924
927.099	12871
927.206	12821
927.312	12848
927.419	12939
927.525	12829
927.631	12970
927.737	12753
927.843	12741
927.95	12601
928.056	12719
928.162	12730
928.267	12711
928.373	13331
928.479	12776
928.585	12540
928.69	12688
928.796	12749
928.901	12589
929.007	12437
929.112	12536
929.218	12445
929.323	12346
929.428	12388
929.533	12509
929.638	12365
929.743	12338
929.848	12403
929.953	12357
930.058	12235
930.163	12095
930.267	12049
930.372	12159
930.477	12022
930.581	12258
930.685	12171
930.79	11878
930.894	12011
930.998	11882
931.103	12117
931.207	11733
931.311	11558
931.415	11638
931.519	11345
931.623	11299
