Data from test_V78500241_2279.txt Node
Date: Fri Mar 25 15:57:35 CST 2022
User: usil
Spectrometer: V785-0024
Trigger mode: 0
Integration Time (sec): 4.000000E-1
Scans to average: 1
Nonlinearity correction enabled: false
Boxcar width: 0
Storing dark spectrum: false
XAxis mode: Wavelengths
Number of Pixels in Spectrum: 1024
>>>>>Begin Spectral Data<<<<<
801.071	28824
801.214	29037
801.356	28649
801.499	28538
801.641	28508
801.783	28421
801.926	28599
802.068	28550
802.211	28474
802.353	28451
802.496	28070
802.638	28204
802.78	28017
802.923	28173
803.065	28211
803.208	28223
803.35	28109
803.492	28291
803.635	28413
803.777	28318
803.919	28356
804.061	28717
804.204	28512
804.346	28341
804.488	28348
804.63	28371
804.773	28432
804.915	28466
805.057	28634
805.199	28428
805.341	28645
805.483	28432
805.626	28527
805.768	28603
805.91	28489
806.052	28653
806.194	28538
806.336	28752
806.478	28470
806.62	28607
806.762	28778
806.904	28904
807.046	29117
807.188	28957
807.33	29022
807.472	29128
807.614	29010
807.756	28991
807.898	28923
808.04	28881
808.182	28793
808.324	28991
808.465	28946
808.607	29162
808.749	29250
808.891	29277
809.033	29421
809.174	29414
809.316	29280
809.458	29200
809.6	29250
809.741	29379
809.883	29471
810.025	29444
810.166	29547
810.308	29657
810.45	29463
810.591	29444
810.733	29448
810.875	29231
811.016	29258
811.158	29231
811.299	29395
811.441	29482
811.582	29356
811.724	29273
811.865	29372
812.007	29277
812.148	29178
812.29	29379
812.431	29615
812.573	29653
812.714	29760
812.855	29958
812.997	29916
813.138	29961
813.279	29965
813.421	29862
813.562	29824
813.703	29687
813.845	29539
813.986	29288
814.127	29121
814.268	29010
814.41	29083
814.551	28946
814.692	28999
814.833	29052
814.974	29155
815.115	28930
815.256	28995
815.397	28961
815.539	28866
815.68	28733
815.821	28748
815.962	28721
816.103	28881
816.244	28797
816.385	28557
816.526	28565
816.666	28436
816.807	28352
816.948	28382
817.089	28478
817.23	28341
817.371	28500
817.512	28265
817.653	28322
817.793	28295
817.934	28417
818.075	28303
818.216	28371
818.356	28291
818.497	28276
818.638	27960
818.778	28169
818.919	28112
819.06	28287
819.2	28337
819.341	28276
819.481	28268
819.622	28497
819.762	28683
819.903	28577
820.043	28565
820.184	28596
820.324	28398
820.465	28504
820.605	28588
820.746	28512
820.886	28223
821.026	28371
821.167	28436
821.307	28485
821.447	28287
821.588	28356
821.728	28185
821.868	27930
822.008	28074
822.149	27770
822.289	27751
822.429	27633
822.569	27549
822.709	27401
822.849	27397
822.99	27329
823.13	27302
823.27	27116
823.41	27252
823.55	27077
823.69	27150
823.83	27199
823.97	27119
824.11	26933
824.25	26853
824.389	26910
824.529	26998
824.669	27032
824.809	27074
824.949	27024
825.089	27188
825.228	26963
825.368	26781
825.508	26876
825.648	26750
825.787	26857
825.927	26857
826.067	26754
826.206	26746
826.346	26868
826.485	26990
826.625	26944
826.765	26895
826.904	26937
827.044	26701
827.183	26682
827.323	26632
827.462	26465
827.601	26518
827.741	26518
827.88	26625
828.02	26526
828.159	26343
828.298	26564
828.437	26507
828.577	26404
828.716	26686
828.855	26431
828.994	26256
829.134	26396
829.273	26309
829.412	26134
829.551	26164
829.69	26278
829.829	26374
829.968	26396
830.107	26126
830.246	26358
830.385	26206
830.524	26130
830.663	26168
830.802	25970
830.941	25814
831.08	25727
831.219	25970
831.357	25951
831.496	26054
831.635	25849
831.774	25860
831.913	25662
832.051	25666
832.19	25677
832.329	25658
832.467	25575
832.606	25525
832.744	25586
832.883	25514
833.022	25449
833.16	25552
833.299	25578
833.437	25582
833.576	25693
833.714	25457
833.852	25578
833.991	25563
834.129	25666
834.267	25712
834.406	25601
834.544	25693
834.682	25613
834.821	25548
834.959	25689
835.097	25434
835.235	25582
835.373	25540
835.511	25533
835.65	25373
835.788	25445
835.926	25400
836.064	25221
836.202	25289
836.34	25339
836.478	25582
836.615	25266
836.753	25499
836.891	25400
837.029	25297
837.167	25339
837.305	25198
837.443	25320
837.58	25259
837.718	25358
837.856	25274
837.993	25152
838.131	25369
838.269	24954
838.406	25228
838.544	25065
838.681	24852
838.819	24760
838.956	24783
839.094	24776
839.231	24540
839.369	24833
839.506	25076
839.643	24840
839.781	24715
839.918	24604
840.055	24669
840.193	24700
840.33	24616
840.467	24582
840.604	24677
840.742	24859
840.879	24486
841.016	24551
841.153	24536
841.29	24669
841.427	24601
841.564	24551
841.701	24642
841.838	24525
841.975	24433
842.112	24521
842.249	24448
842.385	24414
842.522	24593
842.659	24407
842.796	24289
842.933	24399
843.069	24372
843.206	24251
843.343	24475
843.479	24456
843.616	24426
843.752	24182
843.889	24022
844.025	24327
844.162	24155
844.298	24243
844.435	24140
844.571	24144
844.708	24258
844.844	24277
844.98	24262
845.117	24266
845.253	24076
845.389	24034
845.525	23992
845.661	24041
845.798	23733
845.934	23908
846.07	23821
846.206	23687
846.342	23988
846.478	23840
846.614	23657
846.75	23516
846.886	23505
847.022	23604
847.158	23767
847.294	23623
847.429	23745
847.565	23562
847.701	23779
847.837	23410
847.972	23379
848.108	23341
848.244	23368
848.379	23254
848.515	23102
848.65	23124
848.786	23121
848.921	23254
849.057	23311
849.192	23349
849.328	23162
849.463	23170
849.598	23170
849.734	23029
849.869	23010
850.004	22911
850.14	22934
850.275	23018
850.41	22809
850.545	22854
850.68	22927
850.815	22854
850.95	22953
851.085	23136
851.22	23071
851.355	22923
851.49	22911
851.625	22866
851.76	22850
851.895	22816
852.03	22885
852.165	22953
852.299	22987
852.434	23006
852.569	22957
852.703	22919
852.838	23044
852.973	23003
853.107	23083
853.242	22862
853.376	22771
853.511	22668
853.645	22694
853.78	22847
853.914	22744
854.048	22721
854.183	22706
854.317	22733
854.451	22942
854.585	22896
854.72	22854
854.854	22835
854.988	22664
855.122	22702
855.256	22740
855.39	22710
855.524	22786
855.658	22831
855.792	22691
855.926	22744
856.06	22889
856.194	22862
856.327	22660
856.461	22694
856.595	22626
856.729	22645
856.862	22755
856.996	22790
857.13	22767
857.263	22858
857.397	22778
857.53	22736
857.664	22771
857.797	22820
857.931	22889
858.064	22778
858.197	22911
858.331	22725
858.464	22702
858.597	22538
858.731	22687
858.864	22809
858.997	22649
859.13	22736
859.263	22854
859.396	22877
859.529	22752
859.662	22736
859.795	22733
859.928	22801
860.061	22850
860.194	22934
860.327	22828
860.46	22763
860.592	22923
860.725	22885
860.858	22942
860.99	22744
861.123	22672
861.256	22641
861.388	22786
861.521	23452
861.653	22641
861.786	22531
861.918	22554
862.05	22634
862.183	22592
862.315	22744
862.447	22706
862.58	22645
862.712	22440
862.844	22447
862.976	22592
863.108	22424
863.24	22835
863.372	22363
863.504	22363
863.636	22333
863.768	22470
863.9	22398
864.032	22470
864.164	22398
864.296	22443
864.428	22557
864.559	22542
864.691	22531
864.823	22481
864.954	22348
865.086	22436
865.217	22348
865.349	22139
865.48	22238
865.612	22226
865.743	22516
865.875	22299
866.006	22341
866.137	22310
866.269	22303
866.4	22394
866.531	22268
866.662	22192
866.793	22196
866.924	22291
867.055	22246
867.186	22230
867.317	22196
867.448	22150
867.579	22249
867.71	22097
867.841	22181
867.972	22192
868.103	22223
868.233	22177
868.364	22344
868.495	22291
868.625	22436
868.756	22538
868.886	22451
869.017	22485
869.147	22504
869.278	22512
869.408	22405
869.539	22481
869.669	22546
869.799	22424
869.929	22573
870.06	22607
870.19	22778
870.32	22717
870.45	22949
870.58	22896
870.71	23010
870.84	23083
870.97	22919
871.1	22896
871.23	23048
871.36	23147
871.489	23003
871.619	23064
871.749	23067
871.879	23143
872.008	23220
872.138	23105
872.267	23159
872.397	22809
872.526	22957
872.656	22862
872.785	22904
872.915	23128
873.044	23109
873.173	23048
873.303	23048
873.432	23006
873.561	23258
873.69	23079
873.819	23136
873.948	23121
874.077	23025
874.206	23071
874.335	23155
874.464	23197
874.593	23482
874.722	23296
874.851	23311
874.979	23334
875.108	23349
875.237	23315
875.365	23162
875.494	23486
875.623	23360
875.751	23307
875.88	23216
876.008	23471
876.136	23383
876.265	23756
876.393	23958
876.521	23767
876.65	23733
876.778	23745
876.906	23756
877.034	23684
877.162	23630
877.29	23623
877.418	23684
877.546	23600
877.674	23611
877.802	23646
877.93	23497
878.058	23592
878.185	23467
878.313	23516
878.441	23695
878.568	23474
878.696	23592
878.824	23680
878.951	23657
879.079	23878
879.206	23942
879.333	23920
879.461	23710
879.588	23775
879.715	23836
879.842	23897
879.97	23638
880.097	23516
880.224	23452
880.351	23551
880.478	23478
880.605	23372
880.732	23528
880.859	23634
880.986	23482
881.112	23551
881.239	23318
881.366	23277
881.493	23155
881.619	23003
881.746	23166
881.872	23033
881.999	23010
882.125	22953
882.252	23048
882.378	22987
882.505	23105
882.631	22900
882.757	22877
882.883	22748
883.01	22694
883.136	22557
883.262	22531
883.388	22360
883.514	22694
883.64	22752
883.766	22634
883.892	22519
884.018	22478
884.143	22618
884.269	22672
884.395	22455
884.52	22360
884.646	22382
884.772	22246
884.897	22314
885.023	22424
885.148	22443
885.274	22462
885.399	22436
885.524	22360
885.65	22459
885.775	22284
885.9	22325
886.025	22375
886.15	22436
886.275	22230
886.4	22268
886.525	22169
886.65	22337
886.775	22246
886.9	22375
887.025	22531
887.149	22211
887.274	22067
887.399	22143
887.523	22162
887.648	22055
887.773	21979
887.897	22120
888.021	22006
888.146	22082
888.27	22116
888.395	22040
888.519	22105
888.643	22063
888.767	22074
888.891	21964
889.015	21857
889.139	21926
889.263	21873
889.387	22006
889.511	22021
889.635	21991
889.759	21854
889.883	21857
890.006	21770
890.13	21915
890.254	21778
890.377	21789
890.501	21652
890.624	21580
890.748	21595
890.871	21492
890.995	21363
891.118	21424
891.241	21393
891.364	21466
891.488	21485
891.611	21504
891.734	21325
891.857	21526
891.98	21511
892.103	21447
892.226	21462
892.349	21340
892.471	21287
892.594	21336
892.717	21298
892.839	21340
892.962	21272
893.085	21382
893.207	21317
893.33	21207
893.452	21245
893.575	21336
893.697	21252
893.819	21386
893.941	21420
894.064	21420
894.186	21173
894.308	21275
894.43	21310
894.552	21416
894.674	21431
894.796	21211
894.918	21275
895.04	21275
895.161	21306
895.283	21401
895.405	21142
895.526	21142
895.648	21241
895.769	21154
895.891	21306
896.012	21458
896.134	21363
896.255	21256
896.376	21161
896.498	21317
896.619	21245
896.74	21173
896.861	21279
896.982	21610
897.103	21629
897.224	21481
897.345	21420
897.466	21564
897.587	21408
897.708	21660
897.828	21511
897.949	21469
898.07	21245
898.19	21363
898.311	21534
898.431	21450
898.552	21424
898.672	21629
898.792	21481
898.913	21492
899.033	21340
899.153	21275
899.273	21066
899.393	21131
899.513	21131
899.633	21165
899.753	21211
899.873	21013
899.993	21249
900.113	21123
900.232	21252
900.352	21264
900.472	20986
900.591	20914
900.711	21051
900.83	20971
900.95	21005
901.069	21093
901.189	20750
901.308	20560
901.427	20522
901.546	20606
901.665	20511
901.784	20503
901.904	20423
902.023	20343
902.141	20153
902.26	19997
902.379	20065
902.498	20039
902.617	19963
902.735	20058
902.854	20027
902.973	19974
903.091	19784
903.21	19738
903.328	19719
903.446	19544
903.565	19571
903.683	19495
903.801	19377
903.919	19544
904.038	19388
904.156	19255
904.274	19369
904.392	19255
904.51	19232
904.627	19217
904.745	19350
904.863	19278
904.981	19129
905.098	18852
905.216	18939
905.334	18943
905.451	18867
905.569	18871
905.686	18871
905.803	18829
905.921	18738
906.038	18768
906.155	18646
906.272	18665
906.389	18620
906.506	18399
906.623	18528
906.74	18365
906.857	18319
906.974	18323
907.091	18597
907.208	18688
907.324	18498
907.441	18334
907.557	18174
907.674	18285
907.79	18083
907.907	18041
908.023	18194
908.139	18197
908.256	18114
908.372	18038
908.488	17984
908.604	17961
908.72	17790
908.836	17893
908.952	17855
909.068	17935
909.184	18030
909.3	17859
909.415	17832
909.531	17745
909.647	17707
909.762	17520
909.878	17547
909.993	17532
910.108	17539
910.224	17414
910.339	17509
910.454	17433
910.57	17398
910.685	17364
910.8	17604
910.915	17516
911.03	17345
911.145	17246
911.259	17223
911.374	17147
911.489	17128
911.604	17079
911.718	16900
911.833	16911
911.947	16805
912.062	16683
912.176	16858
912.291	16946
912.405	16885
912.519	16999
912.633	17166
912.748	16938
912.862	16881
912.976	16679
913.09	16641
913.204	16729
913.318	16736
913.431	16740
913.545	16793
913.659	16687
913.772	16580
913.886	16478
914	16474
914.113	16538
914.226	16584
914.34	16603
914.453	16432
914.566	16485
914.68	16329
914.793	16268
914.906	16120
915.019	16025
915.132	16021
915.245	16063
915.358	16150
915.47	16082
915.583	16048
915.696	16093
915.809	16181
915.921	16166
916.034	15968
916.146	15823
916.259	15968
916.371	16036
916.483	15964
916.595	15892
916.708	15934
916.82	15922
916.932	15793
917.044	15759
917.156	15770
917.268	15648
917.38	15641
917.491	15694
917.603	15732
917.715	15831
917.826	15808
917.938	15568
918.049	15545
918.161	15580
918.272	15709
918.384	15652
918.495	15637
918.606	15420
918.717	15439
918.828	15466
918.939	15488
919.05	15424
919.161	15431
919.272	15252
919.383	15317
919.494	15317
919.604	15618
919.715	15344
919.826	15226
919.936	15355
920.047	15428
920.157	15397
920.267	15511
920.378	15435
920.488	15367
920.598	15496
920.708	15614
920.818	15462
920.928	15428
921.038	15614
921.148	15622
921.258	15310
921.368	15176
921.477	15157
921.587	15116
921.697	14925
921.806	15157
921.916	14921
922.025	14758
922.134	14804
922.244	14636
922.353	14731
922.462	14625
922.571	14526
922.68	14358
922.789	14389
922.898	14389
923.007	14320
923.116	14301
923.224	14324
923.333	14267
923.442	14153
923.55	14092
923.659	14176
923.767	14199
923.876	14252
923.984	14210
924.092	14088
924.201	14073
924.309	14107
924.417	14012
924.525	14008
924.633	13906
924.741	14906
924.849	13769
924.956	13967
925.064	13765
925.172	13708
925.279	13670
925.387	13803
925.494	13685
925.602	13803
925.709	13700
925.816	13499
925.924	13628
926.031	13708
926.138	13544
926.245	13696
926.352	13571
926.459	13647
926.566	13742
926.673	13548
926.779	13533
926.886	13411
926.993	13373
927.099	13244
927.206	13164
927.312	13133
927.419	13301
927.525	13171
927.631	13289
927.737	13118
927.843	13095
927.95	12951
928.056	13057
928.162	13110
928.267	13126
928.373	13712
928.479	13110
928.585	12894
928.69	13019
928.796	13031
928.901	12947
929.007	12768
929.112	12802
929.218	12871
929.323	12787
929.428	12650
929.533	12916
929.638	12726
929.743	12684
929.848	12734
929.953	12719
930.058	12616
930.163	12483
930.267	12410
930.372	12532
930.477	12452
930.581	12696
930.685	12479
930.79	12330
930.894	12361
930.998	12285
931.103	12346
931.207	12053
931.311	12019
931.415	11870
931.519	11695
931.623	11668
