Data from test_V78500241_2325.txt Node
Date: Fri Mar 25 15:57:54 CST 2022
User: usil
Spectrometer: V785-0024
Trigger mode: 0
Integration Time (sec): 4.000000E-1
Scans to average: 1
Nonlinearity correction enabled: false
Boxcar width: 0
Storing dark spectrum: false
XAxis mode: Wavelengths
Number of Pixels in Spectrum: 1024
>>>>>Begin Spectral Data<<<<<
801.071	28957
801.214	28976
801.356	28668
801.499	28672
801.641	28637
801.783	28527
801.926	28580
802.068	28710
802.211	28390
802.353	28432
802.496	28211
802.638	28257
802.78	28291
802.923	28116
803.065	28063
803.208	28086
803.35	28329
803.492	28500
803.635	28500
803.777	28386
803.919	28424
804.061	28694
804.204	28573
804.346	28356
804.488	28375
804.63	28379
804.773	28455
804.915	28512
805.057	28706
805.199	28485
805.341	28557
805.483	28527
805.626	28694
805.768	28519
805.91	28691
806.052	28786
806.194	28557
806.336	28782
806.478	28535
806.62	28580
806.762	28885
806.904	28778
807.046	29208
807.188	29121
807.33	28999
807.472	29235
807.614	29136
807.756	28995
807.898	29037
808.04	28972
808.182	28938
808.324	28968
808.465	29052
808.607	29136
808.749	29296
808.891	29425
809.033	29368
809.174	29406
809.316	29436
809.458	29360
809.6	29315
809.741	29592
809.883	29471
810.025	29661
810.166	29505
810.308	29585
810.45	29524
810.591	29592
810.733	29501
810.875	29448
811.016	29406
811.158	29223
811.299	29334
811.441	29467
811.582	29478
811.724	29337
811.865	29345
812.007	29364
812.148	29410
812.29	29364
812.431	29661
812.573	29790
812.714	29885
812.855	30034
812.997	30007
813.138	30171
813.279	30076
813.421	30007
813.562	29893
813.703	29745
813.845	29562
813.986	29474
814.127	29090
814.268	29086
814.41	29109
814.551	29098
814.692	29197
814.833	28991
814.974	29018
815.115	29189
815.256	28999
815.397	28858
815.539	28828
815.68	28892
815.821	28824
815.962	28850
816.103	29079
816.244	28790
816.385	28607
816.526	28611
816.666	28432
816.807	28451
816.948	28462
817.089	28508
817.23	28314
817.371	28481
817.512	28242
817.653	28382
817.793	28386
817.934	28500
818.075	28333
818.216	28599
818.356	28341
818.497	28306
818.638	28196
818.778	28303
818.919	28196
819.06	28280
819.2	28246
819.341	28322
819.481	28352
819.622	28542
819.762	28725
819.903	28774
820.043	28679
820.184	28569
820.324	28554
820.465	28573
820.605	28512
820.746	28516
820.886	28398
821.026	28538
821.167	28405
821.307	28546
821.447	28348
821.588	28523
821.728	28363
821.868	28044
822.008	27953
822.149	27884
822.289	27880
822.429	27564
822.569	27587
822.709	27629
822.849	27488
822.99	27313
823.13	27439
823.27	27405
823.41	27192
823.55	27081
823.69	27252
823.83	27313
823.97	27252
824.11	27150
824.25	26940
824.389	27062
824.529	27173
824.669	27074
824.809	27230
824.949	27096
825.089	27245
825.228	27119
825.368	26842
825.508	26891
825.648	26880
825.787	27024
825.927	26948
826.067	26861
826.206	26838
826.346	26899
826.485	26990
826.625	26956
826.765	27062
826.904	26998
827.044	26651
827.183	26705
827.323	26697
827.462	26724
827.601	26526
827.741	26697
827.88	26720
828.02	26374
828.159	26507
828.298	26560
828.437	26640
828.577	26533
828.716	26674
828.855	26533
828.994	26450
829.134	26324
829.273	26317
829.412	26263
829.551	26252
829.69	26431
829.829	26240
829.968	26507
830.107	26408
830.246	26275
830.385	26240
830.524	26218
830.663	26039
830.802	25947
830.941	25928
831.08	25906
831.219	26027
831.357	25989
831.496	26256
831.635	26107
831.774	25788
831.913	25708
832.051	25750
832.19	25734
832.329	25852
832.467	25556
832.606	25533
832.744	25483
832.883	25666
833.022	25529
833.16	25643
833.299	25677
833.437	25643
833.576	25723
833.714	25643
833.852	25704
833.991	25609
834.129	25837
834.267	25784
834.406	25537
834.544	25772
834.682	25635
834.821	25567
834.959	25894
835.097	25586
835.235	25685
835.373	25723
835.511	25655
835.65	25483
835.788	25567
835.926	25324
836.064	25213
836.202	25282
836.34	25552
836.478	25594
836.615	25373
836.753	25487
836.891	25445
837.029	25605
837.167	25365
837.305	25411
837.443	25377
837.58	25301
837.718	25297
837.856	25289
837.993	25228
838.131	25377
838.269	25259
838.406	25126
838.544	25209
838.681	24920
838.819	24992
838.956	24875
839.094	24840
839.231	24802
839.369	25061
839.506	25114
839.643	25061
839.781	24745
839.918	24757
840.055	24753
840.193	24726
840.33	24601
840.467	24738
840.604	24726
840.742	25046
840.879	24612
841.016	24623
841.153	24475
841.29	24757
841.427	24578
841.564	24703
841.701	24715
841.838	24757
841.975	24574
842.112	24540
842.249	24642
842.385	24426
842.522	24616
842.659	24505
842.796	24456
842.933	24502
843.069	24407
843.206	24502
843.343	24460
843.479	24433
843.616	24407
843.752	24205
843.889	24429
844.025	24262
844.162	24152
844.298	24304
844.435	24209
844.571	24239
844.708	24163
844.844	24357
844.98	24403
845.117	24289
845.253	24209
845.389	24022
845.525	23984
845.661	24007
845.798	23942
845.934	24022
846.07	23904
846.206	23859
846.342	24030
846.478	23836
846.614	23783
846.75	23573
846.886	23585
847.022	23691
847.158	23714
847.294	23695
847.429	23691
847.565	23638
847.701	23874
847.837	23440
847.972	23368
848.108	23391
848.244	23433
848.379	23299
848.515	23330
848.65	23311
848.786	23178
848.921	23292
849.057	23452
849.192	23425
849.328	23136
849.463	23273
849.598	23174
849.734	23162
849.869	23136
850.004	23067
850.14	23071
850.275	23041
850.41	22949
850.545	22919
850.68	22889
850.815	23048
850.95	22984
851.085	23246
851.22	23086
851.355	22946
851.49	23014
851.625	23010
851.76	22984
851.895	22930
852.03	22946
852.165	23060
852.299	22976
852.434	23075
852.569	23025
852.703	22995
852.838	22972
852.973	23006
853.107	23067
853.242	22881
853.376	22858
853.511	22812
853.645	22694
853.78	22915
853.914	22691
854.048	22702
854.183	22793
854.317	22839
854.451	22984
854.585	22790
854.72	22790
854.854	22911
854.988	22717
855.122	22831
855.256	22691
855.39	22847
855.524	22847
855.658	22866
855.792	22793
855.926	22927
856.06	22839
856.194	22984
856.327	22919
856.461	22721
856.595	22653
856.729	22687
856.862	22923
856.996	22824
857.13	22889
857.263	22892
857.397	22961
857.53	22740
857.664	22892
857.797	23010
857.931	22972
858.064	22839
858.197	22953
858.331	22809
858.464	22672
858.597	22611
858.731	22824
858.864	22736
858.997	22767
859.13	22801
859.263	22869
859.396	22923
859.529	22801
859.662	22793
859.795	22805
859.928	22736
860.061	22949
860.194	23071
860.327	22866
860.46	22919
860.592	22908
860.725	22980
860.858	22828
860.99	22721
861.123	22660
861.256	22771
861.388	22793
861.521	23459
861.653	22672
861.786	22569
861.918	22748
862.05	22729
862.183	22607
862.315	22710
862.447	22801
862.58	22767
862.712	22599
862.844	22417
862.976	22584
863.108	22611
863.24	23132
863.372	22519
863.504	22557
863.636	22481
863.768	22516
863.9	22508
864.032	22478
864.164	22394
864.296	22607
864.428	22565
864.559	22599
864.691	22569
864.823	22546
864.954	22478
865.086	22455
865.217	22508
865.349	22421
865.48	22402
865.612	22280
865.743	22451
865.875	22417
866.006	22318
866.137	22504
866.269	22371
866.4	22280
866.531	22344
866.662	22265
866.793	22371
866.924	22284
867.055	22337
867.186	22329
867.317	22363
867.448	22150
867.579	22287
867.71	22303
867.841	22253
867.972	22390
868.103	22268
868.233	22352
868.364	22329
868.495	22428
868.625	22440
868.756	22767
868.886	22527
869.017	22622
869.147	22615
869.278	22615
869.408	22653
869.539	22554
869.669	22584
869.799	22630
869.929	22694
870.06	22664
870.19	22839
870.32	22911
870.45	22911
870.58	23067
870.71	22980
870.84	23033
870.97	22919
871.1	22885
871.23	23010
871.36	23197
871.489	22984
871.619	23132
871.749	23064
871.879	23052
872.008	23102
872.138	23140
872.267	23010
872.397	23006
872.526	22961
872.656	22946
872.785	22995
872.915	23064
873.044	23185
873.173	23162
873.303	23326
873.432	23341
873.561	23170
873.69	23136
873.819	23178
873.948	23280
874.077	23189
874.206	23143
874.335	23254
874.464	23280
874.593	23463
874.722	23421
874.851	23421
874.979	23387
875.108	23577
875.237	23334
875.365	23265
875.494	23318
875.623	23482
875.751	23330
875.88	23433
876.008	23467
876.136	23554
876.265	23691
876.393	23809
876.521	23870
876.65	23843
876.778	23691
876.906	23649
877.034	23737
877.162	23627
877.29	23714
877.418	23733
877.546	23741
877.674	23699
877.802	23649
877.93	23665
878.058	23592
878.185	23551
878.313	23592
878.441	23737
878.568	23444
878.696	23691
878.824	23760
878.951	23745
879.079	23821
879.206	23965
879.333	23863
879.461	23798
879.588	23813
879.715	23939
879.842	24060
879.97	23653
880.097	23566
880.224	23596
880.351	23554
880.478	23592
880.605	23512
880.732	23592
880.859	23779
880.986	23589
881.112	23676
881.239	23383
881.366	23330
881.493	23166
881.619	23102
881.746	23128
881.872	23124
881.999	23155
882.125	22987
882.252	23083
882.378	23174
882.505	23128
882.631	22942
882.757	22782
882.883	22949
883.01	22660
883.136	22790
883.262	22622
883.388	22569
883.514	22793
883.64	22702
883.766	22637
883.892	22554
884.018	22432
884.143	22660
884.269	22778
884.395	22470
884.52	22322
884.646	22352
884.772	22367
884.897	22363
885.023	22421
885.148	22459
885.274	22580
885.399	22470
885.524	22322
885.65	22542
885.775	22337
885.9	22352
886.025	22363
886.15	22588
886.275	22276
886.4	22295
886.525	22306
886.65	22360
886.775	22337
886.9	22504
887.025	22527
887.149	22375
887.274	22204
887.399	22177
887.523	22238
887.648	21987
887.773	22010
887.897	22169
888.021	22242
888.146	22067
888.27	22272
888.395	22226
888.519	22246
888.643	22268
888.767	22097
888.891	22040
889.015	22025
889.139	21987
889.263	21842
889.387	22002
889.511	22101
889.635	22025
889.759	21956
889.883	21865
890.006	21987
890.13	21941
890.254	21876
890.377	21857
890.501	21644
890.624	21747
890.748	21732
890.871	21557
890.995	21561
891.118	21408
891.241	21583
891.364	21530
891.488	21481
891.611	21606
891.734	21580
891.857	21534
891.98	21454
892.103	21492
892.226	21507
892.349	21435
892.471	21192
892.594	21447
892.717	21359
892.839	21264
892.962	21450
893.085	21332
893.207	21298
893.33	21233
893.452	21332
893.575	21393
893.697	21351
893.819	21526
893.941	21553
894.064	21481
894.186	21340
894.308	21245
894.43	21439
894.552	21500
894.674	21477
894.796	21252
894.918	21260
895.04	21500
895.161	21561
895.283	21450
895.405	21313
895.526	21313
895.648	21374
895.769	21405
895.891	21458
896.012	21424
896.134	21363
896.255	21329
896.376	21329
896.498	21397
896.619	21386
896.74	21302
896.861	21389
896.982	21637
897.103	21663
897.224	21625
897.345	21564
897.466	21492
897.587	21519
897.708	21595
897.828	21564
897.949	21424
898.07	21264
898.19	21435
898.311	21507
898.431	21492
898.552	21504
898.672	21679
898.792	21591
898.913	21572
899.033	21526
899.153	21321
899.273	21222
899.393	21279
899.513	21370
899.633	21355
899.753	21104
899.873	21085
899.993	21203
900.113	21283
900.232	21211
900.352	21043
900.472	21135
900.591	20986
900.711	20963
900.83	21051
900.95	21123
901.069	21138
901.189	20845
901.308	20716
901.427	20590
901.546	20625
901.665	20613
901.784	20492
901.904	20385
902.023	20320
902.141	20149
902.26	20107
902.379	20218
902.498	20122
902.617	19974
902.735	20031
902.854	20031
902.973	19967
903.091	19727
903.21	19887
903.328	19738
903.446	19757
903.565	19476
903.683	19559
903.801	19358
903.919	19533
904.038	19472
904.156	19289
904.274	19282
904.392	19327
904.51	19232
904.627	19293
904.745	19457
904.863	19346
904.981	19027
905.098	19031
905.216	18966
905.334	19004
905.451	18989
905.569	19012
905.686	19019
905.803	18939
905.921	18825
906.038	18825
906.155	18787
906.272	18654
906.389	18692
906.506	18494
906.623	18502
906.74	18475
906.857	18296
906.974	18509
907.091	18483
907.208	18623
907.324	18536
907.441	18422
907.557	18258
907.674	18136
907.79	18007
907.907	18087
908.023	18190
908.139	18224
908.256	18102
908.372	18076
908.488	18133
908.604	17885
908.72	17828
908.836	17920
908.952	17805
909.068	17855
909.184	17897
909.3	17927
909.415	18015
909.531	17821
909.647	17608
909.762	17558
909.878	17573
909.993	17585
910.108	17630
910.224	17478
910.339	17497
910.454	17493
910.57	17505
910.685	17235
910.8	17642
910.915	17486
911.03	17455
911.145	17140
911.259	17075
911.374	17136
911.489	17098
911.604	16957
911.718	16919
911.833	16866
911.947	16904
912.062	16869
912.176	16869
912.291	16873
912.405	16896
912.519	17060
912.633	17128
912.748	16961
912.862	16923
912.976	16672
913.09	16512
913.204	16660
913.318	16812
913.431	16778
913.545	16767
913.659	16824
913.772	16630
913.886	16459
914	16489
914.113	16596
914.226	16573
914.34	16584
914.453	16367
914.566	16588
914.68	16371
914.793	16318
914.906	16261
915.019	16124
915.132	15964
915.245	16017
915.358	16067
915.47	16044
915.583	16093
915.696	16090
915.809	16204
915.921	16158
916.034	15930
916.146	15953
916.259	15979
916.371	16010
916.483	15934
916.595	15922
916.708	15888
916.82	15838
916.932	15869
917.044	15876
917.156	15724
917.268	15724
917.38	15705
917.491	15709
917.603	15732
917.715	15850
917.826	15766
917.938	15625
918.049	15584
918.161	15557
918.272	15736
918.384	15739
918.495	15523
918.606	15519
918.717	15382
918.828	15462
918.939	15378
919.05	15306
919.161	15488
919.272	15283
919.383	15249
919.494	15401
919.604	15610
919.715	15325
919.826	15298
919.936	15317
920.047	15485
920.157	15378
920.267	15576
920.378	15374
920.488	15386
920.598	15587
920.708	15618
920.818	15488
920.928	15435
921.038	15595
921.148	15530
921.258	15256
921.368	15260
921.477	15074
921.587	15039
921.697	14906
921.806	15047
921.916	14906
922.025	14792
922.134	14731
922.244	14689
922.353	14853
922.462	14583
922.571	14549
922.68	14366
922.789	14355
922.898	14419
923.007	14301
923.116	14385
923.224	14282
923.333	14256
923.442	14210
923.55	14107
923.659	14168
923.767	14180
923.876	14107
923.984	14225
924.092	13978
924.201	14153
924.309	14062
924.417	14050
924.525	14020
924.633	13989
924.741	14990
924.849	13807
924.956	13909
925.064	13795
925.172	13693
925.279	13738
925.387	13742
925.494	13636
925.602	13822
925.709	13734
925.816	13548
925.924	13670
926.031	13696
926.138	13677
926.245	13731
926.352	13708
926.459	13651
926.566	13658
926.673	13575
926.779	13563
926.886	13464
926.993	13263
927.099	13160
927.206	13251
927.312	13244
927.419	13293
927.525	13251
927.631	13301
927.737	13084
927.843	13133
927.95	13042
928.056	13031
928.162	13084
928.267	13103
928.373	13765
928.479	13168
928.585	12973
928.69	13061
928.796	12958
928.901	12897
929.007	12859
929.112	12996
929.218	12844
929.323	12810
929.428	12741
929.533	12954
929.638	12677
929.743	12707
929.848	12696
929.953	12593
930.058	12547
930.163	12483
930.267	12563
930.372	12555
930.477	12388
930.581	12570
930.685	12456
930.79	12361
930.894	12315
930.998	12254
931.103	12369
931.207	12076
931.311	12015
931.415	11901
931.519	11748
931.623	11737
