Data from test_V78500241_2674.txt Node
Date: Fri Mar 25 16:00:19 CST 2022
User: usil
Spectrometer: V785-0024
Trigger mode: 0
Integration Time (sec): 4.000000E-1
Scans to average: 1
Nonlinearity correction enabled: false
Boxcar width: 0
Storing dark spectrum: false
XAxis mode: Wavelengths
Number of Pixels in Spectrum: 1024
>>>>>Begin Spectral Data<<<<<
801.071	28805
801.214	28691
801.356	28557
801.499	28497
801.641	28379
801.783	28306
801.926	28424
802.068	28424
802.211	28112
802.353	28265
802.496	28109
802.638	28078
802.78	27911
802.923	27949
803.065	27789
803.208	28025
803.35	28135
803.492	28166
803.635	28253
803.777	28150
803.919	28386
804.061	28679
804.204	28363
804.346	28295
804.488	28291
804.63	28333
804.773	28261
804.915	28188
805.057	28493
805.199	28261
805.341	28382
805.483	28424
805.626	28561
805.768	28363
805.91	28394
806.052	28474
806.194	28363
806.336	28569
806.478	28478
806.62	28493
806.762	28550
806.904	28850
807.046	28949
807.188	28866
807.33	28869
807.472	29075
807.614	28824
807.756	28847
807.898	28675
808.04	28698
808.182	28736
808.324	28877
808.465	28797
808.607	28953
808.749	29178
808.891	29223
809.033	29284
809.174	29368
809.316	29029
809.458	29060
809.6	29124
809.741	29109
809.883	29296
810.025	29486
810.166	29505
810.308	29722
810.45	29417
810.591	29296
810.733	29136
810.875	29334
811.016	29098
811.158	29048
811.299	29170
811.441	29558
811.582	29277
811.724	29155
811.865	29128
812.007	29231
812.148	29155
812.29	29178
812.431	29311
812.573	29512
812.714	29585
812.855	29619
812.997	29859
813.138	29958
813.279	29775
813.421	29710
813.562	29543
813.703	29528
813.845	29433
813.986	29117
814.127	29075
814.268	28869
814.41	28908
814.551	28919
814.692	28885
814.833	28801
814.974	28873
815.115	28946
815.256	28854
815.397	28809
815.539	28793
815.68	28752
815.821	28599
815.962	28767
816.103	28580
816.244	28512
816.385	28440
816.526	28497
816.666	28200
816.807	28207
816.948	28215
817.089	28360
817.23	28196
817.371	28238
817.512	28284
817.653	28242
817.793	28143
817.934	28204
818.075	28181
818.216	28249
818.356	28219
818.497	27998
818.638	27812
818.778	27930
818.919	27926
819.06	28067
819.2	28162
819.341	28150
819.481	28207
819.622	28474
819.762	28538
819.903	28489
820.043	28462
820.184	28223
820.324	28287
820.465	28356
820.605	28238
820.746	28363
820.886	28131
821.026	28291
821.167	28249
821.307	28337
821.447	28200
821.588	28230
821.728	28105
821.868	27880
822.008	27774
822.149	27766
822.289	27629
822.429	27367
822.569	27405
822.709	27359
822.849	27211
822.99	27222
823.13	27108
823.27	27249
823.41	27184
823.55	26960
823.69	27100
823.83	27135
823.97	26944
824.11	26902
824.25	26834
824.389	26777
824.529	26990
824.669	26792
824.809	26914
824.949	27039
825.089	26956
825.228	26868
825.368	26712
825.508	26689
825.648	26739
825.787	26815
825.927	26804
826.067	26739
826.206	26678
826.346	26834
826.485	26830
826.625	26796
826.765	26906
826.904	26739
827.044	26655
827.183	26488
827.323	26351
827.462	26682
827.601	26632
827.741	26476
827.88	26602
828.02	26518
828.159	26507
828.298	26526
828.437	26480
828.577	26400
828.716	26545
828.855	26469
828.994	25989
829.134	26107
829.273	26180
829.412	26092
829.551	26111
829.69	26221
829.829	26237
829.968	26267
830.107	26206
830.246	26180
830.385	26168
830.524	26016
830.663	25993
830.802	25879
830.941	25826
831.08	25731
831.219	25795
831.357	25765
831.496	25913
831.635	25822
831.774	25677
831.913	25689
832.051	25472
832.19	25510
832.329	25594
832.467	25335
832.606	25400
832.744	25297
832.883	25491
833.022	25381
833.16	25384
833.299	25491
833.437	25472
833.576	25472
833.714	25613
833.852	25556
833.991	25647
834.129	25613
834.267	25605
834.406	25529
834.544	25544
834.682	25613
834.821	25677
834.959	25670
835.097	25381
835.235	25457
835.373	25419
835.511	25479
835.65	25244
835.788	25407
835.926	25297
836.064	25217
836.202	25183
836.34	25407
836.478	25403
836.615	25251
836.753	25236
836.891	25483
837.029	25297
837.167	25289
837.305	25247
837.443	25213
837.58	25027
837.718	25175
837.856	25133
837.993	25027
838.131	25251
838.269	25084
838.406	25168
838.544	25023
838.681	24863
838.819	24654
838.956	24536
839.094	24555
839.231	24707
839.369	24722
839.506	24951
839.643	24802
839.781	24540
839.918	24566
840.055	24696
840.193	24525
840.33	24540
840.467	24593
840.604	24585
840.742	24635
840.879	24239
841.016	24429
841.153	24486
841.29	24589
841.427	24467
841.564	24578
841.701	24418
841.838	24414
841.975	24502
842.112	24304
842.249	24300
842.385	24399
842.522	24566
842.659	24460
842.796	24251
842.933	24308
843.069	24182
843.206	24155
843.343	24254
843.479	24262
843.616	24243
843.752	24076
843.889	24167
844.025	24228
844.162	24117
844.298	24266
844.435	24045
844.571	23920
844.708	24076
844.844	24220
844.98	24220
845.117	24178
845.253	24114
845.389	23992
845.525	23939
845.661	24038
845.798	23824
845.934	23897
846.07	23760
846.206	23794
846.342	23737
846.478	23703
846.614	23623
846.75	23478
846.886	23524
847.022	23554
847.158	23611
847.294	23425
847.429	23604
847.565	23444
847.701	23707
847.837	23322
847.972	23227
848.108	23258
848.244	23292
848.379	23147
848.515	23105
848.65	23212
848.786	23109
848.921	23006
849.057	23174
849.192	23128
849.328	23235
849.463	23117
849.598	22938
849.734	22953
849.869	22995
850.004	22843
850.14	22812
850.275	22755
850.41	22774
850.545	22866
850.68	22713
850.815	22820
850.95	22790
851.085	23056
851.22	22965
851.355	22850
851.49	22763
851.625	22790
851.76	22809
851.895	22679
852.03	22786
852.165	22805
852.299	22987
852.434	23033
852.569	22892
852.703	22930
852.838	22869
852.973	22980
853.107	22934
853.242	22790
853.376	22778
853.511	22538
853.645	22577
853.78	22801
853.914	22736
854.048	22660
854.183	22512
854.317	22675
854.451	22767
854.585	22725
854.72	22683
854.854	22713
854.988	22634
855.122	22611
855.256	22561
855.39	22679
855.524	22626
855.658	22763
855.792	22653
855.926	22740
856.06	22664
856.194	22767
856.327	22580
856.461	22565
856.595	22717
856.729	22725
856.862	22710
856.996	22668
857.13	22679
857.263	22805
857.397	22816
857.53	22656
857.664	22828
857.797	22694
857.931	22839
858.064	22752
858.197	22877
858.331	22683
858.464	22577
858.597	22493
858.731	22706
858.864	22561
858.997	22497
859.13	22672
859.263	22752
859.396	22675
859.529	22630
859.662	22542
859.795	22512
859.928	22519
860.061	22717
860.194	22786
860.327	22679
860.46	22694
860.592	22847
860.725	22809
860.858	22740
860.99	22649
861.123	22645
861.256	22694
861.388	22649
861.521	23482
861.653	22599
861.786	22386
861.918	22470
862.05	22550
862.183	22531
862.315	22500
862.447	22706
862.58	22672
862.712	22341
862.844	22360
862.976	22554
863.108	22542
863.24	22778
863.372	22280
863.504	22402
863.636	22409
863.768	22382
863.9	22424
864.032	22261
864.164	22337
864.296	22375
864.428	22577
864.559	22375
864.691	22440
864.823	22390
864.954	22352
865.086	22363
865.217	22310
865.349	22150
865.48	22234
865.612	22257
865.743	22421
865.875	22230
866.006	22173
866.137	22261
866.269	22173
866.4	22128
866.531	22215
866.662	22093
866.793	22116
866.924	22162
867.055	22242
867.186	22200
867.317	22196
867.448	21960
867.579	22116
867.71	22006
867.841	22044
867.972	22169
868.103	22059
868.233	22211
868.364	22181
868.495	22375
868.625	22424
868.756	22493
868.886	22375
869.017	22348
869.147	22580
869.278	22538
869.408	22497
869.539	22417
869.669	22497
869.799	22485
869.929	22535
870.06	22538
870.19	22782
870.32	22577
870.45	22763
870.58	22721
870.71	22873
870.84	22866
870.97	22816
871.1	22748
871.23	22900
871.36	23037
871.489	22881
871.619	22957
871.749	23029
871.879	23006
872.008	23227
872.138	23003
872.267	23022
872.397	22873
872.526	22919
872.656	22866
872.785	22847
872.915	22999
873.044	23174
873.173	23067
873.303	23140
873.432	23086
873.561	23064
873.69	23166
873.819	23022
873.948	23117
874.077	23132
874.206	22980
874.335	23003
874.464	23128
874.593	23284
874.722	23121
874.851	23246
874.979	23326
875.108	23239
875.237	23242
875.365	23056
875.494	23117
875.623	23250
875.751	23143
875.88	23265
876.008	23326
876.136	23307
876.265	23642
876.393	23863
876.521	23638
876.65	23695
876.778	23687
876.906	23531
877.034	23558
877.162	23596
877.29	23551
877.418	23528
877.546	23528
877.674	23570
877.802	23585
877.93	23471
878.058	23539
878.185	23406
878.313	23478
878.441	23554
878.568	23353
878.696	23444
878.824	23562
878.951	23577
879.079	23729
879.206	23756
879.333	23745
879.461	23585
879.588	23657
879.715	23745
879.842	23843
879.97	23672
880.097	23528
880.224	23425
880.351	23467
880.478	23425
880.605	23318
880.732	23280
880.859	23619
880.986	23360
881.112	23410
881.239	23193
881.366	23170
881.493	22957
881.619	23033
881.746	22961
881.872	23029
881.999	22869
882.125	22961
882.252	22987
882.378	22744
882.505	23037
882.631	22831
882.757	22801
882.883	22691
883.01	22702
883.136	22527
883.262	22607
883.388	22413
883.514	22550
883.64	22717
883.766	22538
883.892	22219
884.018	22405
884.143	22584
884.269	22740
884.395	22291
884.52	22367
884.646	22333
884.772	22173
884.897	22185
885.023	22280
885.148	22417
885.274	22226
885.399	22299
885.524	22177
885.65	22147
885.775	22344
885.9	22196
886.025	22344
886.15	22371
886.275	22200
886.4	22116
886.525	22272
886.65	22246
886.775	22128
886.9	22242
887.025	22325
887.149	22249
887.274	22097
887.399	21960
887.523	21972
887.648	21964
887.773	21869
887.897	22086
888.021	22101
888.146	21991
888.27	22109
888.395	22090
888.519	22032
888.643	22055
888.767	22067
888.891	21850
889.015	21747
889.139	21831
889.263	21930
889.387	21998
889.511	22036
889.635	21937
889.759	21747
889.883	21751
890.006	21759
890.13	21827
890.254	21629
890.377	21755
890.501	21599
890.624	21401
890.748	21526
890.871	21393
890.995	21329
891.118	21363
891.241	21386
891.364	21344
891.488	21431
891.611	21363
891.734	21275
891.857	21382
891.98	21173
892.103	21481
892.226	21317
892.349	21207
892.471	21154
892.594	21222
892.717	21306
892.839	21214
892.962	21180
893.085	21184
893.207	21211
893.33	21123
893.452	21032
893.575	21252
893.697	21127
893.819	21268
893.941	21466
894.064	21386
894.186	21116
894.308	21112
894.43	21291
894.552	21291
894.674	21332
894.796	21207
894.918	21176
895.04	21184
895.161	21260
895.283	21313
895.405	21100
895.526	21241
895.648	21024
895.769	21302
895.891	21348
896.012	21325
896.134	21226
896.255	21142
896.376	21077
896.498	21207
896.619	21283
896.74	21146
896.861	21176
896.982	21504
897.103	21580
897.224	21458
897.345	21431
897.466	21355
897.587	21488
897.708	21393
897.828	21359
897.949	21287
898.07	21222
898.19	21287
898.311	21500
898.431	21325
898.552	21405
898.672	21450
898.792	21462
898.913	21355
899.033	21275
899.153	21135
899.273	20982
899.393	21260
899.513	21081
899.633	21104
899.753	21165
899.873	21013
899.993	21161
900.113	21001
900.232	21051
900.352	21017
900.472	21036
900.591	20857
900.711	20952
900.83	20891
900.95	20937
901.069	20971
901.189	20880
901.308	20575
901.427	20469
901.546	20575
901.665	20507
901.784	20434
901.904	20427
902.023	20221
902.141	20119
902.26	20073
902.379	20001
902.498	19887
902.617	19951
902.735	19986
902.854	19902
902.973	19883
903.091	19666
903.21	19620
903.328	19624
903.446	19548
903.565	19285
903.683	19445
903.801	19339
903.919	19407
904.038	19377
904.156	19091
904.274	19209
904.392	19084
904.51	19183
904.627	19107
904.745	19187
904.863	19213
904.981	18973
905.098	18897
905.216	18916
905.334	18867
905.451	18810
905.569	18833
905.686	18905
905.803	18779
905.921	18574
906.038	18783
906.155	18639
906.272	18525
906.389	18627
906.506	18357
906.623	18350
906.74	18350
906.857	18197
906.974	18300
907.091	18460
907.208	18540
907.324	18342
907.441	18308
907.557	18045
907.674	18072
907.79	18129
907.907	18091
908.023	18155
908.139	18163
908.256	17965
908.372	17893
908.488	17973
908.604	17870
908.72	17760
908.836	17851
908.952	17684
909.068	17790
909.184	17878
909.3	17707
909.415	17821
909.531	17794
909.647	17482
909.762	17471
909.878	17596
909.993	17410
910.108	17425
910.224	17383
910.339	17570
910.454	17318
910.57	17307
910.685	17151
910.8	17421
910.915	17448
911.03	17299
911.145	17105
911.259	17041
911.374	17018
911.489	17033
911.604	16885
911.718	16835
911.833	16885
911.947	16710
912.062	16656
912.176	16729
912.291	16778
912.405	16752
912.519	16987
912.633	16892
912.748	16782
912.862	16778
912.976	16607
913.09	16519
913.204	16588
913.318	16413
913.431	16702
913.545	16706
913.659	16740
913.772	16527
913.886	16421
914	16447
914.113	16451
914.226	16538
914.34	16402
914.453	16265
914.566	16409
914.68	16295
914.793	16181
914.906	16116
915.019	15983
915.132	16021
915.245	16025
915.358	16032
915.47	16006
915.583	15941
915.696	16010
915.809	16010
915.921	16044
916.034	15774
916.146	15869
916.259	15823
916.371	15937
916.483	15895
916.595	15755
916.708	15793
916.82	15781
916.932	15724
917.044	15766
917.156	15644
917.268	15633
917.38	15675
917.491	15580
917.603	15599
917.715	15694
917.826	15641
917.938	15496
918.049	15466
918.161	15587
918.272	15667
918.384	15610
918.495	15584
918.606	15447
918.717	15195
918.828	15298
918.939	15355
919.05	15268
919.161	15340
919.272	15070
919.383	15138
919.494	15393
919.604	15458
919.715	15340
919.826	15169
919.936	15291
920.047	15325
920.157	15348
920.267	15485
920.378	15389
920.488	15203
920.598	15439
920.708	15572
920.818	15321
920.928	15370
921.038	15557
921.148	15511
921.258	15157
921.368	15123
921.477	15047
921.587	14914
921.697	14933
921.806	14967
921.916	14815
922.025	14762
922.134	14655
922.244	14571
922.353	14617
922.462	14495
922.571	14442
922.68	14290
922.789	14355
922.898	14282
923.007	14183
923.116	14324
923.224	14244
923.333	14229
923.442	14092
923.55	14103
923.659	14092
923.767	14210
923.876	14065
923.984	14039
924.092	13887
924.201	14065
924.309	14024
924.417	14008
924.525	13860
924.633	13974
924.741	14834
924.849	13677
924.956	13898
925.064	13643
925.172	13609
925.279	13567
925.387	13681
925.494	13643
925.602	13822
925.709	13696
925.816	13514
925.924	13616
926.031	13674
926.138	13499
926.245	13601
926.352	13525
926.459	13613
926.566	13624
926.673	13506
926.779	13388
926.886	13411
926.993	13183
927.099	13137
927.206	13103
927.312	13247
927.419	13225
927.525	13240
927.631	13301
927.737	13038
927.843	13031
927.95	12951
928.056	13053
928.162	12966
928.267	13015
928.373	13597
928.479	13038
928.585	12821
928.69	12993
928.796	12913
928.901	12795
929.007	12734
929.112	12829
929.218	12688
929.323	12662
929.428	12768
929.533	12875
929.638	12597
929.743	12627
929.848	12677
929.953	12589
930.058	12536
930.163	12441
930.267	12441
930.372	12460
930.477	12372
930.581	12582
930.685	12353
930.79	12281
930.894	12281
930.998	12254
931.103	12464
931.207	11931
931.311	11870
931.415	11821
931.519	11672
931.623	11611
