Data from test_V78500241_2896.txt Node
Date: Fri Mar 25 16:01:51 CST 2022
User: usil
Spectrometer: V785-0024
Trigger mode: 0
Integration Time (sec): 4.000000E-1
Scans to average: 1
Nonlinearity correction enabled: false
Boxcar width: 0
Storing dark spectrum: false
XAxis mode: Wavelengths
Number of Pixels in Spectrum: 1024
>>>>>Begin Spectral Data<<<<<
801.071	29109
801.214	28991
801.356	28626
801.499	28649
801.641	28592
801.783	28588
801.926	28675
802.068	28546
802.211	28455
802.353	28447
802.496	28211
802.638	28211
802.78	28276
802.923	28322
803.065	28150
803.208	28150
803.35	28390
803.492	28451
803.635	28493
803.777	28489
803.919	28432
804.061	28797
804.204	28660
804.346	28459
804.488	28432
804.63	28459
804.773	28542
804.915	28531
805.057	28759
805.199	28474
805.341	28508
805.483	28626
805.626	28584
805.768	28603
805.91	28744
806.052	28755
806.194	28634
806.336	28805
806.478	28733
806.62	28698
806.762	28858
806.904	29102
807.046	29090
807.188	29056
807.33	29109
807.472	29181
807.614	29010
807.756	29105
807.898	28991
808.04	28957
808.182	28881
808.324	28999
808.465	28934
808.607	29284
808.749	29315
808.891	29493
809.033	29444
809.174	29459
809.316	29463
809.458	29383
809.6	29280
809.741	29699
809.883	29493
810.025	29752
810.166	29661
810.308	29482
810.45	29589
810.591	29528
810.733	29452
810.875	29417
811.016	29280
811.158	29311
811.299	29566
811.441	29547
811.582	29562
811.724	29448
811.865	29417
812.007	29402
812.148	29353
812.29	29497
812.431	29554
812.573	29840
812.714	29862
812.855	29950
812.997	29969
813.138	30194
813.279	29958
813.421	29984
813.562	29862
813.703	29714
813.845	29653
813.986	29410
814.127	29151
814.268	29079
814.41	29109
814.551	29075
814.692	29075
814.833	29014
814.974	29075
815.115	29280
815.256	28980
815.397	29018
815.539	28999
815.68	29018
815.821	29014
815.962	28972
816.103	28938
816.244	28835
816.385	28691
816.526	28702
816.666	28618
816.807	28386
816.948	28580
817.089	28630
817.23	28394
817.371	28459
817.512	28474
817.653	28344
817.793	28337
817.934	28466
818.075	28424
818.216	28405
818.356	28413
818.497	28192
818.638	28234
818.778	28200
818.919	28360
819.06	28310
819.2	28409
819.341	28497
819.481	28401
819.622	28710
819.762	28755
819.903	28717
820.043	28683
820.184	28611
820.324	28596
820.465	28618
820.605	28516
820.746	28561
820.886	28451
821.026	28599
821.167	28489
821.307	28672
821.447	28531
821.588	28409
821.728	28192
821.868	28181
822.008	28036
822.149	28010
822.289	27854
822.429	27724
822.569	27633
822.709	27561
822.849	27511
822.99	27466
823.13	27340
823.27	27351
823.41	27393
823.55	27279
823.69	27344
823.83	27291
823.97	27370
824.11	27085
824.25	26940
824.389	27112
824.529	27192
824.669	27013
824.809	27363
824.949	27203
825.089	27150
825.228	27104
825.368	27074
825.508	27013
825.648	27020
825.787	27051
825.927	27157
826.067	27028
826.206	27024
826.346	27051
826.485	27028
826.625	27096
826.765	27165
826.904	27001
827.044	26857
827.183	26735
827.323	26735
827.462	26765
827.601	26655
827.741	26644
827.88	26807
828.02	26629
828.159	26792
828.298	26773
828.437	26838
828.577	26731
828.716	26807
828.855	26735
828.994	26533
829.134	26419
829.273	26541
829.412	26374
829.551	26309
829.69	26446
829.829	26499
829.968	26495
830.107	26351
830.246	26473
830.385	26377
830.524	26275
830.663	26229
830.802	26252
830.941	26081
831.08	25997
831.219	26081
831.357	26176
831.496	26324
831.635	26069
831.774	25932
831.913	25932
832.051	25818
832.19	25723
832.329	25837
832.467	25628
832.606	25769
832.744	25632
832.883	25750
833.022	25563
833.16	25647
833.299	25753
833.437	25868
833.576	25868
833.714	25727
833.852	25837
833.991	25811
834.129	25860
834.267	25898
834.406	25803
834.544	25761
834.682	25719
834.821	25776
834.959	25864
835.097	25651
835.235	25852
835.373	25799
835.511	25769
835.65	25597
835.788	25632
835.926	25483
836.064	25422
836.202	25457
836.34	25601
836.478	25616
836.615	25632
836.753	25655
836.891	25700
837.029	25632
837.167	25514
837.305	25548
837.443	25407
837.58	25411
837.718	25472
837.856	25434
837.993	25373
838.131	25502
838.269	25278
838.406	25327
838.544	25179
838.681	25046
838.819	25000
838.956	24871
839.094	24863
839.231	25004
839.369	25099
839.506	25346
839.643	25110
839.781	24958
839.918	24776
840.055	24753
840.193	24875
840.33	24909
840.467	24741
840.604	24863
840.742	25217
840.879	24726
841.016	24563
841.153	24639
841.29	24863
841.427	24749
841.564	24810
841.701	24722
841.838	24749
841.975	24749
842.112	24722
842.249	24692
842.385	24585
842.522	24707
842.659	24612
842.796	24582
842.933	24483
843.069	24654
843.206	24505
843.343	24597
843.479	24429
843.616	24593
843.752	24327
843.889	24513
844.025	24517
844.162	24308
844.298	24361
844.435	24323
844.571	24224
844.708	24315
844.844	24517
844.98	24471
845.117	24315
845.253	24342
845.389	24262
845.525	24171
845.661	24121
845.798	23965
845.934	24140
846.07	24171
846.206	24018
846.342	24182
846.478	23901
846.614	23805
846.75	23737
846.886	23843
847.022	23828
847.158	23783
847.294	23745
847.429	23904
847.565	23661
847.701	23954
847.837	23490
847.972	23368
848.108	23570
848.244	23551
848.379	23459
848.515	23395
848.65	23307
848.786	23360
848.921	23360
849.057	23440
849.192	23535
849.328	23307
849.463	23353
849.598	23391
849.734	23280
849.869	23334
850.004	23223
850.14	23204
850.275	23258
850.41	23029
850.545	23056
850.68	23064
850.815	23322
850.95	23143
851.085	23273
851.22	23330
851.355	23147
851.49	23174
851.625	23102
851.76	23178
851.895	23033
852.03	23098
852.165	23197
852.299	23178
852.434	23204
852.569	23014
852.703	23098
852.838	23147
852.973	23258
853.107	23231
853.242	23079
853.376	23022
853.511	22866
853.645	22949
853.78	23098
853.914	22889
854.048	22930
854.183	22995
854.317	22972
854.451	23113
854.585	22923
854.72	22957
854.854	23029
854.988	22972
855.122	23041
855.256	22854
855.39	22900
855.524	23025
855.658	22976
855.792	22869
855.926	22812
856.06	23033
856.194	23105
856.327	22858
856.461	22896
856.595	22942
856.729	22850
856.862	23060
856.996	23037
857.13	22965
857.263	23121
857.397	23014
857.53	22919
857.664	22923
857.797	23056
857.931	23102
858.064	22972
858.197	23010
858.331	22915
858.464	22847
858.597	22919
858.731	22881
858.864	22919
858.997	22919
859.13	22919
859.263	23086
859.396	23124
859.529	22797
859.662	22919
859.795	22843
859.928	22854
860.061	23025
860.194	23075
860.327	23048
860.46	22927
860.592	23025
860.725	23197
860.858	23037
860.99	22946
861.123	22946
861.256	22782
861.388	22889
861.521	23684
861.653	22744
861.786	22675
861.918	22809
862.05	22839
862.183	22759
862.315	22892
862.447	22816
862.58	22869
862.712	22561
862.844	22527
862.976	22721
863.108	22603
863.24	23143
863.372	22557
863.504	22691
863.636	22554
863.768	22618
863.9	22706
864.032	22588
864.164	22508
864.296	22531
864.428	22786
864.559	22679
864.691	22683
864.823	22577
864.954	22729
865.086	22542
865.217	22565
865.349	22459
865.48	22561
865.612	22382
865.743	22531
865.875	22531
866.006	22455
866.137	22565
866.269	22497
866.4	22512
866.531	22405
866.662	22409
866.793	22375
866.924	22493
867.055	22390
867.186	22386
867.317	22413
867.448	22409
867.579	22402
867.71	22352
867.841	22356
867.972	22398
868.103	22363
868.233	22447
868.364	22341
868.495	22424
868.625	22634
868.756	22694
868.886	22611
869.017	22744
869.147	22748
869.278	22672
869.408	22660
869.539	22611
869.669	22679
869.799	22683
869.929	22679
870.06	22733
870.19	22850
870.32	23014
870.45	22987
870.58	23094
870.71	23162
870.84	23200
870.97	23140
871.1	23121
871.23	23273
871.36	23124
871.489	23124
871.619	23261
871.749	23242
871.879	23208
872.008	23444
872.138	23193
872.267	23258
872.397	23193
872.526	23064
872.656	23117
872.785	23204
872.915	23330
873.044	23322
873.173	23258
873.303	23284
873.432	23360
873.561	23448
873.69	23292
873.819	23254
873.948	23398
874.077	23212
874.206	23349
874.335	23334
874.464	23197
874.593	23520
874.722	23478
874.851	23516
874.979	23531
875.108	23630
875.237	23478
875.365	23398
875.494	23383
875.623	23661
875.751	23379
875.88	23471
876.008	23562
876.136	23707
876.265	23874
876.393	23965
876.521	23950
876.65	23786
876.778	23977
876.906	23866
877.034	23745
877.162	23798
877.29	23745
877.418	23832
877.546	23752
877.674	23939
877.802	23779
877.93	23817
878.058	23813
878.185	23707
878.313	23745
878.441	23729
878.568	23520
878.696	23859
878.824	23855
878.951	23859
879.079	24038
879.206	24152
879.333	23927
879.461	23726
879.588	23946
879.715	24064
879.842	24197
879.97	23859
880.097	23737
880.224	23665
880.351	23695
880.478	23642
880.605	23646
880.732	23665
880.859	23912
880.986	23535
881.112	23600
881.239	23581
881.366	23376
881.493	23189
881.619	23166
881.746	23273
881.872	23200
881.999	23105
882.125	23197
882.252	23307
882.378	23223
882.505	23231
882.631	23003
882.757	22843
882.883	22930
883.01	22889
883.136	22828
883.262	22771
883.388	22736
883.514	22824
883.64	22961
883.766	22691
883.892	22687
884.018	22672
884.143	22786
884.269	22850
884.395	22561
884.52	22424
884.646	22523
884.772	22421
884.897	22352
885.023	22409
885.148	22580
885.274	22668
885.399	22500
885.524	22527
885.65	22489
885.775	22413
885.9	22417
886.025	22531
886.15	22497
886.275	22447
886.4	22436
886.525	22550
886.65	22382
886.775	22417
886.9	22645
887.025	22535
887.149	22379
887.274	22333
887.399	22188
887.523	22207
887.648	22242
887.773	22169
887.897	22417
888.021	22284
888.146	22070
888.27	22405
888.395	22344
888.519	22211
888.643	22246
888.767	22280
888.891	22150
889.015	22013
889.139	21964
889.263	22067
889.387	21972
889.511	22344
889.635	22105
889.759	21953
889.883	22059
890.006	22116
890.13	22105
890.254	21922
890.377	21972
890.501	21827
890.624	21682
890.748	21781
890.871	21599
890.995	21587
891.118	21644
891.241	21500
891.364	21671
891.488	21827
891.611	21656
891.734	21496
891.857	21739
891.98	21568
892.103	21637
892.226	21576
892.349	21488
892.471	21397
892.594	21469
892.717	21393
892.839	21393
892.962	21538
893.085	21564
893.207	21393
893.33	21401
893.452	21340
893.575	21420
893.697	21389
893.819	21656
893.941	21507
894.064	21671
894.186	21504
894.308	21447
894.43	21496
894.552	21542
894.674	21580
894.796	21359
894.918	21477
895.04	21363
895.161	21469
895.283	21412
895.405	21378
895.526	21458
895.648	21374
895.769	21523
895.891	21370
896.012	21511
896.134	21420
896.255	21454
896.376	21412
896.498	21500
896.619	21454
896.74	21420
896.861	21545
896.982	21587
897.103	21892
897.224	21625
897.345	21625
897.466	21580
897.587	21545
897.708	21728
897.828	21724
897.949	21576
898.07	21450
898.19	21473
898.311	21625
898.431	21523
898.552	21545
898.672	21606
898.792	21717
898.913	21583
899.033	21549
899.153	21351
899.273	21348
899.393	21424
899.513	21389
899.633	21367
899.753	21340
899.873	21249
899.993	21306
900.113	21336
900.232	21340
900.352	21298
900.472	21268
900.591	20986
900.711	21138
900.83	20929
900.95	21150
901.069	21150
901.189	20941
901.308	20777
901.427	20758
901.546	20609
901.665	20705
901.784	20693
901.904	20571
902.023	20431
902.141	20202
902.26	20142
902.379	20180
902.498	20115
902.617	20024
902.735	20134
902.854	20096
902.973	20069
903.091	19986
903.21	19788
903.328	19803
903.446	19761
903.565	19658
903.683	19639
903.801	19609
903.919	19521
904.038	19514
904.156	19346
904.274	19457
904.392	19350
904.51	19362
904.627	19304
904.745	19354
904.863	19407
904.981	19187
905.098	19019
905.216	18996
905.334	19069
905.451	18947
905.569	19088
905.686	19080
905.803	19034
905.921	18753
906.038	18977
906.155	18867
906.272	18738
906.389	18837
906.506	18506
906.623	18532
906.74	18582
906.857	18426
906.974	18513
907.091	18669
907.208	18639
907.324	18566
907.441	18426
907.557	18300
907.674	18209
907.79	18174
907.907	18209
908.023	18228
908.139	18289
908.256	18232
908.372	18133
908.488	18163
908.604	18015
908.72	18007
908.836	17984
908.952	17939
909.068	17920
909.184	18205
909.3	17992
909.415	18019
909.531	17908
909.647	17786
909.762	17687
909.878	17676
909.993	17684
910.108	17695
910.224	17558
910.339	17722
910.454	17493
910.57	17600
910.685	17330
910.8	17718
910.915	17699
911.03	17444
911.145	17269
911.259	17322
911.374	17277
911.489	17098
911.604	17014
911.718	16934
911.833	17037
911.947	16930
912.062	16805
912.176	17041
912.291	17086
912.405	16999
912.519	17166
912.633	17109
912.748	17033
912.862	16862
912.976	16862
913.09	16641
913.204	16729
913.318	16801
913.431	16934
913.545	16911
913.659	16889
913.772	16736
913.886	16580
914	16626
914.113	16615
914.226	16615
914.34	16531
914.453	16443
914.566	16554
914.68	16481
914.793	16466
914.906	16173
915.019	16147
915.132	16120
915.245	16120
915.358	16196
915.47	16143
915.583	16154
915.696	16112
915.809	16310
915.921	16226
916.034	16169
916.146	16040
916.259	16067
916.371	16150
916.483	16021
916.595	15956
916.708	16006
916.82	15960
916.932	15899
917.044	15949
917.156	15835
917.268	15762
917.38	15785
917.491	15770
917.603	15759
917.715	15785
917.826	15987
917.938	15720
918.049	15667
918.161	15812
918.272	15854
918.384	15922
918.495	15679
918.606	15534
918.717	15504
918.828	15519
918.939	15481
919.05	15370
919.161	15408
919.272	15313
919.383	15291
919.494	15561
919.604	15660
919.715	15542
919.826	15313
919.936	15412
920.047	15526
920.157	15542
920.267	15584
920.378	15408
920.488	15439
920.598	15584
920.708	15686
920.818	15580
920.928	15458
921.038	15656
921.148	15743
921.258	15416
921.368	15393
921.477	15157
921.587	15116
921.697	15028
921.806	15211
921.916	15058
922.025	14876
922.134	14765
922.244	14727
922.353	14845
922.462	14777
922.571	14587
922.68	14457
922.789	14495
922.898	14450
923.007	14313
923.116	14488
923.224	14404
923.333	14480
923.442	14256
923.55	14286
923.659	14195
923.767	14393
923.876	14210
923.984	14206
924.092	14202
924.201	14221
924.309	14149
924.417	14153
924.525	14123
924.633	14164
924.741	14895
924.849	13849
924.956	14107
925.064	13860
925.172	13753
925.279	13791
925.387	13765
925.494	13856
925.602	13875
925.709	13765
925.816	13666
925.924	13693
926.031	13814
926.138	13704
926.245	13807
926.352	13700
926.459	13814
926.566	13814
926.673	13658
926.779	13491
926.886	13514
926.993	13400
927.099	13388
927.206	13274
927.312	13293
927.419	13308
927.525	13278
927.631	13274
927.737	13202
927.843	13183
927.95	13076
928.056	13149
928.162	13270
928.267	13103
928.373	13868
928.479	13217
928.585	12852
928.69	13080
928.796	13050
928.901	13034
929.007	12882
929.112	13076
929.218	12947
929.323	12897
929.428	12817
929.533	12844
929.638	12753
929.743	12825
929.848	12863
929.953	12795
930.058	12673
930.163	12456
930.267	12479
930.372	12574
930.477	12597
930.581	12684
930.685	12559
930.79	12327
930.894	12414
930.998	12353
931.103	12403
931.207	12121
931.311	12007
931.415	11984
931.519	11714
931.623	11764
