Data from test_V78500241_1009.txt Node
Date: Fri Mar 25 15:48:47 CST 2022
User: usil
Spectrometer: V785-0024
Trigger mode: 0
Integration Time (sec): 4.000000E-1
Scans to average: 1
Nonlinearity correction enabled: false
Boxcar width: 0
Storing dark spectrum: false
XAxis mode: Wavelengths
Number of Pixels in Spectrum: 1024
>>>>>Begin Spectral Data<<<<<
801.071	28158
801.214	28063
801.356	27797
801.499	27690
801.641	27568
801.783	27622
801.926	27656
802.068	27717
802.211	27553
802.353	27580
802.496	27313
802.638	27340
802.78	27439
802.923	27199
803.065	27268
803.208	27256
803.35	27298
803.492	27511
803.635	27492
803.777	27386
803.919	27420
804.061	27671
804.204	27580
804.346	27523
804.488	27359
804.63	27412
804.773	27355
804.915	27572
805.057	27618
805.199	27580
805.341	27603
805.483	27656
805.626	27595
805.768	27587
805.91	27705
806.052	27599
806.194	27424
806.336	27797
806.478	27682
806.62	27671
806.762	27793
806.904	27842
807.046	28154
807.188	28082
807.33	28109
807.472	28120
807.614	27945
807.756	28048
807.898	28006
808.04	27808
808.182	27819
808.324	27880
808.465	27892
808.607	28143
808.749	28337
808.891	28291
809.033	28462
809.174	28154
809.316	28162
809.458	28268
809.6	28287
809.741	28394
809.883	28306
810.025	28603
810.166	28523
810.308	28607
810.45	28561
810.591	28500
810.733	28242
810.875	28147
811.016	28322
811.158	28169
811.299	28405
811.441	28512
811.582	28462
811.724	28455
811.865	28105
812.007	28200
812.148	28394
812.29	28443
812.431	28386
812.573	28668
812.714	28774
812.855	28748
812.997	28900
813.138	29113
813.279	28805
813.421	28843
813.562	28793
813.703	28634
813.845	28538
813.986	28322
814.127	28040
814.268	27975
814.41	28131
814.551	27964
814.692	27861
814.833	27907
814.974	28082
815.115	28051
815.256	27922
815.397	27838
815.539	27880
815.68	27789
815.821	27671
815.962	27793
816.103	27869
816.244	27774
816.385	27614
816.526	27485
816.666	27405
816.807	27279
816.948	27332
817.089	27405
817.23	27389
817.371	27283
817.512	27325
817.653	27329
817.793	27146
817.934	27351
818.075	27492
818.216	27332
818.356	27294
818.497	27207
818.638	27039
818.778	26929
818.919	27138
819.06	27062
819.2	27032
819.341	27363
819.481	27260
819.622	27420
819.762	27572
819.903	27572
820.043	27561
820.184	27412
820.324	27355
820.465	27374
820.605	27317
820.746	27279
820.886	27237
821.026	27359
821.167	27424
821.307	27408
821.447	27325
821.588	27279
821.728	27154
821.868	26948
822.008	26758
822.149	26720
822.289	26838
822.429	26514
822.569	26511
822.709	26450
822.849	26358
822.99	26145
823.13	26362
823.27	26202
823.41	26043
823.55	26039
823.69	26153
823.83	26172
823.97	26043
824.11	25898
824.25	25928
824.389	25925
824.529	26050
824.669	25871
824.809	26122
824.949	25966
825.089	26122
825.228	26058
825.368	25746
825.508	25746
825.648	25681
825.787	25974
825.927	25875
826.067	25677
826.206	25879
826.346	25822
826.485	25871
826.625	25784
826.765	25913
826.904	25761
827.044	25449
827.183	25487
827.323	25464
827.462	25590
827.601	25468
827.741	25495
827.88	25529
828.02	25449
828.159	25487
828.298	25457
828.437	25403
828.577	25403
828.716	25521
828.855	25464
828.994	25285
829.134	25122
829.273	25270
829.412	25217
829.551	25198
829.69	25209
829.829	25103
829.968	25263
830.107	25240
830.246	25274
830.385	25091
830.524	25080
830.663	24962
830.802	24890
830.941	24821
831.08	24745
831.219	24852
831.357	24920
831.496	25099
831.635	24795
831.774	24658
831.913	24661
832.051	24589
832.19	24574
832.329	24608
832.467	24547
832.606	24422
832.744	24429
832.883	24475
833.022	24505
833.16	24422
833.299	24540
833.437	24589
833.576	24601
833.714	24509
833.852	24665
833.991	24661
834.129	24684
834.267	24608
834.406	24555
834.544	24654
834.682	24646
834.821	24555
834.959	24776
835.097	24422
835.235	24486
835.373	24418
835.511	24490
835.65	24353
835.788	24483
835.926	24235
836.064	24251
836.202	24273
836.34	24437
836.478	24467
836.615	24346
836.753	24281
836.891	24437
837.029	24388
837.167	24384
837.305	24273
837.443	24350
837.58	24186
837.718	24410
837.856	24171
837.993	24007
838.131	24171
838.269	24182
838.406	24053
838.544	23996
838.681	23836
838.819	23756
838.956	23672
839.094	23718
839.231	23775
839.369	23832
839.506	24117
839.643	24011
839.781	23703
839.918	23691
840.055	23676
840.193	23596
840.33	23589
840.467	23516
840.604	23505
840.742	23973
840.879	23547
841.016	23543
841.153	23425
841.29	23646
841.427	23535
841.564	23600
841.701	23551
841.838	23467
841.975	23535
842.112	23543
842.249	23341
842.385	23341
842.522	23455
842.659	23368
842.796	23402
842.933	23284
843.069	23337
843.206	23398
843.343	23269
843.479	23414
843.616	23387
843.752	23044
843.889	23102
844.025	23185
844.162	23117
844.298	23227
844.435	23117
844.571	22999
844.708	23155
844.844	23258
844.98	23296
845.117	23280
845.253	23109
845.389	23033
845.525	23102
845.661	22995
845.798	22885
845.934	22896
846.07	22771
846.206	22850
846.342	22850
846.478	22866
846.614	22634
846.75	22428
846.886	22519
847.022	22618
847.158	22615
847.294	22352
847.429	22660
847.565	22531
847.701	22763
847.837	22200
847.972	22272
848.108	22352
848.244	22352
848.379	22234
848.515	22230
848.65	22093
848.786	22154
848.921	22306
849.057	22325
849.192	22230
849.328	22215
849.463	22211
849.598	22116
849.734	22162
849.869	22074
850.004	21922
850.14	21968
850.275	21892
850.41	21835
850.545	21831
850.68	21945
850.815	22101
850.95	21949
851.085	21983
851.22	22048
851.355	21915
851.49	21854
851.625	21934
851.76	21915
851.895	21823
852.03	21812
852.165	21884
852.299	21991
852.434	22006
852.569	21945
852.703	21865
852.838	22063
852.973	22147
853.107	21991
853.242	21968
853.376	21762
853.511	21606
853.645	21747
853.78	21895
853.914	21800
854.048	21759
854.183	21679
854.317	21812
854.451	21945
854.585	21583
854.72	21804
854.854	21793
854.988	21682
855.122	21667
855.256	21633
855.39	21690
855.524	21747
855.658	21717
855.792	21709
855.926	21816
856.06	21739
856.194	21785
856.327	21682
856.461	21762
856.595	21755
856.729	21648
856.862	21956
856.996	21713
857.13	21793
857.263	21880
857.397	21895
857.53	21709
857.664	21728
857.797	21739
857.931	21846
858.064	21743
858.197	21854
858.331	21778
858.464	21717
858.597	21644
858.731	21675
858.864	21625
858.997	21679
859.13	21774
859.263	21705
859.396	21850
859.529	21675
859.662	21785
859.795	21728
859.928	21682
860.061	21835
860.194	21915
860.327	21789
860.46	21808
860.592	21945
860.725	21884
860.858	21937
860.99	21873
861.123	21633
861.256	21660
861.388	21720
861.521	22512
861.653	21515
861.786	21564
861.918	21629
862.05	21603
862.183	21618
862.315	21675
862.447	21804
862.58	21591
862.712	21355
862.844	21462
862.976	21633
863.108	21641
863.24	21850
863.372	21329
863.504	21374
863.636	21530
863.768	21549
863.9	21469
864.032	21222
864.164	21458
864.296	21397
864.428	21507
864.559	21564
864.691	21515
864.823	21374
864.954	21428
865.086	21408
865.217	21313
865.349	21317
865.48	21302
865.612	21233
865.743	21496
865.875	21454
866.006	21321
866.137	21291
866.269	21218
866.4	21325
866.531	21298
866.662	21214
866.793	21325
866.924	21237
867.055	21355
867.186	21256
867.317	21287
867.448	21184
867.579	21260
867.71	21207
867.841	21317
867.972	21291
868.103	21275
868.233	21329
868.364	21302
868.495	21367
868.625	21458
868.756	21538
868.886	21367
869.017	21378
869.147	21625
869.278	21481
869.408	21648
869.539	21549
869.669	21580
869.799	21523
869.929	21492
870.06	21515
870.19	21956
870.32	21759
870.45	21907
870.58	21945
870.71	21945
870.84	21960
870.97	21915
871.1	21956
871.23	22112
871.36	22048
871.489	22025
871.619	22010
871.749	22169
871.879	22131
872.008	22219
872.138	21968
872.267	22131
872.397	21991
872.526	22105
872.656	21998
872.785	21926
872.915	22162
873.044	22192
873.173	22154
873.303	22223
873.432	22150
873.561	22306
873.69	22192
873.819	22246
873.948	22097
874.077	22150
874.206	22082
874.335	22112
874.464	22276
874.593	22348
874.722	22299
874.851	22405
874.979	22493
875.108	22470
875.237	22268
875.365	22360
875.494	22375
875.623	22352
875.751	22398
875.88	22436
876.008	22470
876.136	22462
876.265	22672
876.393	22892
876.521	22717
876.65	22755
876.778	22672
876.906	22634
877.034	22710
877.162	22801
877.29	22759
877.418	22702
877.546	22702
877.674	22603
877.802	22618
877.93	22596
878.058	22641
878.185	22500
878.313	22622
878.441	22694
878.568	22459
878.696	22694
878.824	22740
878.951	22752
879.079	23010
879.206	22968
879.333	22812
879.461	22664
879.588	22847
879.715	22812
879.842	23079
879.97	22675
880.097	22493
880.224	22489
880.351	22519
880.478	22641
880.605	22569
880.732	22451
880.859	22641
880.986	22519
881.112	22497
881.239	22322
881.366	22063
881.493	22207
881.619	22128
881.746	22139
881.872	22044
881.999	21994
882.125	21968
882.252	22109
882.378	22048
882.505	22082
882.631	21937
882.757	21899
882.883	21915
883.01	21762
883.136	21675
883.262	21572
883.388	21557
883.514	21793
883.64	21781
883.766	21732
883.892	21500
884.018	21675
884.143	21743
884.269	21785
884.395	21488
884.52	21363
884.646	21454
884.772	21412
884.897	21336
885.023	21344
885.148	21416
885.274	21549
885.399	21511
885.524	21298
885.65	21435
885.775	21450
885.9	21336
886.025	21485
886.15	21564
886.275	21363
886.4	21291
886.525	21298
886.65	21504
886.775	21389
886.9	21416
887.025	21564
887.149	21359
887.274	21256
887.399	21150
887.523	21173
887.648	21089
887.773	20956
887.897	21252
888.021	21089
888.146	21154
888.27	21203
888.395	21184
888.519	21252
888.643	21264
888.767	21256
888.891	21055
889.015	20933
889.139	21013
889.263	20982
889.387	21184
889.511	21138
889.635	21028
889.759	20982
889.883	20929
890.006	20773
890.13	21077
890.254	20880
890.377	20895
890.501	20815
890.624	20739
890.748	20785
890.871	20537
890.995	20598
891.118	20514
891.241	20571
891.364	20537
891.488	20720
891.611	20549
891.734	20609
891.857	20598
891.98	20579
892.103	20526
892.226	20579
892.349	20412
892.471	20259
892.594	20313
892.717	20469
892.839	20541
892.962	20419
893.085	20495
893.207	20457
893.33	20366
893.452	20248
893.575	20632
893.697	20461
893.819	20530
893.941	20648
894.064	20571
894.186	20332
894.308	20377
894.43	20499
894.552	20545
894.674	20514
894.796	20248
894.918	20434
895.04	20339
895.161	20499
895.283	20530
895.405	20408
895.526	20495
895.648	20404
895.769	20396
895.891	20457
896.012	20461
896.134	20450
896.255	20469
896.376	20393
896.498	20495
896.619	20476
896.74	20385
896.861	20541
896.982	20823
897.103	20880
897.224	20705
897.345	20663
897.466	20731
897.587	20750
897.708	20849
897.828	20731
897.949	20678
898.07	20492
898.19	20613
898.311	20849
898.431	20598
898.552	20629
898.672	20739
898.792	20682
898.913	20667
899.033	20625
899.153	20469
899.273	20396
899.393	20305
899.513	20533
899.633	20461
899.753	20381
899.873	20362
899.993	20389
900.113	20419
900.232	20488
900.352	20286
900.472	20286
900.591	20183
900.711	20278
900.83	20138
900.95	20252
901.069	20305
901.189	20111
901.308	19936
901.427	19719
901.546	19750
901.665	19818
901.784	19780
901.904	19559
902.023	19632
902.141	19331
902.26	19301
902.379	19438
902.498	19304
902.617	19236
902.735	19411
902.854	19316
902.973	19168
903.091	18962
903.21	19034
903.328	18932
903.446	18962
903.565	18738
903.683	18772
903.801	18760
903.919	18665
904.038	18646
904.156	18525
904.274	18544
904.392	18483
904.51	18513
904.627	18498
904.745	18547
904.863	18521
904.981	18342
905.098	18072
905.216	18201
905.334	18182
905.451	18216
905.569	18144
905.686	18262
905.803	18106
905.921	17988
906.038	18060
906.155	18083
906.272	17950
906.389	17832
906.506	17707
906.623	17950
906.74	17703
906.857	17657
906.974	17687
907.091	17832
907.208	17764
907.324	17775
907.441	17657
907.557	17448
907.674	17406
907.79	17421
907.907	17387
908.023	17402
908.139	17505
908.256	17356
908.372	17364
908.488	17334
908.604	17159
908.72	17140
908.836	17178
908.952	17128
909.068	17223
909.184	17265
909.3	17185
909.415	17162
909.531	17162
909.647	16915
909.762	16911
909.878	16816
909.993	16904
910.108	16847
910.224	16771
910.339	16793
910.454	16672
910.57	16672
910.685	16577
910.8	16892
910.915	16778
911.03	16611
911.145	16470
911.259	16451
911.374	16436
911.489	16428
911.604	16379
911.718	16207
911.833	16173
911.947	16082
912.062	16131
912.176	16196
912.291	16272
912.405	16116
912.519	16360
912.633	16402
912.748	16341
912.862	16207
912.976	15983
913.09	15888
913.204	15968
913.318	16048
913.431	15991
913.545	15987
913.659	16105
913.772	15987
913.886	15880
914	15762
914.113	15915
914.226	15926
914.34	15774
914.453	15739
914.566	15793
914.68	15736
914.793	15698
914.906	15450
915.019	15412
915.132	15340
915.245	15348
915.358	15397
915.47	15359
915.583	15424
915.696	15454
915.809	15549
915.921	15504
916.034	15325
916.146	15279
916.259	15241
916.371	15241
916.483	15272
916.595	15329
916.708	15302
916.82	15203
916.932	15203
917.044	15097
917.156	15112
917.268	15051
917.38	15013
917.491	14952
917.603	15062
917.715	15043
917.826	15058
917.938	15055
918.049	14853
918.161	14941
918.272	15051
918.384	14982
918.495	15036
918.606	14872
918.717	14598
918.828	14834
918.939	14857
919.05	14629
919.161	14765
919.272	14541
919.383	14644
919.494	14800
919.604	14971
919.715	14754
919.826	14667
919.936	14712
920.047	14796
920.157	14781
920.267	14933
920.378	14796
920.488	14796
920.598	14899
920.708	15051
920.818	14921
920.928	14834
921.038	15028
921.148	15047
921.258	14785
921.368	14606
921.477	14530
921.587	14404
921.697	14355
921.806	14507
921.916	14294
922.025	14168
922.134	14210
922.244	14107
922.353	14161
922.462	13993
922.571	13917
922.68	13879
922.789	13822
922.898	13712
923.007	13655
923.116	13795
923.224	13670
923.333	13681
923.442	13723
923.55	13514
923.659	13647
923.767	13567
923.876	13601
923.984	13727
924.092	13457
924.201	13521
924.309	13415
924.417	13529
924.525	13426
924.633	13396
924.741	14332
924.849	13160
924.956	13327
925.064	13126
925.172	13133
925.279	13118
925.387	13114
925.494	13149
925.602	13308
925.709	13240
925.816	13137
925.924	13133
926.031	13141
926.138	13095
926.245	13126
926.352	13053
926.459	13103
926.566	13133
926.673	13031
926.779	12954
926.886	12966
926.993	12791
927.099	12757
927.206	12719
927.312	12608
927.419	12768
927.525	12654
927.631	12738
927.737	12559
927.843	12684
927.95	12456
928.056	12597
928.162	12559
928.267	12612
928.373	13126
928.479	12673
928.585	12388
928.69	12460
928.796	12540
928.901	12407
929.007	12311
929.112	12403
929.218	12372
929.323	12285
929.428	12266
929.533	12361
929.638	12239
929.743	12209
929.848	12281
929.953	12171
930.058	12045
930.163	11878
930.267	11973
930.372	12026
930.477	11863
930.581	12125
930.685	12019
930.79	11802
930.894	11851
930.998	11783
931.103	11916
931.207	11657
931.311	11444
931.415	11463
931.519	11307
931.623	11212
