Data from test_V78500241_2750.txt Node
Date: Fri Mar 25 16:00:51 CST 2022
User: usil
Spectrometer: V785-0024
Trigger mode: 0
Integration Time (sec): 4.000000E-1
Scans to average: 1
Nonlinearity correction enabled: false
Boxcar width: 0
Storing dark spectrum: false
XAxis mode: Wavelengths
Number of Pixels in Spectrum: 1024
>>>>>Begin Spectral Data<<<<<
801.071	28523
801.214	28603
801.356	28333
801.499	28226
801.641	28272
801.783	28002
801.926	28223
802.068	28280
802.211	27869
802.353	27987
802.496	27823
802.638	27785
802.78	27747
802.923	27789
803.065	27778
803.208	27804
803.35	27949
803.492	27922
803.635	28124
803.777	28002
803.919	28116
804.061	28367
804.204	28154
804.346	27956
804.488	27888
804.63	28040
804.773	27914
804.915	28185
805.057	28185
805.199	28059
805.341	28150
805.483	28226
805.626	28234
805.768	28105
805.91	28333
806.052	28257
806.194	28101
806.336	28268
806.478	28272
806.62	28234
806.762	28337
806.904	28603
807.046	28630
807.188	28828
807.33	28550
807.472	28489
807.614	28649
807.756	28656
807.898	28637
808.04	28386
808.182	28478
808.324	28679
808.465	28538
808.607	28725
808.749	28873
808.891	29006
809.033	29022
809.174	28999
809.316	28759
809.458	28923
809.6	28847
809.741	29025
809.883	29090
810.025	29208
810.166	29071
810.308	29132
810.45	29178
810.591	29022
810.733	28923
810.875	28885
811.016	28767
811.158	28820
811.299	29083
811.441	28968
811.582	29124
811.724	29060
811.865	28790
812.007	28801
812.148	28972
812.29	28946
812.431	29029
812.573	29258
812.714	29364
812.855	29349
812.997	29737
813.138	29516
813.279	29520
813.421	29520
813.562	29356
813.703	29220
813.845	29037
813.986	28938
814.127	28725
814.268	28656
814.41	28584
814.551	28580
814.692	28771
814.833	28561
814.974	28603
815.115	28596
815.256	28554
815.397	28489
815.539	28405
815.68	28375
815.821	28333
815.962	28440
816.103	28603
816.244	28306
816.385	28207
816.526	28200
816.666	28048
816.807	27945
816.948	27972
817.089	28074
817.23	28021
817.371	27899
817.512	27865
817.653	27808
817.793	27797
817.934	27888
818.075	27987
818.216	27991
818.356	27876
818.497	27823
818.638	27698
818.778	27675
818.919	27656
819.06	27759
819.2	27724
819.341	27869
819.481	28021
819.622	28017
819.762	28253
819.903	28181
820.043	28169
820.184	27918
820.324	28128
820.465	28181
820.605	28021
820.746	28002
820.886	27953
821.026	27922
821.167	27918
821.307	28048
821.447	28040
821.588	27823
821.728	27568
821.868	27557
822.008	27397
822.149	27340
822.289	27424
822.429	27230
822.569	26918
822.709	27043
822.849	26914
822.99	26921
823.13	26990
823.27	26842
823.41	26754
823.55	26560
823.69	26636
823.83	26727
823.97	26834
824.11	26697
824.25	26465
824.389	26655
824.529	26549
824.669	26514
824.809	26632
824.949	26716
825.089	26625
825.228	26648
825.368	26339
825.508	26419
825.648	26355
825.787	26438
825.927	26438
826.067	26370
826.206	26431
826.346	26473
826.485	26492
826.625	26438
826.765	26564
826.904	26339
827.044	26210
827.183	26263
827.323	26115
827.462	26221
827.601	26164
827.741	26027
827.88	26024
828.02	26058
828.159	26210
828.298	26278
828.437	26164
828.577	26237
828.716	26183
828.855	26134
828.994	25909
829.134	25833
829.273	25951
829.412	25879
829.551	25655
829.69	25913
829.829	25917
829.968	26008
830.107	25780
830.246	25898
830.385	25734
830.524	25563
830.663	25548
830.802	25518
830.941	25449
831.08	25499
831.219	25472
831.357	25529
831.496	25685
831.635	25586
831.774	25327
831.913	25331
832.051	25331
832.19	25266
832.329	25297
832.467	25107
832.606	25095
832.744	25145
832.883	25183
833.022	25050
833.16	25019
833.299	25095
833.437	25110
833.576	25156
833.714	24977
833.852	25270
833.991	25304
834.129	25324
834.267	25141
834.406	25152
834.544	25107
834.682	25362
834.821	25244
834.959	25270
835.097	25110
835.235	25175
835.373	25103
835.511	25244
835.65	24989
835.788	25099
835.926	24886
836.064	24875
836.202	24681
836.34	25000
836.478	25168
836.615	24882
836.753	25019
836.891	25107
837.029	25122
837.167	24878
837.305	24882
837.443	24890
837.58	24886
837.718	24821
837.856	24943
837.993	24692
838.131	24791
838.269	24692
838.406	24760
838.544	24490
838.681	24445
838.819	24540
838.956	24350
839.094	24281
839.231	24418
839.369	24502
839.506	24730
839.643	24490
839.781	24323
839.918	24243
840.055	24300
840.193	24148
840.33	24201
840.467	24273
840.604	24247
840.742	24639
840.879	24098
841.016	24159
841.153	24117
841.29	24213
841.427	24148
841.564	24304
841.701	24167
841.838	24049
841.975	24057
842.112	24018
842.249	24072
842.385	23866
842.522	24197
842.659	23977
842.796	23912
842.933	23927
843.069	23832
843.206	23794
843.343	23939
843.479	23939
843.616	23817
843.752	23604
843.889	23748
844.025	23836
844.162	23809
844.298	23729
844.435	23809
844.571	23733
844.708	23794
844.844	23840
844.98	23794
845.117	23885
845.253	23676
845.389	23581
845.525	23589
845.661	23577
845.798	23246
845.934	23531
846.07	23539
846.206	23436
846.342	23695
846.478	23448
846.614	23299
846.75	23197
846.886	23109
847.022	23376
847.158	23273
847.294	23155
847.429	23299
847.565	23254
847.701	23425
847.837	22904
847.972	22881
848.108	22946
848.244	22915
848.379	22900
848.515	22839
848.65	22725
848.786	22812
848.921	22744
849.057	22854
849.192	22801
849.328	22919
849.463	22767
849.598	22740
849.734	22691
849.869	22618
850.004	22493
850.14	22569
850.275	22516
850.41	22497
850.545	22432
850.68	22428
850.815	22455
850.95	22360
851.085	22759
851.22	22634
851.355	22550
851.49	22500
851.625	22455
851.76	22459
851.895	22535
852.03	22489
852.165	22535
852.299	22592
852.434	22584
852.569	22535
852.703	22546
852.838	22607
852.973	22622
853.107	22748
853.242	22478
853.376	22204
853.511	22242
853.645	22356
853.78	22440
853.914	22325
854.048	22242
854.183	22409
854.317	22337
854.451	22497
854.585	22409
854.72	22417
854.854	22462
854.988	22234
855.122	22386
855.256	22177
855.39	22249
855.524	22417
855.658	22382
855.792	22367
855.926	22363
856.06	22417
856.194	22440
856.327	22333
856.461	22261
856.595	22287
856.729	22322
856.862	22489
856.996	22413
857.13	22428
857.263	22466
857.397	22428
857.53	22185
857.664	22409
857.797	22413
857.931	22413
858.064	22489
858.197	22569
858.331	22268
858.464	22234
858.597	22306
858.731	22398
858.864	22329
858.997	22287
859.13	22242
859.263	22421
859.396	22375
859.529	22303
859.662	22409
859.795	22360
859.928	22394
860.061	22508
860.194	22580
860.327	22478
860.46	22432
860.592	22580
860.725	22573
860.858	22618
860.99	22394
861.123	22246
861.256	22356
861.388	22253
861.521	23102
861.653	22215
861.786	22090
861.918	22204
862.05	22169
862.183	22276
862.315	22223
862.447	22310
862.58	22242
862.712	22048
862.844	22078
862.976	22131
863.108	22131
863.24	22546
863.372	21987
863.504	22040
863.636	22093
863.768	22207
863.9	22223
864.032	21876
864.164	22025
864.296	22040
864.428	22147
864.559	22109
864.691	22109
864.823	22090
864.954	22017
865.086	22105
865.217	21892
865.349	21888
865.48	21975
865.612	21964
865.743	22109
865.875	22063
866.006	21930
866.137	21827
866.269	22010
866.4	21823
866.531	21812
866.662	21854
866.793	21884
866.924	21800
867.055	21937
867.186	21774
867.317	21850
867.448	21751
867.579	21850
867.71	21774
867.841	21766
867.972	21835
868.103	21861
868.233	21915
868.364	21865
868.495	22112
868.625	22109
868.756	22169
868.886	21918
869.017	22101
869.147	22135
869.278	22344
869.408	22181
869.539	22112
869.669	22063
869.799	22188
869.929	22150
870.06	22230
870.19	22550
870.32	22382
870.45	22493
870.58	22402
870.71	22656
870.84	22641
870.97	22538
871.1	22641
871.23	22790
871.36	22759
871.489	22706
871.619	22660
871.749	22664
871.879	22713
872.008	22755
872.138	22698
872.267	22736
872.397	22519
872.526	22493
872.656	22569
872.785	22554
872.915	22763
873.044	22717
873.173	22774
873.303	22793
873.432	22774
873.561	22786
873.69	22710
873.819	22615
873.948	22881
874.077	22847
874.206	22740
874.335	22710
874.464	22771
874.593	22953
874.722	22858
874.851	22927
874.979	22976
875.108	22908
875.237	22782
875.365	22866
875.494	22980
875.623	22965
875.751	22942
875.88	22961
876.008	22999
876.136	23189
876.265	23376
876.393	23417
876.521	23486
876.65	23482
876.778	23372
876.906	23269
877.034	23231
877.162	23227
877.29	23261
877.418	23292
877.546	23376
877.674	23292
877.802	23292
877.93	23337
878.058	23311
878.185	23159
878.313	23265
878.441	23284
878.568	23014
878.696	23208
878.824	23292
878.951	23467
879.079	23444
879.206	23592
879.333	23452
879.461	23368
879.588	23436
879.715	23391
879.842	23619
879.97	23265
880.097	23090
880.224	23147
880.351	23067
880.478	23178
880.605	23029
880.732	23083
880.859	23421
880.986	23216
881.112	23231
881.239	22957
881.366	22812
881.493	22801
881.619	22706
881.746	22725
881.872	22710
881.999	22565
882.125	22702
882.252	22736
882.378	22649
882.505	22759
882.631	22668
882.757	22421
882.883	22436
883.01	22341
883.136	22287
883.262	22219
883.388	22272
883.514	22432
883.64	22443
883.766	22257
883.892	22166
884.018	22093
884.143	22261
884.269	22360
884.395	21991
884.52	22082
884.646	22082
884.772	21854
884.897	21907
885.023	22166
885.148	22051
885.274	22070
885.399	22002
885.524	22002
885.65	22051
885.775	21941
885.9	21972
886.025	22059
886.15	22002
886.275	21907
886.4	21899
886.525	21926
886.65	21918
886.775	21854
886.9	22063
887.025	22333
887.149	21979
887.274	21701
887.399	21800
887.523	21778
887.648	21709
887.773	21526
887.897	21717
888.021	21694
888.146	21652
888.27	21717
888.395	21907
888.519	21793
888.643	21724
888.767	21705
888.891	21641
889.015	21644
889.139	21564
889.263	21603
889.387	21644
889.511	21675
889.635	21641
889.759	21469
889.883	21519
890.006	21519
890.13	21644
890.254	21462
890.377	21408
890.501	21249
890.624	21279
890.748	21321
890.871	21100
890.995	21112
891.118	21146
891.241	21100
891.364	20982
891.488	21039
891.611	21116
891.734	21123
891.857	21146
891.98	21104
892.103	21165
892.226	21058
892.349	21173
892.471	20990
892.594	21036
892.717	21047
892.839	21119
892.962	20971
893.085	20971
893.207	20967
893.33	20830
893.452	20891
893.575	21062
893.697	20952
893.819	21116
893.941	21161
894.064	21154
894.186	20887
894.308	20834
894.43	21020
894.552	21093
894.674	21036
894.796	20902
894.918	20796
895.04	20921
895.161	20948
895.283	21017
895.405	20754
895.526	20941
895.648	20990
895.769	20960
895.891	21028
896.012	21104
896.134	21093
896.255	20910
896.376	20914
896.498	21051
896.619	21005
896.74	20967
896.861	21051
896.982	21363
897.103	21386
897.224	21207
897.345	21081
897.466	21108
897.587	21203
897.708	21355
897.828	21249
897.949	21184
898.07	21028
898.19	21013
898.311	21272
898.431	21127
898.552	21135
898.672	21119
898.792	21291
898.913	21150
899.033	21032
899.153	21001
899.273	20933
899.393	20941
899.513	20902
899.633	20895
899.753	20796
899.873	20815
899.993	20925
900.113	20857
900.232	21036
900.352	20739
900.472	20788
900.591	20590
900.711	20758
900.83	20598
900.95	20731
901.069	20686
901.189	20465
901.308	20324
901.427	20275
901.546	20248
901.665	20271
901.784	20237
901.904	20195
902.023	19928
902.141	19769
902.26	19818
902.379	19890
902.498	19731
902.617	19719
902.735	19784
902.854	19833
902.973	19674
903.091	19460
903.21	19362
903.328	19373
903.446	19251
903.565	19187
903.683	19061
903.801	19046
903.919	19308
904.038	19118
904.156	18954
904.274	19023
904.392	18932
904.51	18916
904.627	18932
904.745	19084
904.863	18954
904.981	18715
905.098	18639
905.216	18665
905.334	18635
905.451	18734
905.569	18479
905.686	18654
905.803	18582
905.921	18407
906.038	18521
906.155	18452
906.272	18346
906.389	18251
906.506	18254
906.623	18167
906.74	18220
906.857	18038
906.974	18007
907.091	18178
907.208	18350
907.324	18136
907.441	18186
907.557	17916
907.674	17847
907.79	17863
907.907	17901
908.023	17935
908.139	17847
908.256	17798
908.372	17726
908.488	17737
908.604	17710
908.72	17535
908.836	17497
908.952	17543
909.068	17554
909.184	17627
909.3	17642
909.415	17535
909.531	17528
909.647	17356
909.762	17337
909.878	17318
909.993	17311
910.108	17220
910.224	17185
910.339	17337
910.454	17132
910.57	17124
910.685	17010
910.8	17204
910.915	17220
911.03	16995
911.145	16923
911.259	16889
911.374	16858
911.489	16790
911.604	16721
911.718	16679
911.833	16653
911.947	16523
912.062	16455
912.176	16546
912.291	16607
912.405	16626
912.519	16816
912.633	16782
912.748	16603
912.862	16478
912.976	16470
913.09	16375
913.204	16459
913.318	16386
913.431	16531
913.545	16508
913.659	16645
913.772	16329
913.886	16215
914	16116
914.113	16272
914.226	16265
914.34	16242
914.453	16086
914.566	16192
914.68	16044
914.793	16040
914.906	15861
915.019	15823
915.132	15732
915.245	15789
915.358	15743
915.47	15812
915.583	15781
915.696	15743
915.809	15846
915.921	15869
916.034	15713
916.146	15656
916.259	15682
916.371	15720
916.483	15800
916.595	15701
916.708	15625
916.82	15587
916.932	15576
917.044	15523
917.156	15576
917.268	15435
917.38	15450
917.491	15389
917.603	15344
917.715	15405
917.826	15515
917.938	15272
918.049	15275
918.161	15264
918.272	15500
918.384	15485
918.495	15355
918.606	15199
918.717	15085
918.828	15112
918.939	15165
919.05	15055
919.161	15097
919.272	14937
919.383	14963
919.494	15146
919.604	15272
919.715	15142
919.826	14975
919.936	15051
920.047	15161
920.157	15157
920.267	15218
920.378	15116
920.488	14982
920.598	15249
920.708	15450
920.818	15146
920.928	15317
921.038	15370
921.148	15367
921.258	15024
921.368	14925
921.477	14823
921.587	14853
921.697	14663
921.806	14754
921.916	14705
922.025	14465
922.134	14393
922.244	14298
922.353	14495
922.462	14343
922.571	14404
922.68	14172
922.789	14054
922.898	14054
923.007	14084
923.116	14145
923.224	14115
923.333	14069
923.442	13989
923.55	13967
923.659	13959
923.767	13928
923.876	13894
923.984	14005
924.092	13799
924.201	13830
924.309	13940
924.417	13818
924.525	13784
924.633	13696
924.741	14670
924.849	13544
924.956	13662
925.064	13567
925.172	13525
925.279	13499
925.387	13518
925.494	13460
925.602	13575
925.709	13472
925.816	13419
925.924	13491
926.031	13544
926.138	13472
926.245	13464
926.352	13251
926.459	13464
926.566	13540
926.673	13350
926.779	13251
926.886	13194
926.993	13084
927.099	13076
927.206	12951
927.312	13019
927.419	13076
927.525	12977
927.631	13095
927.737	12954
927.843	12867
927.95	12806
928.056	12913
928.162	12901
928.267	12905
928.373	13377
928.479	12875
928.585	12662
928.69	12852
928.796	12871
928.901	12798
929.007	12563
929.112	12741
929.218	12654
929.323	12597
929.428	12540
929.533	12665
929.638	12395
929.743	12547
929.848	12509
929.953	12490
930.058	12464
930.163	12216
930.267	12239
930.372	12304
930.477	12285
930.581	12380
930.685	12304
930.79	12140
930.894	12110
930.998	12121
931.103	12247
931.207	11847
931.311	11783
931.415	11703
931.519	11566
931.623	11558
