Data from test_V78500241_940.txt Node
Date: Fri Mar 25 15:48:18 CST 2022
User: usil
Spectrometer: V785-0024
Trigger mode: 0
Integration Time (sec): 4.000000E-1
Scans to average: 1
Nonlinearity correction enabled: false
Boxcar width: 0
Storing dark spectrum: false
XAxis mode: Wavelengths
Number of Pixels in Spectrum: 1024
>>>>>Begin Spectral Data<<<<<
801.071	28733
801.214	28512
801.356	28230
801.499	28196
801.641	28200
801.783	28135
801.926	28185
802.068	28128
802.211	27991
802.353	27892
802.496	27884
802.638	27808
802.78	27800
802.923	27667
803.065	27698
803.208	27755
803.35	27842
803.492	27911
803.635	27987
803.777	27804
803.919	28196
804.061	28284
804.204	28055
804.346	28036
804.488	27911
804.63	28029
804.773	27911
804.915	27979
805.057	28078
805.199	27953
805.341	28139
805.483	28154
805.626	28063
805.768	28070
805.91	28234
806.052	28162
806.194	28067
806.336	28379
806.478	28215
806.62	28135
806.762	28379
806.904	28352
807.046	28687
807.188	28550
807.33	28573
807.472	28599
807.614	28656
807.756	28622
807.898	28573
808.04	28409
808.182	28382
808.324	28440
808.465	28573
808.607	28706
808.749	28839
808.891	28919
809.033	28976
809.174	28843
809.316	28858
809.458	28862
809.6	28835
809.741	29006
809.883	29033
810.025	29296
810.166	29200
810.308	29151
810.45	29094
810.591	29041
810.733	29098
810.875	28892
811.016	28782
811.158	28877
811.299	29067
811.441	29060
811.582	29018
811.724	28862
811.865	28919
812.007	28786
812.148	28835
812.29	28995
812.431	29064
812.573	29208
812.714	29303
812.855	29444
812.997	29577
813.138	29615
813.279	29634
813.421	29452
813.562	29478
813.703	29288
813.845	29223
813.986	28968
814.127	28489
814.268	28580
814.41	28687
814.551	28573
814.692	28599
814.833	28786
814.974	28573
815.115	28599
815.256	28561
815.397	28382
815.539	28440
815.68	28432
815.821	28360
815.962	28386
816.103	28306
816.244	28401
816.385	28120
816.526	28120
816.666	28082
816.807	27960
816.948	28074
817.089	28002
817.23	27907
817.371	27918
817.512	27922
817.653	27797
817.793	27850
817.934	27987
818.075	27899
818.216	27926
818.356	27968
818.497	27770
818.638	27583
818.778	27675
818.919	27462
819.06	27720
819.2	27804
819.341	27964
819.481	27895
819.622	28112
819.762	28295
819.903	28162
820.043	28109
820.184	28021
820.324	27998
820.465	28086
820.605	28036
820.746	27895
820.886	27903
821.026	27956
821.167	27994
821.307	28067
821.447	27968
821.588	27892
821.728	27770
821.868	27557
822.008	27325
822.149	27412
822.289	27294
822.429	27237
822.569	27070
822.709	27051
822.849	27020
822.99	26906
823.13	26800
823.27	26853
823.41	26629
823.55	26598
823.69	26693
823.83	26735
823.97	26701
824.11	26476
824.25	26579
824.389	26549
824.529	26701
824.669	26518
824.809	26750
824.949	26632
825.089	26587
825.228	26629
825.368	26374
825.508	26450
825.648	26473
825.787	26393
825.927	26507
826.067	26408
826.206	26423
826.346	26473
826.485	26594
826.625	26389
826.765	26625
826.904	26537
827.044	26199
827.183	26332
827.323	26103
827.462	26134
827.601	26153
827.741	26050
827.88	26164
828.02	26122
828.159	26126
828.298	26263
828.437	26240
828.577	26092
828.716	26271
828.855	26084
828.994	25818
829.134	25864
829.273	25997
829.412	25795
829.551	25875
829.69	25849
829.829	25906
829.968	25849
830.107	25898
830.246	25761
830.385	25750
830.524	25590
830.663	25590
830.802	25434
830.941	25479
831.08	25415
831.219	25483
831.357	25586
831.496	25666
831.635	25518
831.774	25457
831.913	25312
832.051	25327
832.19	25350
832.329	25327
832.467	25126
832.606	25114
832.744	25107
832.883	25046
833.022	25069
833.16	25129
833.299	25088
833.437	25270
833.576	25228
833.714	25278
833.852	25297
833.991	25244
834.129	25141
834.267	25263
834.406	25057
834.544	25259
834.682	25190
834.821	25168
834.959	25373
835.097	25072
835.235	25183
835.373	25171
835.511	25057
835.65	25061
835.788	24977
835.926	24951
836.064	24856
836.202	24909
836.34	24977
836.478	25129
836.615	24932
836.753	24989
836.891	25126
837.029	24962
837.167	24871
837.305	24932
837.443	24863
837.58	24833
837.718	24920
837.856	24802
837.993	24882
838.131	24817
838.269	24741
838.406	24673
838.544	24665
838.681	24544
838.819	24433
838.956	24277
839.094	24201
839.231	24407
839.369	24623
839.506	24658
839.643	24544
839.781	24369
839.918	24243
840.055	24315
840.193	24182
840.33	24163
840.467	24224
840.604	24266
840.742	24582
840.879	24030
841.016	24102
841.153	24079
841.29	24300
841.427	24117
841.564	24239
841.701	24235
841.838	24178
841.975	24125
842.112	24270
842.249	24018
842.385	24041
842.522	24270
842.659	24121
842.796	24030
842.933	23980
843.069	23859
843.206	23939
843.343	23942
843.479	24022
843.616	24030
843.752	23718
843.889	23722
844.025	23805
844.162	23657
844.298	23824
844.435	23680
844.571	23646
844.708	23748
844.844	23863
844.98	23863
845.117	23779
845.253	23657
845.389	23699
845.525	23710
845.661	23623
845.798	23383
845.934	23505
846.07	23463
846.206	23452
846.342	23528
846.478	23330
846.614	23372
846.75	23102
846.886	23136
847.022	23212
847.158	23128
847.294	23071
847.429	23189
847.565	23094
847.701	23402
847.837	22839
847.972	22957
848.108	23052
848.244	23006
848.379	22862
848.515	22778
848.65	22755
848.786	22805
848.921	22740
849.057	22919
849.192	22889
849.328	22725
849.463	22793
849.598	22679
849.734	22546
849.869	22637
850.004	22519
850.14	22615
850.275	22618
850.41	22466
850.545	22550
850.68	22531
850.815	22493
850.95	22527
851.085	22698
851.22	22687
851.355	22428
851.49	22493
851.625	22497
851.76	22413
851.895	22443
852.03	22470
852.165	22516
852.299	22569
852.434	22550
852.569	22459
852.703	22554
852.838	22561
852.973	22649
853.107	22618
853.242	22352
853.376	22341
853.511	22249
853.645	22177
853.78	22421
853.914	22500
854.048	22348
854.183	22432
854.317	22390
854.451	22398
854.585	22379
854.72	22322
854.854	22417
854.988	22223
855.122	22424
855.256	22265
855.39	22428
855.524	22428
855.658	22371
855.792	22413
855.926	22348
856.06	22325
856.194	22405
856.327	22371
856.461	22211
856.595	22276
856.729	22489
856.862	22284
856.996	22382
857.13	22390
857.263	22436
857.397	22413
857.53	22375
857.664	22352
857.797	22436
857.931	22337
858.064	22417
858.197	22367
858.331	22421
858.464	22356
858.597	22226
858.731	22356
858.864	22341
858.997	22402
859.13	22348
859.263	22341
859.396	22504
859.529	22337
859.662	22360
859.795	22337
859.928	22394
860.061	22443
860.194	22542
860.327	22417
860.46	22333
860.592	22371
860.725	22538
860.858	22538
860.99	22344
861.123	22238
861.256	22337
861.388	22333
861.521	22946
861.653	22150
861.786	22093
861.918	22310
862.05	22131
862.183	22329
862.315	22257
862.447	22405
862.58	22242
862.712	22025
862.844	22006
862.976	22253
863.108	22154
863.24	22337
863.372	21934
863.504	22105
863.636	22051
863.768	22101
863.9	21930
864.032	22006
864.164	22067
864.296	22025
864.428	22200
864.559	22192
864.691	22032
864.823	22017
864.954	21979
865.086	21930
865.217	21850
865.349	21701
865.48	21949
865.612	22002
865.743	22059
865.875	21850
866.006	21915
866.137	21937
866.269	21842
866.4	21934
866.531	21800
866.662	21854
866.793	21876
866.924	21850
867.055	21949
867.186	21819
867.317	21747
867.448	21816
867.579	21838
867.71	21728
867.841	21766
867.972	21865
868.103	21899
868.233	21895
868.364	21911
868.495	21876
868.625	22112
868.756	22166
868.886	22040
869.017	22131
869.147	22230
869.278	22238
869.408	22135
869.539	22109
869.669	22131
869.799	22131
869.929	22169
870.06	22131
870.19	22554
870.32	22341
870.45	22371
870.58	22447
870.71	22561
870.84	22512
870.97	22493
871.1	22478
871.23	22668
871.36	22599
871.489	22592
871.619	22675
871.749	22713
871.879	22729
872.008	22767
872.138	22675
872.267	22721
872.397	22508
872.526	22440
872.656	22443
872.785	22512
872.915	22809
873.044	22763
873.173	22721
873.303	22923
873.432	22744
873.561	22748
873.69	22748
873.819	22786
873.948	22915
874.077	22698
874.206	22653
874.335	22733
874.464	22725
874.593	22801
874.722	22938
874.851	23037
874.979	22767
875.108	22980
875.237	23041
875.365	22831
875.494	22896
875.623	22904
875.751	22858
875.88	22919
876.008	22949
876.136	23174
876.265	23341
876.393	23421
876.521	23337
876.65	23471
876.778	23216
876.906	23189
877.034	23261
877.162	23185
877.29	23303
877.418	23341
877.546	23181
877.674	23307
877.802	23269
877.93	23117
878.058	23197
878.185	23254
878.313	23136
878.441	23235
878.568	23056
878.696	23113
878.824	23258
878.951	23250
879.079	23303
879.206	23467
879.333	23467
879.461	23444
879.588	23402
879.715	23436
879.842	23539
879.97	23273
880.097	23185
880.224	22946
880.351	23117
880.478	23067
880.605	23185
880.732	23143
880.859	23395
880.986	22927
881.112	23010
881.239	23037
881.366	22778
881.493	22729
881.619	22637
881.746	22653
881.872	22725
881.999	22694
882.125	22455
882.252	22721
882.378	22523
882.505	22660
882.631	22584
882.757	22386
882.883	22428
883.01	22310
883.136	22181
883.262	22242
883.388	22124
883.514	22447
883.64	22337
883.766	22242
883.892	22017
884.018	22105
884.143	22192
884.269	22356
884.395	22059
884.52	21930
884.646	21964
884.772	21842
884.897	21816
885.023	22063
885.148	22006
885.274	22044
885.399	21915
885.524	21903
885.65	22063
885.775	21892
885.9	21968
886.025	22120
886.15	22105
886.275	21956
886.4	21842
886.525	21953
886.65	21774
886.775	21854
886.9	22032
887.025	22124
887.149	21972
887.274	21869
887.399	21641
887.523	21603
887.648	21660
887.773	21759
887.897	21759
888.021	21797
888.146	21572
888.27	21842
888.395	21808
888.519	21854
888.643	21762
888.767	21800
888.891	21675
889.015	21515
889.139	21530
889.263	21481
889.387	21580
889.511	21583
889.635	21690
889.759	21488
889.883	21462
890.006	21431
890.13	21595
890.254	21439
890.377	21393
890.501	21127
890.624	21169
890.748	21268
890.871	21081
890.995	21100
891.118	21039
891.241	21119
891.364	21077
891.488	21241
891.611	20941
891.734	21070
891.857	21066
891.98	21123
892.103	21112
892.226	21028
892.349	21039
892.471	20830
892.594	20937
892.717	21013
892.839	21024
892.962	21017
893.085	21032
893.207	21013
893.33	20849
893.452	21024
893.575	20990
893.697	20956
893.819	21055
893.941	21131
894.064	21043
894.186	20842
894.308	20944
894.43	21032
894.552	21112
894.674	21032
894.796	20823
894.918	20895
895.04	20895
895.161	20910
895.283	21020
895.405	20887
895.526	20838
895.648	20796
895.769	20899
895.891	20902
896.012	21001
896.134	21009
896.255	20899
896.376	20876
896.498	20857
896.619	20956
896.74	20975
896.861	20914
896.982	21214
897.103	21325
897.224	21096
897.345	21150
897.466	21017
897.587	21119
897.708	21291
897.828	21104
897.949	21032
898.07	20941
898.19	21138
898.311	21241
898.431	21017
898.552	21104
898.672	21218
898.792	21272
898.913	21135
899.033	20933
899.153	20975
899.273	20823
899.393	20811
899.513	20826
899.633	20823
899.753	20857
899.873	20746
899.993	20796
900.113	20796
900.232	20705
900.352	20739
900.472	20739
900.591	20697
900.711	20636
900.83	20552
900.95	20750
901.069	20701
901.189	20583
901.308	20358
901.427	20172
901.546	20259
901.665	20240
901.784	20206
901.904	20191
902.023	19993
902.141	19860
902.26	19731
902.379	19883
902.498	19791
902.617	19738
902.735	19811
902.854	19712
902.973	19624
903.091	19358
903.21	19324
903.328	19297
903.446	19175
903.565	19015
903.683	19168
903.801	19008
903.919	19190
904.038	19190
904.156	18932
904.274	18970
904.392	18993
904.51	18878
904.627	18973
904.745	19000
904.863	19008
904.981	18768
905.098	18642
905.216	18684
905.334	18544
905.451	18715
905.569	18464
905.686	18566
905.803	18673
905.921	18452
906.038	18513
906.155	18467
906.272	18308
906.389	18346
906.506	18125
906.623	18148
906.74	18117
906.857	17999
906.974	18038
907.091	18281
907.208	18266
907.324	18129
907.441	17999
907.557	17840
907.674	17775
907.79	17748
907.907	17805
908.023	17874
908.139	17718
908.256	17783
908.372	17779
908.488	17699
908.604	17657
908.72	17490
908.836	17512
908.952	17512
909.068	17535
909.184	17672
909.3	17608
909.415	17520
909.531	17551
909.647	17307
909.762	17273
909.878	17208
909.993	17258
910.108	17212
910.224	17242
910.339	17185
910.454	17151
910.57	17094
910.685	16995
910.8	17178
910.915	17220
911.03	17094
911.145	16828
911.259	16927
911.374	16881
911.489	16740
911.604	16634
911.718	16577
911.833	16611
911.947	16554
912.062	16478
912.176	16527
912.291	16497
912.405	16527
912.519	16733
912.633	16805
912.748	16550
912.862	16508
912.976	16405
913.09	16249
913.204	16265
913.318	16333
913.431	16375
913.545	16440
913.659	16489
913.772	16451
913.886	16257
914	16158
914.113	16253
914.226	16333
914.34	16272
914.453	16044
914.566	16188
914.68	16067
914.793	15975
914.906	15804
915.019	15857
915.132	15785
915.245	15660
915.358	15876
915.47	15789
915.583	15812
915.696	15819
915.809	15884
915.921	15888
916.034	15675
916.146	15705
916.259	15625
916.371	15717
916.483	15690
916.595	15561
916.708	15553
916.82	15595
916.932	15443
917.044	15447
917.156	15466
917.268	15412
917.38	15355
917.491	15351
917.603	15408
917.715	15523
917.826	15515
917.938	15275
918.049	15192
918.161	15302
918.272	15405
918.384	15401
918.495	15233
918.606	15165
918.717	15058
918.828	15085
918.939	15157
919.05	15108
919.161	15112
919.272	14925
919.383	14902
919.494	15074
919.604	15359
919.715	15112
919.826	14963
919.936	15062
920.047	15009
920.157	15081
920.267	15302
920.378	15066
920.488	15001
920.598	15214
920.708	15374
920.818	15226
920.928	15230
921.038	15412
921.148	15291
921.258	15032
921.368	14937
921.477	14868
921.587	14895
921.697	14655
921.806	14868
921.916	14579
922.025	14442
922.134	14484
922.244	14358
922.353	14533
922.462	14301
922.571	14248
922.68	14031
922.789	14031
922.898	14035
923.007	14065
923.116	14069
923.224	14001
923.333	13978
923.442	14001
923.55	13799
923.659	13902
923.767	13974
923.876	13841
923.984	13860
924.092	13814
924.201	13833
924.309	13723
924.417	13811
924.525	13715
924.633	13715
924.741	14568
924.849	13563
924.956	13734
925.064	13537
925.172	13365
925.279	13419
925.387	13445
925.494	13502
925.602	13491
925.709	13491
925.816	13434
925.924	13388
926.031	13460
926.138	13400
926.245	13445
926.352	13312
926.459	13377
926.566	13472
926.673	13297
926.779	13175
926.886	13202
926.993	13072
927.099	13000
927.206	12962
927.312	12916
927.419	13012
927.525	12905
927.631	13031
927.737	12981
927.843	12867
927.95	12662
928.056	12867
928.162	12810
928.267	12954
928.373	13324
928.479	12859
928.585	12574
928.69	12768
928.796	12837
928.901	12627
929.007	12486
929.112	12673
929.218	12654
929.323	12684
929.428	12566
929.533	12722
929.638	12509
929.743	12494
929.848	12536
929.953	12536
930.058	12437
930.163	12224
930.267	12209
930.372	12388
930.477	12175
930.581	12384
930.685	12270
930.79	12083
930.894	12277
930.998	12106
931.103	12178
931.207	11992
931.311	11794
931.415	11726
931.519	11490
931.623	11459
