Data from test_V78500241_279.txt Node
Date: Fri Mar 25 15:43:44 CST 2022
User: usil
Spectrometer: V785-0024
Trigger mode: 0
Integration Time (sec): 4.000000E-1
Scans to average: 1
Nonlinearity correction enabled: false
Boxcar width: 0
Storing dark spectrum: false
XAxis mode: Wavelengths
Number of Pixels in Spectrum: 1024
>>>>>Begin Spectral Data<<<<<
801.071	29843
801.214	29748
801.356	29505
801.499	29581
801.641	29429
801.783	29406
801.926	29493
802.068	29364
802.211	29311
802.353	29265
802.496	29166
802.638	29060
802.78	29086
802.923	28980
803.065	29006
803.208	29071
803.35	28999
803.492	29075
803.635	29220
803.777	28980
803.919	29284
804.061	29490
804.204	29242
804.346	29105
804.488	29071
804.63	29178
804.773	28976
804.915	29235
805.057	29239
805.199	29174
805.341	29414
805.483	29425
805.626	29387
805.768	29132
805.91	29311
806.052	29212
806.194	29239
806.336	29558
806.478	29288
806.62	29311
806.762	29387
806.904	29627
807.046	29923
807.188	29729
807.33	29809
807.472	29912
807.614	29729
807.756	29737
807.898	29535
808.04	29444
808.182	29516
808.324	29425
808.465	29535
808.607	29623
808.749	29832
808.891	30117
809.033	30041
809.174	29950
809.316	29889
809.458	29885
809.6	29779
809.741	29893
809.883	30091
810.025	30152
810.166	30232
810.308	30171
810.45	30060
810.591	30121
810.733	30072
810.875	30018
811.016	29817
811.158	29832
811.299	29836
811.441	30247
811.582	30091
811.724	29802
811.865	30011
812.007	30011
812.148	30125
812.29	29999
812.431	30125
812.573	30334
812.714	30460
812.855	30448
812.997	30525
813.138	30654
813.279	30612
813.421	30589
813.562	30441
813.703	30327
813.845	30068
813.986	29862
814.127	29676
814.268	29764
814.41	29638
814.551	29524
814.692	29604
814.833	29516
814.974	29566
815.115	29687
815.256	29482
815.397	29410
815.539	29455
815.68	29433
815.821	29246
815.962	29368
816.103	29349
816.244	29326
816.385	29185
816.526	29098
816.666	28961
816.807	28888
816.948	28877
817.089	28915
817.23	28885
817.371	28854
817.512	28885
817.653	28729
817.793	28805
817.934	28809
818.075	28672
818.216	28778
818.356	28615
818.497	28691
818.638	28596
818.778	28596
818.919	28493
819.06	28557
819.2	28752
819.341	28744
819.481	28672
819.622	28790
819.762	29121
819.903	29086
820.043	28953
820.184	28923
820.324	28968
820.465	29075
820.605	28820
820.746	28782
820.886	28706
821.026	28767
821.167	28717
821.307	28892
821.447	28923
821.588	28656
821.728	28455
821.868	28325
822.008	28200
822.149	28131
822.289	28006
822.429	27880
822.569	27876
822.709	27876
822.849	27572
822.99	27690
823.13	27667
823.27	27671
823.41	27367
823.55	27344
823.69	27435
823.83	27500
823.97	27424
824.11	27291
824.25	27355
824.389	27321
824.529	27378
824.669	27359
824.809	27325
824.949	27264
825.089	27367
825.228	27157
825.368	27077
825.508	27077
825.648	27252
825.787	27211
825.927	27165
826.067	27230
826.206	26956
826.346	27256
826.485	27157
826.625	26979
826.765	27161
826.904	27157
827.044	26937
827.183	26902
827.323	26701
827.462	26864
827.601	26944
827.741	26845
827.88	26876
828.02	26697
828.159	26674
828.298	26826
828.437	26811
828.577	26655
828.716	26811
828.855	26910
828.994	26564
829.134	26484
829.273	26541
829.412	26499
829.551	26355
829.69	26313
829.829	26556
829.968	26545
830.107	26503
830.246	26351
830.385	26339
830.524	26313
830.663	26263
830.802	26172
830.941	25955
831.08	26005
831.219	26195
831.357	26103
831.496	26164
831.635	26077
831.774	25925
831.913	26016
832.051	25693
832.19	25704
832.329	25845
832.467	25662
832.606	25708
832.744	25597
832.883	25609
833.022	25601
833.16	25723
833.299	25818
833.437	25693
833.576	25776
833.714	25635
833.852	25795
833.991	25677
834.129	25639
834.267	25772
834.406	25620
834.544	25864
834.682	25594
834.821	25624
834.959	25791
835.097	25594
835.235	25605
835.373	25620
835.511	25601
835.65	25430
835.788	25590
835.926	25377
836.064	25407
836.202	25430
836.34	25540
836.478	25605
836.615	25422
836.753	25453
836.891	25715
837.029	25441
837.167	25506
837.305	25518
837.443	25274
837.58	25384
837.718	25335
837.856	25251
837.993	25297
838.131	25263
838.269	25255
838.406	25327
838.544	25050
838.681	24913
838.819	24924
838.956	24795
839.094	24768
839.231	24779
839.369	24951
839.506	25114
839.643	24920
839.781	24627
839.918	24703
840.055	24722
840.193	24688
840.33	24574
840.467	24707
840.604	24669
840.742	24943
840.879	24547
841.016	24627
841.153	24582
841.29	24688
841.427	24502
841.564	24650
841.701	24452
841.838	24578
841.975	24471
842.112	24582
842.249	24403
842.385	24315
842.522	24521
842.659	24460
842.796	24262
842.933	24350
843.069	24155
843.206	24251
843.343	24285
843.479	24273
843.616	24262
843.752	23992
843.889	24121
844.025	24273
844.162	24026
844.298	24129
844.435	24144
844.571	23988
844.708	24136
844.844	24064
844.98	24224
845.117	24079
845.253	23931
845.389	24022
845.525	23954
845.661	23863
845.798	23836
845.934	23783
846.07	23695
846.206	23718
846.342	23817
846.478	23790
846.614	23585
846.75	23429
846.886	23440
847.022	23398
847.158	23547
847.294	23353
847.429	23539
847.565	23512
847.701	23608
847.837	23246
847.972	23197
848.108	23326
848.244	23265
848.379	23079
848.515	23006
848.65	23037
848.786	22991
848.921	23113
849.057	23151
849.192	23132
849.328	23117
849.463	22938
849.598	23003
849.734	22805
849.869	22919
850.004	22793
850.14	22786
850.275	22843
850.41	22778
850.545	22885
850.68	22812
850.815	22850
850.95	22828
851.085	22850
851.22	22961
851.355	22683
851.49	22668
851.625	22812
851.76	22801
851.895	22675
852.03	22554
852.165	22736
852.299	22755
852.434	22885
852.569	22717
852.703	22771
852.838	22835
852.973	22850
853.107	22900
853.242	22672
853.376	22596
853.511	22470
853.645	22542
853.78	22538
853.914	22634
854.048	22611
854.183	22516
854.317	22668
854.451	22744
854.585	22516
854.72	22615
854.854	22679
854.988	22527
855.122	22531
855.256	22519
855.39	22519
855.524	22672
855.658	22550
855.792	22599
855.926	22626
856.06	22656
856.194	22622
856.327	22542
856.461	22489
856.595	22493
856.729	22455
856.862	22599
856.996	22618
857.13	22675
857.263	22584
857.397	22710
857.53	22538
857.664	22508
857.797	22637
857.931	22710
858.064	22569
858.197	22584
858.331	22577
858.464	22398
858.597	22390
858.731	22459
858.864	22348
858.997	22489
859.13	22577
859.263	22489
859.396	22592
859.529	22497
859.662	22417
859.795	22424
859.928	22512
860.061	22577
860.194	22752
860.327	22531
860.46	22447
860.592	22683
860.725	22592
860.858	22668
860.99	22474
861.123	22409
861.256	22409
861.388	22504
861.521	23136
861.653	22443
861.786	22204
861.918	22371
862.05	22440
862.183	22405
862.315	22497
862.447	22440
862.58	22409
862.712	22261
862.844	22306
862.976	22352
863.108	22303
863.24	22531
863.372	22105
863.504	22188
863.636	22162
863.768	22207
863.9	22124
864.032	22112
864.164	22051
864.296	22226
864.428	22310
864.559	22173
864.691	22325
864.823	22090
864.954	22097
865.086	22177
865.217	22044
865.349	22051
865.48	22143
865.612	22112
865.743	22090
865.875	22036
866.006	22048
866.137	21949
866.269	21968
866.4	22169
866.531	21934
866.662	21907
866.793	22006
866.924	22040
867.055	21964
867.186	21956
867.317	21998
867.448	21941
867.579	22006
867.71	21823
867.841	21854
867.972	21994
868.103	22002
868.233	22063
868.364	21972
868.495	22082
868.625	22181
868.756	22219
868.886	22177
869.017	22215
869.147	22128
869.278	22276
869.408	22238
869.539	22211
869.669	22356
869.799	22131
869.929	22379
870.06	22246
870.19	22550
870.32	22512
870.45	22531
870.58	22611
870.71	22683
870.84	22736
870.97	22694
871.1	22592
871.23	22721
871.36	22774
871.489	22687
871.619	22778
871.749	22797
871.879	22831
872.008	22816
872.138	22816
872.267	22767
872.397	22649
872.526	22649
872.656	22580
872.785	22672
872.915	22797
873.044	22812
873.173	22885
873.303	22824
873.432	22889
873.561	22843
873.69	22858
873.819	22843
873.948	22843
874.077	22850
874.206	22850
874.335	22774
874.464	22976
874.593	23117
874.722	23052
874.851	23159
874.979	23117
875.108	23208
875.237	23090
875.365	22904
875.494	23029
875.623	23094
875.751	22980
875.88	23044
876.008	23136
876.136	23227
876.265	23398
876.393	23646
876.521	23440
876.65	23406
876.778	23463
876.906	23383
877.034	23387
877.162	23493
877.29	23356
877.418	23406
877.546	23429
877.674	23387
877.802	23334
877.93	23406
878.058	23303
878.185	23296
878.313	23353
878.441	23379
878.568	23159
878.696	23334
878.824	23429
878.951	23531
879.079	23596
879.206	23509
879.333	23577
879.461	23436
879.588	23520
879.715	23455
879.842	23668
879.97	23364
880.097	23261
880.224	23216
880.351	23227
880.478	23098
880.605	23227
880.732	23048
880.859	23402
880.986	23303
881.112	23250
881.239	23010
881.366	22908
881.493	22949
881.619	22869
881.746	22809
881.872	22797
881.999	22729
882.125	22694
882.252	22801
882.378	22668
882.505	22839
882.631	22664
882.757	22478
882.883	22455
883.01	22497
883.136	22390
883.262	22276
883.388	22162
883.514	22375
883.64	22470
883.766	22291
883.892	22124
884.018	22173
884.143	22428
884.269	22386
884.395	22147
884.52	22246
884.646	22192
884.772	21975
884.897	22021
885.023	21991
885.148	22284
885.274	22200
885.399	22116
885.524	22074
885.65	22120
885.775	22051
885.9	21998
886.025	22109
886.15	22013
886.275	22078
886.4	22025
886.525	22002
886.65	22044
886.775	21972
886.9	22150
887.025	22268
887.149	22002
887.274	22002
887.399	21819
887.523	21774
887.648	21918
887.773	21690
887.897	21884
888.021	21915
888.146	21648
888.27	21854
888.395	21907
888.519	21850
888.643	21846
888.767	21888
888.891	21751
889.015	21610
889.139	21564
889.263	21633
889.387	21778
889.511	21823
889.635	21671
889.759	21561
889.883	21587
890.006	21477
890.13	21614
890.254	21515
890.377	21477
890.501	21348
890.624	21359
890.748	21370
890.871	21211
890.995	21131
891.118	21150
891.241	21081
891.364	21176
891.488	21188
891.611	21131
891.734	21188
891.857	21211
891.98	21108
892.103	21146
892.226	21127
892.349	21195
892.471	20979
892.594	21142
892.717	21001
892.839	21032
892.962	21005
893.085	21127
893.207	21024
893.33	20941
893.452	20796
893.575	21036
893.697	21036
893.819	21096
893.941	21249
894.064	21218
894.186	20925
894.308	20944
894.43	21222
894.552	21184
894.674	21123
894.796	20971
894.918	20937
895.04	21032
895.161	21020
895.283	21127
895.405	20914
895.526	21009
895.648	20937
895.769	21138
895.891	21013
896.012	21150
896.134	21112
896.255	20998
896.376	20971
896.498	21005
896.619	21150
896.74	21013
896.861	21142
896.982	21447
897.103	21443
897.224	21336
897.345	21272
897.466	21272
897.587	21173
897.708	21313
897.828	21317
897.949	21233
898.07	21104
898.19	21173
898.311	21245
898.431	21268
898.552	21184
898.672	21252
898.792	21355
898.913	21260
899.033	21112
899.153	21017
899.273	20929
899.393	20960
899.513	21013
899.633	20929
899.753	20857
899.873	20750
899.993	20933
900.113	20765
900.232	20876
900.352	20868
900.472	20708
900.591	20571
900.711	20724
900.83	20575
900.95	20758
901.069	20769
901.189	20632
901.308	20404
901.427	20233
901.546	20294
901.665	20282
901.784	20294
901.904	20142
902.023	20012
902.141	19921
902.26	19708
902.379	19875
902.498	19723
902.617	19681
902.735	19791
902.854	19765
902.973	19647
903.091	19514
903.21	19434
903.328	19396
903.446	19392
903.565	19225
903.683	19187
903.801	19099
903.919	19129
904.038	19099
904.156	18920
904.274	18981
904.392	18977
904.51	18901
904.627	18909
904.745	19103
904.863	18996
904.981	18783
905.098	18677
905.216	18597
905.334	18688
905.451	18582
905.569	18566
905.686	18574
905.803	18623
905.921	18403
906.038	18612
906.155	18433
906.272	18384
906.389	18391
906.506	18152
906.623	18121
906.74	18095
906.857	18057
906.974	18053
907.091	18182
907.208	18079
907.324	18121
907.441	18079
907.557	17779
907.674	17767
907.79	17729
907.907	17771
908.023	17859
908.139	17824
908.256	17775
908.372	17703
908.488	17653
908.604	17600
908.72	17425
908.836	17551
908.952	17493
909.068	17539
909.184	17585
909.3	17379
909.415	17474
909.531	17440
909.647	17170
909.762	17292
909.878	17185
909.993	17231
910.108	17128
910.224	17189
910.339	17140
910.454	17083
910.57	16995
910.685	16923
910.8	17075
910.915	17174
911.03	17003
911.145	16934
911.259	16828
911.374	16767
911.489	16782
911.604	16603
911.718	16527
911.833	16504
911.947	16367
912.062	16379
912.176	16462
912.291	16577
912.405	16596
912.519	16793
912.633	16721
912.748	16504
912.862	16417
912.976	16394
913.09	16093
913.204	16257
913.318	16226
913.431	16341
913.545	16322
913.659	16333
913.772	16280
913.886	16120
914	16010
914.113	16173
914.226	16242
914.34	16071
914.453	16048
914.566	16097
914.68	15960
914.793	15964
914.906	15766
915.019	15747
915.132	15766
915.245	15698
915.358	15701
915.47	15694
915.583	15762
915.696	15766
915.809	15903
915.921	15865
916.034	15656
916.146	15466
916.259	15492
916.371	15705
916.483	15614
916.595	15504
916.708	15542
916.82	15462
916.932	15504
917.044	15420
917.156	15435
917.268	15268
917.38	15332
917.491	15283
917.603	15344
917.715	15374
917.826	15431
917.938	15161
918.049	15203
918.161	15291
918.272	15405
918.384	15401
918.495	15169
918.606	14982
918.717	15005
918.828	15001
918.939	15127
919.05	14971
919.161	14937
919.272	14811
919.383	14796
919.494	15104
919.604	15146
919.715	15066
919.826	14937
919.936	14952
920.047	14956
920.157	14960
920.267	15169
920.378	15089
920.488	14895
920.598	15260
920.708	15317
920.818	15020
920.928	15108
921.038	15260
921.148	15157
921.258	14921
921.368	14796
921.477	14701
921.587	14727
921.697	14579
921.806	14758
921.916	14613
922.025	14446
922.134	14317
922.244	14294
922.353	14339
922.462	14180
922.571	14180
922.68	14001
922.789	13894
922.898	14039
923.007	13925
923.116	14065
923.224	13902
923.333	13936
923.442	13830
923.55	13795
923.659	13761
923.767	13795
923.876	13708
923.984	13753
924.092	13605
924.201	13624
924.309	13715
924.417	13674
924.525	13590
924.633	13491
924.741	14454
924.849	13419
924.956	13601
925.064	13381
925.172	13236
925.279	13369
925.387	13430
925.494	13369
925.602	13506
925.709	13491
925.816	13350
925.924	13266
926.031	13354
926.138	13270
926.245	13396
926.352	13198
926.459	13339
926.566	13244
926.673	13266
926.779	13031
926.886	13095
926.993	12985
927.099	12905
927.206	12863
927.312	12894
927.419	13027
927.525	12776
927.631	12878
927.737	12802
927.843	12745
927.95	12623
928.056	12719
928.162	12722
928.267	12726
928.373	13331
928.479	12711
928.585	12532
928.69	12719
928.796	12662
928.901	12551
929.007	12467
929.112	12589
929.218	12441
929.323	12414
929.428	12380
929.533	12601
929.638	12361
929.743	12384
929.848	12384
929.953	12391
930.058	12258
930.163	12072
930.267	12152
930.372	12235
930.477	12022
930.581	12262
930.685	12129
930.79	11996
930.894	12034
930.998	11927
931.103	11939
931.207	11722
931.311	11634
931.415	11520
931.519	11395
931.623	11334
