Data from test_V78500241_1039.txt Node
Date: Fri Mar 25 15:48:59 CST 2022
User: usil
Spectrometer: V785-0024
Trigger mode: 0
Integration Time (sec): 4.000000E-1
Scans to average: 1
Nonlinearity correction enabled: false
Boxcar width: 0
Storing dark spectrum: false
XAxis mode: Wavelengths
Number of Pixels in Spectrum: 1024
>>>>>Begin Spectral Data<<<<<
801.071	27713
801.214	27538
801.356	27378
801.499	27218
801.641	27085
801.783	27207
801.926	27237
802.068	27180
802.211	27135
802.353	27066
802.496	26834
802.638	26853
802.78	26716
802.923	26868
803.065	26830
803.208	26765
803.35	26743
803.492	26861
803.635	27127
803.777	26849
803.919	27157
804.061	27264
804.204	27123
804.346	26910
804.488	26868
804.63	26982
804.773	26876
804.915	26842
805.057	27017
805.199	27020
805.341	26960
805.483	27161
805.626	27043
805.768	27009
805.91	27138
806.052	27169
806.194	27100
806.336	27256
806.478	27218
806.62	27230
806.762	27268
806.904	27340
807.046	27606
807.188	27469
807.33	27500
807.472	27766
807.614	27511
807.756	27599
807.898	27481
808.04	27382
808.182	27408
808.324	27416
808.465	27374
808.607	27637
808.749	27663
808.891	27797
809.033	27934
809.174	27884
809.316	27762
809.458	27785
809.6	27709
809.741	27911
809.883	28051
810.025	28013
810.166	28025
810.308	28078
810.45	28010
810.591	28044
810.733	27766
810.875	27827
811.016	27686
811.158	27618
811.299	27854
811.441	27880
811.582	27983
811.724	27873
811.865	27854
812.007	27690
812.148	27762
812.29	27827
812.431	27937
812.573	28086
812.714	28150
812.855	28287
812.997	28234
813.138	28672
813.279	28390
813.421	28276
813.562	28249
813.703	28040
813.845	27987
813.986	27713
814.127	27458
814.268	27462
814.41	27595
814.551	27431
814.692	27568
814.833	27397
814.974	27249
815.115	27401
815.256	27317
815.397	27245
815.539	27462
815.68	27146
815.821	27184
815.962	27138
816.103	27283
816.244	27222
816.385	26933
816.526	27017
816.666	26842
816.807	26826
816.948	26705
817.089	26929
817.23	26720
817.371	26792
817.512	26708
817.653	26636
817.793	26640
817.934	26629
818.075	26743
818.216	26735
818.356	26754
818.497	26530
818.638	26552
818.778	26446
818.919	26473
819.06	26537
819.2	26636
819.341	26667
819.481	26727
819.622	26861
819.762	27062
819.903	26925
820.043	26914
820.184	26838
820.324	26788
820.465	26880
820.605	26750
820.746	26845
820.886	26758
821.026	26769
821.167	26735
821.307	26773
821.447	26857
821.588	26667
821.728	26495
821.868	26480
822.008	26214
822.149	26195
822.289	26092
822.429	25902
822.569	25959
822.709	25795
822.849	25624
822.99	25643
823.13	25715
823.27	25799
823.41	25457
823.55	25403
823.69	25582
823.83	25601
823.97	25624
824.11	25225
824.25	25225
824.389	25293
824.529	25445
824.669	25327
824.809	25457
824.949	25259
825.089	25476
825.228	25339
825.368	25202
825.508	25240
825.648	25183
825.787	25369
825.927	25236
826.067	25122
826.206	25179
826.346	25228
826.485	25278
826.625	25187
826.765	25426
826.904	25263
827.044	25008
827.183	24962
827.323	24837
827.462	24920
827.601	25027
827.741	24943
827.88	24852
828.02	24749
828.159	24909
828.298	25076
828.437	24935
828.577	24844
828.716	25000
828.855	24844
828.994	24661
829.134	24650
829.273	24646
829.412	24570
829.551	24513
829.69	24616
829.829	24623
829.968	24772
830.107	24536
830.246	24574
830.385	24585
830.524	24475
830.663	24342
830.802	24456
830.941	24289
831.08	24174
831.219	24296
831.357	24350
831.496	24452
831.635	24152
831.774	24057
831.913	24095
832.051	23931
832.19	23958
832.329	23999
832.467	23954
832.606	23893
832.744	23817
832.883	23832
833.022	23893
833.16	23832
833.299	23916
833.437	23999
833.576	24011
833.714	24015
833.852	24114
833.991	24057
834.129	23996
834.267	24018
834.406	24030
834.544	23912
834.682	23988
834.821	23904
834.959	24083
835.097	23836
835.235	23889
835.373	23996
835.511	23836
835.65	23939
835.788	23931
835.926	23661
836.064	23543
836.202	23714
836.34	23729
836.478	23889
836.615	23733
836.753	23805
836.891	23798
837.029	23878
837.167	23707
837.305	23756
837.443	23589
837.58	23634
837.718	23767
837.856	23684
837.993	23596
838.131	23657
838.269	23573
838.406	23478
838.544	23383
838.681	23258
838.819	23330
838.956	23113
839.094	23079
839.231	23155
839.369	23337
839.506	23531
839.643	23406
839.781	23170
839.918	23022
840.055	23067
840.193	23067
840.33	23094
840.467	23071
840.604	23121
840.742	23318
840.879	22987
841.016	22915
841.153	22980
841.29	23067
841.427	23010
841.564	23041
841.701	23041
841.838	22881
841.975	22877
842.112	22972
842.249	22839
842.385	22744
842.522	23044
842.659	22771
842.796	22778
842.933	22839
843.069	22683
843.206	22687
843.343	22858
843.479	22706
843.616	22843
843.752	22542
843.889	22649
844.025	22622
844.162	22527
844.298	22596
844.435	22577
844.571	22512
844.708	22664
844.844	22691
844.98	22691
845.117	22592
845.253	22436
845.389	22470
845.525	22554
845.661	22363
845.798	22177
845.934	22265
846.07	22204
846.206	22363
846.342	22409
846.478	22287
846.614	22120
846.75	21949
846.886	21907
847.022	22063
847.158	21979
847.294	22048
847.429	21998
847.565	21956
847.701	22226
847.837	21728
847.972	21804
848.108	21873
848.244	21968
848.379	21652
848.515	21564
848.65	21545
848.786	21770
848.921	21804
849.057	21682
849.192	21679
849.328	21663
849.463	21568
849.598	21500
849.734	21420
849.869	21416
850.004	21378
850.14	21393
850.275	21268
850.41	21249
850.545	21317
850.68	21439
850.815	21416
850.95	21230
851.085	21660
851.22	21332
851.355	21397
851.49	21367
851.625	21241
851.76	21321
851.895	21260
852.03	21329
852.165	21268
852.299	21336
852.434	21542
852.569	21439
852.703	21439
852.838	21469
852.973	21523
853.107	21492
853.242	21351
853.376	21249
853.511	21123
853.645	21146
853.78	21260
853.914	21184
854.048	21256
854.183	21089
854.317	21176
854.451	21287
854.585	21157
854.72	21127
854.854	21378
854.988	21108
855.122	21142
855.256	20967
855.39	21260
855.524	21329
855.658	21264
855.792	21131
855.926	21275
856.06	21203
856.194	21192
856.327	21226
856.461	21051
856.595	21154
856.729	21112
856.862	21294
856.996	21150
857.13	21249
857.263	21317
857.397	21184
857.53	21161
857.664	21272
857.797	21329
857.931	21329
858.064	21211
858.197	21222
858.331	21161
858.464	21150
858.597	21085
858.731	21199
858.864	21157
858.997	21233
859.13	21332
859.263	21195
859.396	21264
859.529	21138
859.662	21146
859.795	21211
859.928	21275
860.061	21420
860.194	21344
860.327	21211
860.46	21203
860.592	21393
860.725	21329
860.858	21180
860.99	21112
861.123	21195
861.256	21085
861.388	21207
861.521	21941
861.653	21047
861.786	20963
861.918	20960
862.05	21028
862.183	21127
862.315	21138
862.447	21222
862.58	21199
862.712	20876
862.844	20823
862.976	21005
863.108	20895
863.24	21363
863.372	20804
863.504	20902
863.636	20857
863.768	20948
863.9	20914
864.032	20823
864.164	20880
864.296	20838
864.428	21001
864.559	20994
864.691	21096
864.823	20937
864.954	20925
865.086	20815
865.217	20895
865.349	20731
865.48	20895
865.612	20792
865.743	20880
865.875	20815
866.006	20754
866.137	20857
866.269	20731
866.4	20743
866.531	20739
866.662	20693
866.793	20872
866.924	20731
867.055	20876
867.186	20785
867.317	20663
867.448	20686
867.579	20670
867.71	20716
867.841	20796
867.972	20739
868.103	20674
868.233	20682
868.364	20830
868.495	20902
868.625	20963
868.756	21036
868.886	20883
869.017	21093
869.147	21169
869.278	21119
869.408	21047
869.539	20891
869.669	21074
869.799	21119
869.929	21024
870.06	21180
870.19	21249
870.32	21272
870.45	21359
870.58	21386
870.71	21428
870.84	21473
870.97	21355
871.1	21386
871.23	21485
871.36	21587
871.489	21481
871.619	21523
871.749	21477
871.879	21587
872.008	21641
872.138	21538
872.267	21610
872.397	21412
872.526	21450
872.656	21492
872.785	21420
872.915	21614
873.044	21629
873.173	21637
873.303	21663
873.432	21644
873.561	21701
873.69	21530
873.819	21603
873.948	21629
874.077	21606
874.206	21583
874.335	21618
874.464	21705
874.593	21842
874.722	21808
874.851	21930
874.979	21915
875.108	21850
875.237	21869
875.365	21690
875.494	21857
875.623	21835
875.751	21800
875.88	21880
876.008	22021
876.136	21880
876.265	22234
876.393	22379
876.521	22284
876.65	22299
876.778	22230
876.906	22166
877.034	22048
877.162	22207
877.29	21983
877.418	22173
877.546	22143
877.674	22147
877.802	22173
877.93	22131
878.058	22154
878.185	22063
878.313	22196
878.441	22086
878.568	22192
878.696	22051
878.824	22226
878.951	22306
879.079	22417
879.206	22497
879.333	22356
879.461	22192
879.588	22287
879.715	22272
879.842	22512
879.97	22223
880.097	22055
880.224	21922
880.351	21972
880.478	22013
880.605	21895
880.732	22010
880.859	22204
880.986	21968
881.112	21945
881.239	21892
881.366	21739
881.493	21739
881.619	21580
881.746	21656
881.872	21572
881.999	21534
882.125	21587
882.252	21564
882.378	21542
882.505	21660
882.631	21435
882.757	21355
882.883	21389
883.01	21192
883.136	21230
883.262	21116
883.388	21135
883.514	21344
883.64	21272
883.766	21207
883.892	21116
884.018	21085
884.143	21237
884.269	21340
884.395	21051
884.52	20910
884.646	20887
884.772	20933
884.897	20838
885.023	21039
885.148	20994
885.274	21104
885.399	21009
885.524	20925
885.65	21001
885.775	20975
885.9	20800
886.025	21051
886.15	21138
886.275	20838
886.4	20830
886.525	20716
886.65	20762
886.775	20861
886.9	20971
887.025	21119
887.149	20811
887.274	20853
887.399	20716
887.523	20689
887.648	20602
887.773	20598
887.897	20842
888.021	20731
888.146	20659
888.27	20773
888.395	20739
888.519	20670
888.643	20724
888.767	20750
888.891	20629
889.015	20454
889.139	20568
889.263	20636
889.387	20632
889.511	20686
889.635	20533
889.759	20469
889.883	20404
890.006	20480
890.13	20541
890.254	20370
890.377	20469
890.501	20275
890.624	20153
890.748	20294
890.871	20142
890.995	20073
891.118	19967
891.241	20111
891.364	20168
891.488	20153
891.611	20111
891.734	20134
891.857	20126
891.98	20039
892.103	20130
892.226	20024
892.349	20065
892.471	19750
892.594	20027
892.717	19982
892.839	19974
892.962	20062
893.085	19970
893.207	19936
893.33	19883
893.452	19791
893.575	19989
893.697	19784
893.819	20096
893.941	20142
894.064	20088
894.186	19849
894.308	19909
894.43	19982
894.552	20031
894.674	20050
894.796	19902
894.918	19947
895.04	19887
895.161	19986
895.283	20058
895.405	19928
895.526	20050
895.648	19909
895.769	19947
895.891	20005
896.012	20043
896.134	20020
896.255	20012
896.376	19864
896.498	19940
896.619	20115
896.74	19944
896.861	20031
896.982	20202
897.103	20457
897.224	20149
897.345	20221
897.466	20225
897.587	20374
897.708	20404
897.828	20320
897.949	20100
898.07	20020
898.19	20168
898.311	20191
898.431	20172
898.552	20195
898.672	20290
898.792	20275
898.913	20256
899.033	20077
899.153	20096
899.273	19959
899.393	19909
899.513	20005
899.633	19932
899.753	19944
899.873	19909
899.993	19989
900.113	19921
900.232	19970
900.352	19841
900.472	19712
900.591	19795
900.711	19765
900.83	19765
900.95	19795
901.069	19712
901.189	19681
901.308	19502
901.427	19441
901.546	19346
901.665	19343
901.784	19282
901.904	19217
902.023	19148
902.141	18913
902.26	18848
902.379	18840
902.498	18943
902.617	18692
902.735	18806
902.854	18791
902.973	18753
903.091	18582
903.21	18422
903.328	18448
903.446	18467
903.565	18342
903.683	18281
903.801	18045
903.919	18174
904.038	18239
904.156	17992
904.274	18228
904.392	18007
904.51	17961
904.627	18114
904.745	18091
904.863	18060
904.981	17893
905.098	17752
905.216	17828
905.334	17840
905.451	17863
905.569	17680
905.686	17726
905.803	17775
905.921	17532
906.038	17703
906.155	17615
906.272	17528
906.389	17429
906.506	17417
906.623	17311
906.74	17227
906.857	17227
906.974	17197
907.091	17261
907.208	17391
907.324	17410
907.441	17208
907.557	17010
907.674	17010
907.79	16896
907.907	16915
908.023	17105
908.139	16957
908.256	16938
908.372	16835
908.488	16892
908.604	16729
908.72	16782
908.836	16759
908.952	16752
909.068	16729
909.184	16771
909.3	16797
909.415	16771
909.531	16687
909.647	16577
909.762	16459
909.878	16577
909.993	16451
910.108	16325
910.224	16421
910.339	16440
910.454	16246
910.57	16246
910.685	16242
910.8	16516
910.915	16466
911.03	16314
911.145	16093
911.259	15979
911.374	15987
911.489	15953
911.604	15892
911.718	15713
911.833	15812
911.947	15785
912.062	15614
912.176	15789
912.291	15778
912.405	15918
912.519	16021
912.633	15949
912.748	15717
912.862	15732
912.976	15679
913.09	15488
913.204	15572
913.318	15545
913.431	15667
913.545	15644
913.659	15660
913.772	15507
913.886	15382
914	15306
914.113	15488
914.226	15439
914.34	15443
914.453	15272
914.566	15431
914.68	15264
914.793	15252
914.906	15077
915.019	14929
915.132	14952
915.245	15013
915.358	15005
915.47	15032
915.583	14944
915.696	15066
915.809	15135
915.921	15195
916.034	15001
916.146	14979
916.259	14899
916.371	14982
916.483	14937
916.595	14857
916.708	14864
916.82	14849
916.932	14826
917.044	14906
917.156	14838
917.268	14765
917.38	14640
917.491	14610
917.603	14670
917.715	14735
917.826	14644
917.938	14598
918.049	14454
918.161	14564
918.272	14819
918.384	14705
918.495	14606
918.606	14442
918.717	14381
918.828	14454
918.939	14476
919.05	14366
919.161	14408
919.272	14183
919.383	14290
919.494	14454
919.604	14686
919.715	14412
919.826	14412
919.936	14328
920.047	14423
920.157	14488
920.267	14663
920.378	14503
920.488	14339
920.598	14617
920.708	14758
920.818	14575
920.928	14610
921.038	14674
921.148	14678
921.258	14355
921.368	14191
921.477	14161
921.587	14130
921.697	14111
921.806	14199
921.916	14020
922.025	13890
922.134	13909
922.244	13761
922.353	13841
922.462	13700
922.571	13662
922.68	13415
922.789	13514
922.898	13460
923.007	13460
923.116	13529
923.224	13525
923.333	13430
923.442	13259
923.55	13266
923.659	13324
923.767	13362
923.876	13304
923.984	13293
924.092	13206
924.201	13156
924.309	13228
924.417	13156
924.525	13084
924.633	13114
924.741	13909
924.849	12947
924.956	13015
925.064	12894
925.172	12821
925.279	12802
925.387	12928
925.494	12848
925.602	13012
925.709	12951
925.816	12890
925.924	12821
926.031	12882
926.138	12810
926.245	12890
926.352	12707
926.459	12890
926.566	12859
926.673	12703
926.779	12760
926.886	12677
926.993	12521
927.099	12418
927.206	12395
927.312	12365
927.419	12513
927.525	12502
927.631	12540
927.737	12426
927.843	12308
927.95	12117
928.056	12273
928.162	12209
928.267	12391
928.373	12947
928.479	12289
928.585	12022
928.69	12194
928.796	12216
928.901	12197
929.007	12045
929.112	12182
929.218	12117
929.323	12038
929.428	12041
929.533	12159
929.638	11870
929.743	11942
929.848	12026
929.953	11912
930.058	11805
930.163	11726
930.267	11714
930.372	11771
930.477	11619
930.581	11878
930.685	11722
930.79	11532
930.894	11566
930.998	11509
931.103	11737
931.207	11299
931.311	11277
931.415	11102
931.519	10965
931.623	10965
