Data from test_V78500241_448.txt Node
Date: Fri Mar 25 15:44:54 CST 2022
User: usil
Spectrometer: V785-0024
Trigger mode: 0
Integration Time (sec): 4.000000E-1
Scans to average: 1
Nonlinearity correction enabled: false
Boxcar width: 0
Storing dark spectrum: false
XAxis mode: Wavelengths
Number of Pixels in Spectrum: 1024
>>>>>Begin Spectral Data<<<<<
801.071	28032
801.214	27998
801.356	27660
801.499	27717
801.641	27545
801.783	27568
801.926	27641
802.068	27542
802.211	27534
802.353	27405
802.496	27287
802.638	27298
802.78	27256
802.923	27207
803.065	27100
803.208	27081
803.35	27184
803.492	27135
803.635	27405
803.777	27279
803.919	27336
804.061	27682
804.204	27397
804.346	27367
804.488	27275
804.63	27275
804.773	27226
804.915	27348
805.057	27420
805.199	27260
805.341	27355
805.483	27351
805.626	27367
805.768	27268
805.91	27416
806.052	27492
806.194	27519
806.336	27568
806.478	27610
806.62	27370
806.762	27595
806.904	27736
807.046	28109
807.188	27892
807.33	27895
807.472	28029
807.614	27766
807.756	27804
807.898	27591
808.04	27462
808.182	27644
808.324	27705
808.465	27743
808.607	27800
808.749	28017
808.891	27991
809.033	28230
809.174	28162
809.316	28044
809.458	28090
809.6	28002
809.741	28131
809.883	28128
810.025	28219
810.166	28306
810.308	28204
810.45	28257
810.591	28166
810.733	28029
810.875	28074
811.016	27869
811.158	27994
811.299	27991
811.441	28234
811.582	28109
811.724	27854
811.865	27918
812.007	28040
812.148	27964
812.29	27968
812.431	28169
812.573	28318
812.714	28386
812.855	28577
812.997	28679
813.138	28752
813.279	28744
813.421	28561
813.562	28424
813.703	28207
813.845	28192
813.986	27835
814.127	27732
814.268	27679
814.41	27679
814.551	27591
814.692	27633
814.833	27557
814.974	27797
815.115	27644
815.256	27515
815.397	27530
815.539	27443
815.68	27469
815.821	27344
815.962	27260
816.103	27374
816.244	27355
816.385	27131
816.526	27211
816.666	27013
816.807	26769
816.948	27020
817.089	26880
817.23	26979
817.371	26925
817.512	26937
817.653	26868
817.793	26724
817.934	26819
818.075	27009
818.216	26830
818.356	26750
818.497	26735
818.638	26453
818.778	26621
818.919	26549
819.06	26632
819.2	26674
819.341	26731
819.481	26788
819.622	27017
819.762	27055
819.903	27024
820.043	26773
820.184	27051
820.324	26910
820.465	27180
820.605	26929
820.746	26929
820.886	26819
821.026	26876
821.167	26773
821.307	26967
821.447	26819
821.588	26689
821.728	26613
821.868	26514
822.008	26187
822.149	26199
822.289	26206
822.429	26073
822.569	25951
822.709	25864
822.849	25799
822.99	25662
823.13	25643
823.27	25590
823.41	25632
823.55	25346
823.69	25556
823.83	25594
823.97	25567
824.11	25335
824.25	25449
824.389	25392
824.529	25327
824.669	25331
824.809	25525
824.949	25415
825.089	25434
825.228	25369
825.368	25232
825.508	25255
825.648	25148
825.787	25164
825.927	25232
826.067	25126
826.206	25107
826.346	25240
826.485	25320
826.625	25206
826.765	25244
826.904	25293
827.044	25027
827.183	24977
827.323	24924
827.462	25004
827.601	24882
827.741	24909
827.88	24920
828.02	24715
828.159	24840
828.298	24829
828.437	24909
828.577	24829
828.716	24935
828.855	24806
828.994	24692
829.134	24551
829.273	24639
829.412	24582
829.551	24437
829.69	24665
829.829	24601
829.968	24601
830.107	24768
830.246	24509
830.385	24525
830.524	24448
830.663	24399
830.802	24258
830.941	24140
831.08	24155
831.219	24106
831.357	24262
831.496	24353
831.635	24205
831.774	24197
831.913	23897
832.051	23901
832.19	23954
832.329	23946
832.467	23885
832.606	23859
832.744	23752
832.883	23828
833.022	23836
833.16	23809
833.299	23771
833.437	23821
833.576	23942
833.714	23729
833.852	23885
833.991	23969
834.129	23912
834.267	23969
834.406	23817
834.544	23786
834.682	23840
834.821	23821
834.959	23916
835.097	23695
835.235	23821
835.373	23767
835.511	23874
835.65	23653
835.788	23604
835.926	23535
836.064	23387
836.202	23520
836.34	23630
836.478	23672
836.615	23672
836.753	23661
836.891	23748
837.029	23608
837.167	23528
837.305	23600
837.443	23611
837.58	23535
837.718	23531
837.856	23497
837.993	23383
838.131	23429
838.269	23471
838.406	23455
838.544	23341
838.681	23113
838.819	23143
838.956	22828
839.094	22949
839.231	23010
839.369	23117
839.506	23288
839.643	23181
839.781	22881
839.918	22946
840.055	22904
840.193	22797
840.33	22812
840.467	22908
840.604	22881
840.742	23212
840.879	22774
841.016	22805
841.153	22793
841.29	22915
841.427	22835
841.564	22850
841.701	22869
841.838	22896
841.975	22755
842.112	22748
842.249	22565
842.385	22443
842.522	22725
842.659	22664
842.796	22656
842.933	22599
843.069	22538
843.206	22557
843.343	22649
843.479	22519
843.616	22523
843.752	22341
843.889	22303
844.025	22443
844.162	22428
844.298	22462
844.435	22284
844.571	22215
844.708	22421
844.844	22519
844.98	22424
845.117	22356
845.253	22337
845.389	22181
845.525	22242
845.661	22272
845.798	21991
845.934	22150
846.07	22067
846.206	22032
846.342	22177
846.478	22032
846.614	21937
846.75	21690
846.886	21846
847.022	21888
847.158	21774
847.294	21819
847.429	21789
847.565	21812
847.701	22082
847.837	21534
847.972	21477
848.108	21538
848.244	21629
848.379	21412
848.515	21351
848.65	21359
848.786	21382
848.921	21466
849.057	21473
849.192	21500
849.328	21466
849.463	21420
849.598	21363
849.734	21313
849.869	21116
850.004	21146
850.14	21146
850.275	21085
850.41	21089
850.545	21131
850.68	21119
850.815	21009
850.95	21032
851.085	21287
851.22	21321
851.355	21104
851.49	21036
851.625	21127
851.76	21043
851.895	21074
852.03	21001
852.165	21207
852.299	21116
852.434	21146
852.569	21127
852.703	21077
852.838	21173
852.973	21260
853.107	21127
853.242	21081
853.376	21001
853.511	20857
853.645	20944
853.78	21058
853.914	20975
854.048	20971
854.183	20845
854.317	21066
854.451	21138
854.585	20929
854.72	21001
854.854	20975
854.988	20785
855.122	20845
855.256	20811
855.39	20944
855.524	20998
855.658	20971
855.792	20933
855.926	20956
856.06	20975
856.194	21043
856.327	20971
856.461	20941
856.595	20872
856.729	20944
856.862	21074
856.996	20979
857.13	20952
857.263	20982
857.397	21032
857.53	21039
857.664	20910
857.797	20929
857.931	21116
858.064	20811
858.197	20963
858.331	20967
858.464	20880
858.597	20762
858.731	20914
858.864	20872
858.997	20918
859.13	20948
859.263	20998
859.396	20853
859.529	20967
859.662	20853
859.795	20762
859.928	20952
860.061	21039
860.194	21070
860.327	20872
860.46	20918
860.592	20910
860.725	20994
860.858	21017
860.99	20746
861.123	20887
861.256	20834
861.388	20872
861.521	21530
861.653	20952
861.786	20689
861.918	20739
862.05	20758
862.183	20845
862.315	20777
862.447	20925
862.58	20842
862.712	20537
862.844	20636
862.976	20693
863.108	20663
863.24	21112
863.372	20625
863.504	20613
863.636	20667
863.768	20594
863.9	20686
864.032	20450
864.164	20549
864.296	20705
864.428	20811
864.559	20629
864.691	20545
864.823	20636
864.954	20613
865.086	20492
865.217	20480
865.349	20461
865.48	20484
865.612	20545
865.743	20712
865.875	20568
866.006	20568
866.137	20457
866.269	20446
866.4	20473
866.531	20492
866.662	20336
866.793	20358
866.924	20469
867.055	20556
867.186	20507
867.317	20358
867.448	20343
867.579	20389
867.71	20431
867.841	20313
867.972	20541
868.103	20400
868.233	20355
868.364	20533
868.495	20461
868.625	20663
868.756	20678
868.886	20609
869.017	20636
869.147	20735
869.278	20834
869.408	20762
869.539	20609
869.669	20807
869.799	20815
869.929	20868
870.06	20815
870.19	21039
870.32	21001
870.45	20971
870.58	21043
870.71	21100
870.84	21165
870.97	21093
871.1	21154
871.23	21173
871.36	21252
871.489	21150
871.619	21226
871.749	21310
871.879	21256
872.008	21408
872.138	21245
872.267	21230
872.397	21104
872.526	21005
872.656	21032
872.785	21047
872.915	21275
873.044	21374
873.173	21264
873.303	21424
873.432	21401
873.561	21428
873.69	21294
873.819	21230
873.948	21310
874.077	21306
874.206	21176
874.335	21344
874.464	21477
874.593	21549
874.722	21363
874.851	21485
874.979	21606
875.108	21583
875.237	21447
875.365	21424
875.494	21526
875.623	21603
875.751	21561
875.88	21606
876.008	21705
876.136	21743
876.265	21865
876.393	22120
876.521	22116
876.65	21926
876.778	21991
876.906	21964
877.034	21816
877.162	21876
877.29	21854
877.418	21804
877.546	21934
877.674	21949
877.802	21953
877.93	21907
878.058	21823
878.185	21770
878.313	21880
878.441	21934
878.568	21759
878.696	21823
878.824	21895
878.951	21994
879.079	22036
879.206	22238
879.333	22124
879.461	21934
879.588	22078
879.715	22139
879.842	22158
879.97	22002
880.097	21641
880.224	21717
880.351	21789
880.478	21724
880.605	21694
880.732	21694
880.859	21930
880.986	21724
881.112	21766
881.239	21515
881.366	21523
881.493	21450
881.619	21351
881.746	21332
881.872	21355
881.999	21355
882.125	21154
882.252	21302
882.378	21332
882.505	21291
882.631	21146
882.757	20967
882.883	21093
883.01	21024
883.136	20982
883.262	20815
883.388	20944
883.514	21062
883.64	21100
883.766	20956
883.892	20807
884.018	20743
884.143	20979
884.269	21058
884.395	20727
884.52	20606
884.646	20705
884.772	20511
884.897	20765
885.023	20667
885.148	20792
885.274	20807
885.399	20750
885.524	20758
885.65	20617
885.775	20659
885.9	20518
886.025	20739
886.15	20674
886.275	20450
886.4	20575
886.525	20602
886.65	20556
886.775	20419
886.9	20773
887.025	20891
887.149	20617
887.274	20438
887.399	20309
887.523	20438
887.648	20355
887.773	20381
887.897	20419
888.021	20560
888.146	20385
888.27	20568
888.395	20343
888.519	20442
888.643	20431
888.767	20415
888.891	20366
889.015	20096
889.139	20294
889.263	20130
889.387	20412
889.511	20511
889.635	20374
889.759	20191
889.883	20240
890.006	20332
890.13	20271
890.254	20115
890.377	20157
890.501	19974
890.624	19963
890.748	20024
890.871	19826
890.995	19704
891.118	19742
891.241	19791
891.364	19807
891.488	19906
891.611	19833
891.734	19776
891.857	19788
891.98	19845
892.103	19875
892.226	19757
892.349	19693
892.471	19559
892.594	19700
892.717	19666
892.839	19700
892.962	19696
893.085	19731
893.207	19655
893.33	19670
893.452	19597
893.575	19769
893.697	19708
893.819	19951
893.941	19871
894.064	19906
894.186	19609
894.308	19655
894.43	19765
894.552	19837
894.674	19742
894.796	19525
894.918	19734
895.04	19647
895.161	19734
895.283	19734
895.405	19696
895.526	19601
895.648	19734
895.769	19757
895.891	19788
896.012	19795
896.134	19814
896.255	19761
896.376	19753
896.498	19662
896.619	19731
896.74	19769
896.861	19788
896.982	20111
897.103	20176
897.224	20020
897.345	20001
897.466	19856
897.587	19890
897.708	20043
897.828	20046
897.949	19830
898.07	19890
898.19	19833
898.311	20050
898.431	19925
898.552	19951
898.672	20103
898.792	20001
898.913	19925
899.033	19913
899.153	19715
899.273	19731
899.393	19723
899.513	19651
899.633	19818
899.753	19757
899.873	19757
899.993	19803
900.113	19635
900.232	19639
900.352	19639
900.472	19525
900.591	19571
900.711	19510
900.83	19343
900.95	19540
901.069	19506
901.189	19320
901.308	19175
901.427	19091
901.546	19061
901.665	19122
901.784	19034
901.904	19152
902.023	18837
902.141	18734
902.26	18700
902.379	18696
902.498	18582
902.617	18555
902.735	18650
902.854	18559
902.973	18563
903.091	18205
903.21	18243
903.328	18251
903.446	18076
903.565	18053
903.683	18045
903.801	17984
903.919	18053
904.038	18011
904.156	17882
904.274	17882
904.392	17843
904.51	17779
904.627	17840
904.745	17832
904.863	17847
904.981	17665
905.098	17486
905.216	17414
905.334	17581
905.451	17501
905.569	17463
905.686	17532
905.803	17497
905.921	17235
906.038	17345
906.155	17360
906.272	17162
906.389	17178
906.506	16972
906.623	17132
906.74	17052
906.857	16953
906.974	16930
907.091	17060
907.208	17140
907.324	17045
907.441	16889
907.557	16816
907.674	16850
907.79	16634
907.907	16653
908.023	16622
908.139	16683
908.256	16767
908.372	16596
908.488	16710
908.604	16398
908.72	16440
908.836	16428
908.952	16436
909.068	16500
909.184	16561
909.3	16417
909.415	16523
909.531	16443
909.647	16280
909.762	16154
909.878	16109
909.993	16131
910.108	16101
910.224	16166
910.339	16150
910.454	16010
910.57	15934
910.685	15907
910.8	16310
910.915	16093
911.03	15884
911.145	15842
911.259	15850
911.374	15789
911.489	15705
911.604	15606
911.718	15488
911.833	15595
911.947	15408
912.062	15416
912.176	15534
912.291	15667
912.405	15481
912.519	15686
912.633	15667
912.748	15523
912.862	15504
912.976	15355
913.09	15233
913.204	15317
913.318	15291
913.431	15488
913.545	15389
913.659	15412
913.772	15348
913.886	15097
914	15097
914.113	15188
914.226	15310
914.34	15214
914.453	15161
914.566	15100
914.68	14937
914.793	14967
914.906	14834
915.019	14796
915.132	14640
915.245	14640
915.358	14689
915.47	14724
915.583	14735
915.696	14727
915.809	14769
915.921	14956
916.034	14651
916.146	14613
916.259	14629
916.371	14701
916.483	14712
916.595	14568
916.708	14488
916.82	14568
916.932	14526
917.044	14545
917.156	14533
917.268	14419
917.38	14309
917.491	14366
917.603	14526
917.715	14469
917.826	14594
917.938	14393
918.049	14202
918.161	14286
918.272	14511
918.384	14495
918.495	14370
918.606	14271
918.717	14092
918.828	14164
918.939	14229
919.05	14050
919.161	14111
919.272	13944
919.383	14005
919.494	14142
919.604	14309
919.715	14111
919.826	14020
919.936	14130
920.047	14218
920.157	14176
920.267	14309
920.378	14172
920.488	14123
920.598	14263
920.708	14404
920.818	14267
920.928	14229
921.038	14377
921.148	14324
921.258	14145
921.368	13978
921.477	13845
921.587	13875
921.697	13715
921.806	13883
921.916	13658
922.025	13624
922.134	13502
922.244	13388
922.353	13548
922.462	13327
922.571	13377
922.68	13160
922.789	13168
922.898	13183
923.007	13076
923.116	13194
923.224	13126
923.333	13088
923.442	13053
923.55	13015
923.659	12916
923.767	13031
923.876	12932
923.984	13038
924.092	12768
924.201	12844
924.309	12859
924.417	13008
924.525	12837
924.633	12958
924.741	13586
924.849	12593
924.956	12791
925.064	12688
925.172	12585
925.279	12513
925.387	12578
925.494	12574
925.602	12776
925.709	12593
925.816	12513
925.924	12494
926.031	12604
926.138	12532
926.245	12612
926.352	12407
926.459	12616
926.566	12585
926.673	12536
926.779	12342
926.886	12353
926.993	12152
927.099	12266
927.206	12243
927.312	12125
927.419	12273
927.525	12197
927.631	12152
927.737	12133
927.843	11965
927.95	11851
928.056	11988
928.162	12030
928.267	12022
928.373	12696
928.479	12159
928.585	11790
928.69	11912
928.796	12007
928.901	11843
929.007	11748
929.112	11840
929.218	11832
929.323	11775
929.428	11745
929.533	11889
929.638	11695
929.743	11646
929.848	11710
929.953	11756
930.058	11532
930.163	11410
930.267	11436
930.372	11589
930.477	11387
930.581	11688
930.685	11512
930.79	11303
930.894	11334
930.998	11265
931.103	11501
931.207	11109
931.311	11086
931.415	10877
931.519	10675
931.623	10706
