Data from test_V78500241_1675.txt Node
Date: Fri Mar 25 15:53:24 CST 2022
User: usil
Spectrometer: V785-0024
Trigger mode: 0
Integration Time (sec): 4.000000E-1
Scans to average: 1
Nonlinearity correction enabled: false
Boxcar width: 0
Storing dark spectrum: false
XAxis mode: Wavelengths
Number of Pixels in Spectrum: 1024
>>>>>Begin Spectral Data<<<<<
801.071	28276
801.214	28181
801.356	27972
801.499	27895
801.641	27762
801.783	27648
801.926	27736
802.068	27671
802.211	27690
802.353	27625
802.496	27462
802.638	27393
802.78	27443
802.923	27500
803.065	27317
803.208	27389
803.35	27443
803.492	27682
803.635	27644
803.777	27633
803.919	27641
804.061	27922
804.204	27846
804.346	27633
804.488	27606
804.63	27591
804.773	27739
804.915	27812
805.057	27701
805.199	27641
805.341	27793
805.483	27911
805.626	27823
805.768	27747
805.91	27762
806.052	27827
806.194	27804
806.336	28082
806.478	27903
806.62	27778
806.762	28021
806.904	28116
807.046	28249
807.188	28181
807.33	28291
807.472	28314
807.614	28318
807.756	28360
807.898	28261
808.04	27953
808.182	28025
808.324	28120
808.465	28238
808.607	28246
808.749	28401
808.891	28538
809.033	28653
809.174	28577
809.316	28417
809.458	28432
809.6	28485
809.741	28622
809.883	28626
810.025	28725
810.166	28603
810.308	28694
810.45	28694
810.591	28519
810.733	28432
810.875	28535
811.016	28375
811.158	28398
811.299	28489
811.441	28710
811.582	28694
811.724	28550
811.865	28371
812.007	28322
812.148	28413
812.29	28417
812.431	28698
812.573	28805
812.714	28816
812.855	28946
812.997	29075
813.138	29280
813.279	29185
813.421	28980
813.562	28980
813.703	28812
813.845	28713
813.986	28386
814.127	28306
814.268	28223
814.41	28143
814.551	28158
814.692	28173
814.833	28139
814.974	28044
815.115	28196
815.256	28226
815.397	28226
815.539	28086
815.68	28010
815.821	27991
815.962	28166
816.103	27953
816.244	27846
816.385	27838
816.526	27816
816.666	27526
816.807	27466
816.948	27443
817.089	27557
817.23	27469
817.371	27545
817.512	27526
817.653	27454
817.793	27351
817.934	27420
818.075	27454
818.216	27473
818.356	27526
818.497	27302
818.638	27218
818.778	27203
818.919	27389
819.06	27321
819.2	27462
819.341	27424
819.481	27412
819.622	27622
819.762	27717
819.903	27766
820.043	27762
820.184	27587
820.324	27545
820.465	27629
820.605	27709
820.746	27507
820.886	27427
821.026	27587
821.167	27625
821.307	27690
821.447	27447
821.588	27298
821.728	27393
821.868	27055
822.008	26982
822.149	27017
822.289	26754
822.429	26625
822.569	26720
822.709	26651
822.849	26507
822.99	26556
823.13	26480
823.27	26385
823.41	26298
823.55	26153
823.69	26343
823.83	26343
823.97	26180
824.11	26077
824.25	26058
824.389	26229
824.529	26149
824.669	26199
824.809	26267
824.949	26134
825.089	26221
825.228	26180
825.368	25921
825.508	25928
825.648	25894
825.787	25951
825.927	26073
826.067	25970
826.206	25887
826.346	26111
826.485	26069
826.625	25932
826.765	26035
826.904	26111
827.044	25723
827.183	25791
827.323	25674
827.462	25864
827.601	25643
827.741	25704
827.88	25715
828.02	25533
828.159	25681
828.298	25677
828.437	25719
828.577	25613
828.716	25750
828.855	25613
828.994	25525
829.134	25411
829.273	25407
829.412	25362
829.551	25377
829.69	25274
829.829	25384
829.968	25544
830.107	25472
830.246	25407
830.385	25373
830.524	25400
830.663	25213
830.802	25175
830.941	25050
831.08	24882
831.219	25091
831.357	25057
831.496	25072
831.635	24954
831.774	25008
831.913	24856
832.051	24798
832.19	24673
832.329	24673
832.467	24741
832.606	24544
832.744	24574
832.883	24779
833.022	24688
833.16	24639
833.299	24738
833.437	24688
833.576	24738
833.714	24837
833.852	24749
833.991	24791
834.129	24757
834.267	24833
834.406	24642
834.544	24768
834.682	24665
834.821	24688
834.959	24840
835.097	24620
835.235	24707
835.373	24760
835.511	24631
835.65	24551
835.788	24486
835.926	24460
836.064	24350
836.202	24372
836.34	24616
836.478	24612
836.615	24521
836.753	24433
836.891	24582
837.029	24502
837.167	24361
837.305	24494
837.443	24342
837.58	24311
837.718	24460
837.856	24399
837.993	24285
838.131	24311
838.269	24319
838.406	24201
838.544	24178
838.681	23984
838.819	24022
838.956	23828
839.094	23843
839.231	23824
839.369	24057
839.506	24129
839.643	24091
839.781	23866
839.918	23832
840.055	23882
840.193	23802
840.33	23699
840.467	23847
840.604	23786
840.742	23980
840.879	23676
841.016	23642
841.153	23668
841.29	23817
841.427	23710
841.564	23809
841.701	23707
841.838	23737
841.975	23608
842.112	23699
842.249	23505
842.385	23577
842.522	23756
842.659	23596
842.796	23577
842.933	23589
843.069	23383
843.206	23467
843.343	23398
843.479	23425
843.616	23448
843.752	23216
843.889	23330
844.025	23497
844.162	23159
844.298	23383
844.435	23261
844.571	23307
844.708	23379
844.844	23391
844.98	23391
845.117	23360
845.253	23341
845.389	23075
845.525	23136
845.661	23166
845.798	23113
845.934	23025
846.07	23044
846.206	23006
846.342	23086
846.478	23025
846.614	22675
846.75	22622
846.886	22736
847.022	22801
847.158	22592
847.294	22687
847.429	22809
847.565	22786
847.701	23048
847.837	22443
847.972	22451
848.108	22592
848.244	22481
848.379	22367
848.515	22272
848.65	22348
848.786	22226
848.921	22398
849.057	22432
849.192	22447
849.328	22325
849.463	22382
849.598	22230
849.734	22219
849.869	22215
850.004	22093
850.14	22185
850.275	22128
850.41	22105
850.545	22013
850.68	22139
850.815	21972
850.95	22074
851.085	22215
851.22	22090
851.355	22139
851.49	21979
851.625	22078
851.76	22070
851.895	21934
852.03	21922
852.165	22109
852.299	22074
852.434	22303
852.569	22074
852.703	22158
852.838	22135
852.973	22242
853.107	22196
853.242	22055
853.376	21861
853.511	21778
853.645	21835
853.78	22143
853.914	21937
854.048	21922
854.183	21842
854.317	21880
854.451	22021
854.585	21892
854.72	21857
854.854	21903
854.988	21846
855.122	21892
855.256	21705
855.39	22010
855.524	22017
855.658	21968
855.792	21991
855.926	21987
856.06	21945
856.194	21994
856.327	21941
856.461	22006
856.595	21880
856.729	21922
856.862	21960
856.996	21915
857.13	21835
857.263	21983
857.397	21975
857.53	21880
857.664	22013
857.797	22051
857.931	22067
858.064	21949
858.197	22051
858.331	21865
858.464	21888
858.597	21854
858.731	21808
858.864	21724
858.997	21983
859.13	21926
859.263	21991
859.396	22036
859.529	21823
859.662	21724
859.795	21861
859.928	21934
860.061	22017
860.194	22070
860.327	21953
860.46	21987
860.592	22055
860.725	22135
860.858	22002
860.99	21903
861.123	21827
861.256	21785
861.388	21960
861.521	22630
861.653	21888
861.786	21682
861.918	21816
862.05	21774
862.183	22029
862.315	21907
862.447	21968
862.58	21774
862.712	21648
862.844	21652
862.976	21660
863.108	21606
863.24	22048
863.372	21580
863.504	21652
863.636	21675
863.768	21682
863.9	21576
864.032	21572
864.164	21614
864.296	21629
864.428	21743
864.559	21618
864.691	21656
864.823	21641
864.954	21603
865.086	21682
865.217	21614
865.349	21279
865.48	21530
865.612	21477
865.743	21679
865.875	21443
866.006	21507
866.137	21606
866.269	21500
866.4	21382
866.531	21344
866.662	21306
866.793	21492
866.924	21416
867.055	21382
867.186	21363
867.317	21355
867.448	21443
867.579	21351
867.71	21226
867.841	21336
867.972	21401
868.103	21386
868.233	21420
868.364	21408
868.495	21458
868.625	21622
868.756	21774
868.886	21591
869.017	21618
869.147	21751
869.278	21755
869.408	21682
869.539	21595
869.669	21842
869.799	21686
869.929	21823
870.06	21854
870.19	21941
870.32	21850
870.45	22128
870.58	22002
870.71	22135
870.84	22287
870.97	22158
871.1	22082
871.23	22261
871.36	22192
871.489	22112
871.619	22177
871.749	22363
871.879	22249
872.008	22386
872.138	22375
872.267	22242
872.397	22188
872.526	22169
872.656	22207
872.785	22070
872.915	22299
873.044	22432
873.173	22215
873.303	22409
873.432	22421
873.561	22348
873.69	22299
873.819	22128
873.948	22447
874.077	22371
874.206	22261
874.335	22261
874.464	22428
874.593	22535
874.722	22516
874.851	22451
874.979	22535
875.108	22554
875.237	22428
875.365	22402
875.494	22500
875.623	22577
875.751	22398
875.88	22592
876.008	22744
876.136	22626
876.265	22927
876.393	22915
876.521	22847
876.65	22919
876.778	22904
876.906	22839
877.034	22828
877.162	22858
877.29	22748
877.418	22839
877.546	22828
877.674	22877
877.802	22904
877.93	22961
878.058	22805
878.185	22664
878.313	22805
878.441	22797
878.568	22702
878.696	22850
878.824	22858
878.951	22881
879.079	23010
879.206	23212
879.333	22790
879.461	22904
879.588	22847
879.715	22873
879.842	23185
879.97	22949
880.097	22736
880.224	22683
880.351	22801
880.478	22615
880.605	22687
880.732	22649
880.859	22862
880.986	22717
881.112	22790
881.239	22538
881.366	22379
881.493	22356
881.619	22318
881.746	22207
881.872	22276
881.999	22204
882.125	22101
882.252	22200
882.378	22200
882.505	22284
882.631	22112
882.757	21895
882.883	22166
883.01	21964
883.136	21892
883.262	21892
883.388	21857
883.514	21861
883.64	21926
883.766	21819
883.892	21709
884.018	21709
884.143	21903
884.269	22010
884.395	21599
884.52	21515
884.646	21568
884.772	21458
884.897	21370
885.023	21568
885.148	21717
885.274	21766
885.399	21622
885.524	21500
885.65	21603
885.775	21625
885.9	21553
886.025	21762
886.15	21641
886.275	21485
886.4	21386
886.525	21538
886.65	21249
886.775	21469
886.9	21610
887.025	21850
887.149	21420
887.274	21355
887.399	21408
887.523	21294
887.648	21203
887.773	21256
887.897	21443
888.021	21374
888.146	21287
888.27	21325
888.395	21340
888.519	21294
888.643	21458
888.767	21443
888.891	21237
889.015	21233
889.139	21138
889.263	21173
889.387	21165
889.511	21393
889.635	21283
889.759	21203
889.883	21131
890.006	21043
890.13	21203
890.254	21112
890.377	21009
890.501	20891
890.624	20883
890.748	20811
890.871	20731
890.995	20716
891.118	20598
891.241	20659
891.364	20697
891.488	20712
891.611	20689
891.734	20682
891.857	20750
891.98	20606
892.103	20712
892.226	20769
892.349	20636
892.471	20469
892.594	20492
892.717	20682
892.839	20659
892.962	20549
893.085	20773
893.207	20651
893.33	20351
893.452	20533
893.575	20606
893.697	20621
893.819	20724
893.941	20754
894.064	20705
894.186	20541
894.308	20537
894.43	20632
894.552	20708
894.674	20769
894.796	20492
894.918	20659
895.04	20579
895.161	20750
895.283	20632
895.405	20495
895.526	20522
895.648	20530
895.769	20575
895.891	20682
896.012	20644
896.134	20526
896.255	20583
896.376	20568
896.498	20446
896.619	20667
896.74	20507
896.861	20609
896.982	20785
897.103	21047
897.224	20857
897.345	20838
897.466	20667
897.587	20762
897.708	20880
897.828	20750
897.949	20682
898.07	20720
898.19	20682
898.311	20902
898.431	20705
898.552	20804
898.672	20887
898.792	20815
898.913	20773
899.033	20609
899.153	20636
899.273	20427
899.393	20545
899.513	20541
899.633	20495
899.753	20533
899.873	20518
899.993	20621
900.113	20480
900.232	20457
900.352	20492
900.472	20267
900.591	20309
900.711	20404
900.83	20320
900.95	20465
901.069	20381
901.189	20180
901.308	19925
901.427	19890
901.546	19780
901.665	19883
901.784	19932
901.904	19731
902.023	19666
902.141	19559
902.26	19369
902.379	19510
902.498	19304
902.617	19392
902.735	19335
902.854	19400
902.973	19297
903.091	19084
903.21	19019
903.328	19031
903.446	18886
903.565	18745
903.683	19004
903.801	18749
903.919	18776
904.038	18779
904.156	18646
904.274	18734
904.392	18555
904.51	18604
904.627	18601
904.745	18582
904.863	18616
904.981	18456
905.098	18266
905.216	18209
905.334	18376
905.451	18228
905.569	18273
905.686	18296
905.803	18266
905.921	18190
906.038	18163
906.155	18053
906.272	18057
906.389	18007
906.506	17726
906.623	17904
906.74	17794
906.857	17657
906.974	17707
907.091	17874
907.208	17786
907.324	17821
907.441	17661
907.557	17543
907.674	17497
907.79	17463
907.907	17554
908.023	17520
908.139	17501
908.256	17410
908.372	17501
908.488	17414
908.604	17326
908.72	17208
908.836	17239
908.952	17220
909.068	17212
909.184	17288
909.3	17170
909.415	17311
909.531	17208
909.647	16923
909.762	17029
909.878	16930
909.993	16881
910.108	16987
910.224	16934
910.339	16915
910.454	16831
910.57	16839
910.685	16691
910.8	16923
910.915	16919
911.03	16771
911.145	16512
911.259	16421
911.374	16550
911.489	16493
911.604	16417
911.718	16303
911.833	16219
911.947	16226
912.062	16048
912.176	16219
912.291	16284
912.405	16356
912.519	16337
912.633	16478
912.748	16265
912.862	16253
912.976	16101
913.09	15960
913.204	16078
913.318	16090
913.431	16150
913.545	16036
913.659	16139
913.772	16029
913.886	15945
914	15838
914.113	15956
914.226	15987
914.34	15861
914.453	15778
914.566	15823
914.68	15755
914.793	15671
914.906	15542
915.019	15564
915.132	15515
915.245	15454
915.358	15435
915.47	15492
915.583	15344
915.696	15473
915.809	15507
915.921	15561
916.034	15416
916.146	15389
916.259	15344
916.371	15389
916.483	15386
916.595	15237
916.708	15233
916.82	15332
916.932	15222
917.044	15180
917.156	15268
917.268	15157
917.38	15176
917.491	15043
917.603	15112
917.715	15173
917.826	15180
917.938	15020
918.049	14963
918.161	15005
918.272	15169
918.384	15165
918.495	15116
918.606	14925
918.717	14834
918.828	14929
918.939	14872
919.05	14785
919.161	14872
919.272	14636
919.383	14644
919.494	14857
919.604	14994
919.715	14857
919.826	14743
919.936	14861
920.047	14956
920.157	14876
920.267	15005
920.378	14823
920.488	14823
920.598	15017
920.708	15161
920.818	15039
920.928	14979
921.038	15070
921.148	14979
921.258	14842
921.368	14655
921.477	14606
921.587	14473
921.697	14499
921.806	14625
921.916	14450
922.025	14339
922.134	14176
922.244	14202
922.353	14187
922.462	14024
922.571	14046
922.68	13788
922.789	13906
922.898	13864
923.007	13807
923.116	13849
923.224	13788
923.333	13887
923.442	13685
923.55	13738
923.659	13712
923.767	13757
923.876	13620
923.984	13784
924.092	13556
924.201	13601
924.309	13559
924.417	13586
924.525	13506
924.633	13540
924.741	14282
924.849	13278
924.956	13476
925.064	13289
925.172	13129
925.279	13194
925.387	13320
925.494	13247
925.602	13381
925.709	13343
925.816	13187
925.924	13156
926.031	13270
926.138	13202
926.245	13297
926.352	13103
926.459	13202
926.566	13259
926.673	13149
926.779	13008
926.886	13114
926.993	12837
927.099	12787
927.206	12871
927.312	12688
927.419	12776
927.525	12787
927.631	12772
927.737	12715
927.843	12665
927.95	12513
928.056	12551
928.162	12585
928.267	12726
928.373	13259
928.479	12726
928.585	12471
928.69	12506
928.796	12604
928.901	12433
929.007	12334
929.112	12502
929.218	12437
929.323	12281
929.428	12243
929.533	12452
929.638	12311
929.743	12319
929.848	12391
929.953	12220
930.058	12133
930.163	12019
930.267	12019
930.372	12068
930.477	12026
930.581	12232
930.685	12060
930.79	11927
930.894	11908
930.998	11843
931.103	11927
931.207	11661
931.311	11543
931.415	11414
931.519	11334
931.623	11239
