Data from test_V78500241_3704.txt Node
Date: Fri Mar 25 16:07:27 CST 2022
User: usil
Spectrometer: V785-0024
Trigger mode: 0
Integration Time (sec): 4.000000E-1
Scans to average: 1
Nonlinearity correction enabled: false
Boxcar width: 0
Storing dark spectrum: false
XAxis mode: Wavelengths
Number of Pixels in Spectrum: 1024
>>>>>Begin Spectral Data<<<<<
801.071	28497
801.214	28367
801.356	28063
801.499	28086
801.641	28032
801.783	27972
801.926	28006
802.068	28048
802.211	27994
802.353	27861
802.496	27800
802.638	27713
802.78	27610
802.923	27576
803.065	27306
803.208	27511
803.35	27789
803.492	27846
803.635	27937
803.777	27720
803.919	27816
804.061	28154
804.204	27941
804.346	27823
804.488	27739
804.63	27861
804.773	27743
804.915	27949
805.057	27975
805.199	27842
805.341	28025
805.483	27903
805.626	28051
805.768	27914
805.91	28112
806.052	28055
806.194	27914
806.336	28287
806.478	28082
806.62	28150
806.762	28101
806.904	28314
807.046	28672
807.188	28470
807.33	28409
807.472	28569
807.614	28462
807.756	28405
807.898	28478
808.04	28276
808.182	28371
808.324	28382
808.465	28363
808.607	28527
808.749	28706
808.891	28805
809.033	28740
809.174	28740
809.316	28626
809.458	28675
809.6	28824
809.741	28908
809.883	28900
810.025	28949
810.166	28763
810.308	28927
810.45	28957
810.591	28911
810.733	28679
810.875	28554
811.016	28630
811.158	28592
811.299	28706
811.441	28953
811.582	28767
811.724	28733
811.865	28771
812.007	28679
812.148	28740
812.29	28949
812.431	28767
812.573	28987
812.714	29269
812.855	29136
812.997	29345
813.138	29490
813.279	29337
813.421	29326
813.562	29246
813.703	28976
813.845	28915
813.986	28615
814.127	28554
814.268	28409
814.41	28341
814.551	28386
814.692	28615
814.833	28398
814.974	28352
815.115	28401
815.256	28360
815.397	28306
815.539	28253
815.68	28257
815.821	28147
815.962	28265
816.103	28124
816.244	28181
816.385	28036
816.526	27922
816.666	27800
816.807	27644
816.948	27759
817.089	27899
817.23	27724
817.371	27732
817.512	27663
817.653	27876
817.793	27701
817.934	27648
818.075	27671
818.216	27789
818.356	27701
818.497	27698
818.638	27534
818.778	27485
818.919	27393
819.06	27534
819.2	27667
819.341	27778
819.481	27717
819.622	27937
819.762	28101
819.903	28082
820.043	27857
820.184	27926
820.324	27880
820.465	27937
820.605	27987
820.746	27835
820.886	27549
821.026	27884
821.167	27781
821.307	27785
821.447	27816
821.588	27679
821.728	27671
821.868	27370
822.008	27294
822.149	27142
822.289	27252
822.429	26902
822.569	26914
822.709	26876
822.849	26807
822.99	26887
823.13	26765
823.27	26705
823.41	26522
823.55	26568
823.69	26568
823.83	26598
823.97	26473
824.11	26206
824.25	26332
824.389	26434
824.529	26507
824.669	26366
824.809	26465
824.949	26412
825.089	26423
825.228	26366
825.368	26111
825.508	26145
825.648	26248
825.787	26320
825.927	26343
826.067	26278
826.206	26286
826.346	26339
826.485	26229
826.625	26206
826.765	26355
826.904	26290
827.044	25925
827.183	25989
827.323	25841
827.462	26031
827.601	25890
827.741	25841
827.88	25864
828.02	25909
828.159	25959
828.298	25963
828.437	25997
828.577	25921
828.716	25921
828.855	25776
828.994	25563
829.134	25628
829.273	25613
829.412	25628
829.551	25460
829.69	25639
829.829	25674
829.968	25753
830.107	25601
830.246	25590
830.385	25407
830.524	25491
830.663	25533
830.802	25285
830.941	25187
831.08	25187
831.219	25278
831.357	25217
831.496	25445
831.635	25320
831.774	25171
831.913	25095
832.051	25000
832.19	25019
832.329	25050
832.467	24962
832.606	24901
832.744	24829
832.883	24844
833.022	24844
833.16	24886
833.299	24920
833.437	24901
833.576	25046
833.714	25000
833.852	25008
833.991	25110
834.129	24970
834.267	24939
834.406	24909
834.544	24985
834.682	24966
834.821	24966
834.959	25209
835.097	24882
835.235	24973
835.373	24935
835.511	24943
835.65	24795
835.788	24696
835.926	24741
836.064	24639
836.202	24688
836.34	24764
836.478	24821
836.615	24817
836.753	24825
836.891	24791
837.029	24768
837.167	24707
837.305	24802
837.443	24677
837.58	24654
837.718	24757
837.856	24669
837.993	24544
838.131	24741
838.269	24422
838.406	24490
838.544	24380
838.681	24251
838.819	24194
838.956	24011
839.094	24060
839.231	24243
839.369	24258
839.506	24544
839.643	24300
839.781	24098
839.918	24102
840.055	24091
840.193	24038
840.33	24064
840.467	24060
840.604	24114
840.742	24178
840.879	23931
841.016	23961
841.153	23958
841.29	24038
841.427	23946
841.564	24015
841.701	23999
841.838	23882
841.975	23790
842.112	23965
842.249	23863
842.385	23923
842.522	23992
842.659	23798
842.796	23710
842.933	23745
843.069	23695
843.206	23687
843.343	23794
843.479	23737
843.616	23760
843.752	23646
843.889	23455
844.025	23710
844.162	23433
844.298	23619
844.435	23535
844.571	23509
844.708	23554
844.844	23634
844.98	23524
845.117	23592
845.253	23551
845.389	23341
845.525	23471
845.661	23391
845.798	23174
845.934	23387
846.07	23337
846.206	23242
846.342	23482
846.478	23174
846.614	23098
846.75	22946
846.886	22930
847.022	23105
847.158	23075
847.294	23140
847.429	23014
847.565	22957
847.701	23117
847.837	22630
847.972	22710
848.108	22946
848.244	22793
848.379	22607
848.515	22561
848.65	22573
848.786	22611
848.921	22519
849.057	22740
849.192	22740
849.328	22755
849.463	22691
849.598	22527
849.734	22535
849.869	22428
850.004	22470
850.14	22371
850.275	22352
850.41	22348
850.545	22276
850.68	22306
850.815	22440
850.95	22204
851.085	22512
851.22	22485
851.355	22440
851.49	22329
851.625	22226
851.76	22341
851.895	22382
852.03	22253
852.165	22219
852.299	22356
852.434	22538
852.569	22329
852.703	22394
852.838	22409
852.973	22493
853.107	22432
853.242	22249
853.376	22131
853.511	22006
853.645	22219
853.78	22196
853.914	22173
854.048	22090
854.183	22219
854.317	22223
854.451	22394
854.585	22215
854.72	22204
854.854	22367
854.988	22093
855.122	22207
855.256	22124
855.39	22150
855.524	22230
855.658	22207
855.792	22303
855.926	22223
856.06	22253
856.194	22318
856.327	22105
856.461	22211
856.595	22059
856.729	22246
856.862	22204
856.996	22219
857.13	22295
857.263	22219
857.397	22204
857.53	22128
857.664	22177
857.797	22200
857.931	22280
858.064	22230
858.197	22306
858.331	22238
858.464	22105
858.597	21972
858.731	22169
858.864	22120
858.997	22120
859.13	22211
859.263	22150
859.396	22276
859.529	22109
859.662	22150
859.795	22055
859.928	22268
860.061	22322
860.194	22390
860.327	22070
860.46	22078
860.592	22188
860.725	22367
860.858	22344
860.99	22325
861.123	22188
861.256	22120
861.388	22166
861.521	22752
861.653	22048
861.786	21956
861.918	21911
862.05	22013
862.183	22082
862.315	22051
862.447	22112
862.58	22082
862.712	21888
862.844	22013
862.976	21937
863.108	21873
863.24	22272
863.372	21873
863.504	21838
863.636	21804
863.768	21861
863.9	21793
864.032	21903
864.164	21888
864.296	21892
864.428	21949
864.559	21983
864.691	21835
864.823	21937
864.954	21884
865.086	21865
865.217	21778
865.349	21648
865.48	21679
865.612	21698
865.743	21838
865.875	21663
866.006	21804
866.137	21797
866.269	21732
866.4	21747
866.531	21804
866.662	21686
866.793	21709
866.924	21637
867.055	21797
867.186	21701
867.317	21728
867.448	21580
867.579	21660
867.71	21698
867.841	21648
867.972	21690
868.103	21587
868.233	21713
868.364	21675
868.495	21812
868.625	21842
868.756	21956
868.886	21850
869.017	21876
869.147	22048
869.278	22082
869.408	21922
869.539	22032
869.669	22017
869.799	22029
869.929	21975
870.06	22135
870.19	22253
870.32	22204
870.45	22238
870.58	22382
870.71	22363
870.84	22428
870.97	22402
871.1	22276
871.23	22352
871.36	22550
871.489	22455
871.619	22432
871.749	22622
871.879	22626
872.008	22664
872.138	22607
872.267	22634
872.397	22348
872.526	22314
872.656	22344
872.785	22348
872.915	22641
873.044	22615
873.173	22561
873.303	22599
873.432	22626
873.561	22603
873.69	22626
873.819	22634
873.948	22615
874.077	22645
874.206	22417
874.335	22603
874.464	22630
874.593	22866
874.722	22797
874.851	22847
874.979	22816
875.108	22809
875.237	22706
875.365	22706
875.494	22634
875.623	22881
875.751	22702
875.88	22733
876.008	22961
876.136	22976
876.265	23239
876.393	23353
876.521	23235
876.65	23235
876.778	23124
876.906	23174
877.034	23170
877.162	23189
877.29	23132
877.418	23044
877.546	23071
877.674	23197
877.802	23174
877.93	23132
878.058	23033
878.185	22980
878.313	23056
878.441	23102
878.568	22980
878.696	23235
878.824	23364
878.951	23193
879.079	23433
879.206	23334
879.333	23235
879.461	23170
879.588	23326
879.715	23356
879.842	23410
879.97	23170
880.097	23079
880.224	22961
880.351	22942
880.478	22949
880.605	22984
880.732	22991
880.859	23197
880.986	23006
881.112	22991
881.239	22877
881.366	22615
881.493	22615
881.619	22527
881.746	22615
881.872	22497
881.999	22432
882.125	22554
882.252	22603
882.378	22478
882.505	22599
882.631	22341
882.757	22272
882.883	22352
883.01	22219
883.136	22207
883.262	22055
883.388	22093
883.514	22207
883.64	22215
883.766	22036
883.892	21911
884.018	21922
884.143	22143
884.269	22257
884.395	21846
884.52	21823
884.646	21823
884.772	21751
884.897	21778
885.023	21861
885.148	21953
885.274	22029
885.399	21956
885.524	21701
885.65	21861
885.775	21816
885.9	21835
886.025	22017
886.15	21842
886.275	21728
886.4	21778
886.525	21865
886.65	21667
886.775	21694
886.9	21998
887.025	21998
887.149	21800
887.274	21515
887.399	21561
887.523	21614
887.648	21534
887.773	21458
887.897	21637
888.021	21637
888.146	21545
888.27	21728
888.395	21641
888.519	21591
888.643	21625
888.767	21766
888.891	21408
889.015	21473
889.139	21458
889.263	21412
889.387	21542
889.511	21591
889.635	21458
889.759	21378
889.883	21389
890.006	21351
890.13	21450
890.254	21291
890.377	21348
890.501	21146
890.624	21119
890.748	21127
890.871	21039
890.995	20967
891.118	20842
891.241	20975
891.364	20956
891.488	20956
891.611	20998
891.734	20796
891.857	21017
891.98	20883
892.103	20826
892.226	20979
892.349	20895
892.471	20712
892.594	20849
892.717	20826
892.839	20853
892.962	20804
893.085	20895
893.207	20823
893.33	20705
893.452	20815
893.575	20887
893.697	20838
893.819	21055
893.941	21066
894.064	20933
894.186	20864
894.308	20720
894.43	20773
894.552	20902
894.674	20838
894.796	20731
894.918	20781
895.04	20811
895.161	20868
895.283	20876
895.405	20838
895.526	20804
895.648	20853
895.769	20777
895.891	20819
896.012	20914
896.134	20914
896.255	20830
896.376	20819
896.498	20788
896.619	20872
896.74	20861
896.861	20853
896.982	21169
897.103	21214
897.224	21192
897.345	20918
897.466	20986
897.587	21028
897.708	21085
897.828	20998
897.949	21032
898.07	20891
898.19	20785
898.311	21135
898.431	20857
898.552	20929
898.672	21119
898.792	21070
898.913	21058
899.033	20876
899.153	20910
899.273	20724
899.393	20746
899.513	20876
899.633	20777
899.753	20800
899.873	20674
899.993	20807
900.113	20667
900.232	20731
900.352	20674
900.472	20541
900.591	20419
900.711	20587
900.83	20465
900.95	20590
901.069	20640
901.189	20404
901.308	20161
901.427	20027
901.546	20111
901.665	20183
901.784	20069
901.904	20008
902.023	19921
902.141	19742
902.26	19685
902.379	19765
902.498	19708
902.617	19567
902.735	19643
902.854	19480
902.973	19491
903.091	19377
903.21	19354
903.328	19293
903.446	19122
903.565	19076
903.683	19183
903.801	18886
903.919	18981
904.038	18981
904.156	18859
904.274	18878
904.392	18802
904.51	18787
904.627	18787
904.745	18863
904.863	18882
904.981	18673
905.098	18574
905.216	18407
905.334	18639
905.451	18521
905.569	18452
905.686	18620
905.803	18452
905.921	18273
906.038	18350
906.155	18479
906.272	18292
906.389	18186
906.506	18003
906.623	18076
906.74	18003
906.857	17996
906.974	17988
907.091	18201
907.208	18190
907.324	18148
907.441	17863
907.557	17764
907.674	17805
907.79	17653
907.907	17733
908.023	17745
908.139	17710
908.256	17714
908.372	17619
908.488	17653
908.604	17520
908.72	17349
908.836	17501
908.952	17372
909.068	17543
909.184	17520
909.3	17414
909.415	17448
909.531	17490
909.647	17140
909.762	17227
909.878	17128
909.993	17311
910.108	17128
910.224	17083
910.339	17181
910.454	17067
910.57	16961
910.685	16892
910.8	17166
910.915	17159
911.03	17056
911.145	16683
911.259	16683
911.374	16752
911.489	16710
911.604	16599
911.718	16462
911.833	16561
911.947	16428
912.062	16322
912.176	16470
912.291	16470
912.405	16500
912.519	16683
912.633	16713
912.748	16519
912.862	16440
912.976	16306
913.09	16147
913.204	16230
913.318	16333
913.431	16333
913.545	16424
913.659	16382
913.772	16246
913.886	16093
914	16055
914.113	16166
914.226	16204
914.34	16169
914.453	15953
914.566	16124
914.68	15895
914.793	15804
914.906	15774
915.019	15614
915.132	15542
915.245	15622
915.358	15675
915.47	15686
915.583	15652
915.696	15671
915.809	15823
915.921	15789
916.034	15606
916.146	15500
916.259	15561
916.371	15526
916.483	15534
916.595	15587
916.708	15408
916.82	15511
916.932	15447
917.044	15523
917.156	15340
917.268	15272
917.38	15363
917.491	15336
917.603	15287
917.715	15348
917.826	15435
917.938	15275
918.049	15157
918.161	15233
918.272	15393
918.384	15443
918.495	15260
918.606	15070
918.717	14918
918.828	15047
918.939	15051
919.05	15039
919.161	15066
919.272	14823
919.383	14895
919.494	15085
919.604	15211
919.715	14929
919.826	14883
919.936	14918
920.047	15047
920.157	15055
920.267	15264
920.378	14918
920.488	14960
920.598	15081
920.708	15211
920.818	15074
920.928	15199
921.038	15306
921.148	15226
921.258	15009
921.368	14853
921.477	14769
921.587	14644
921.697	14568
921.806	14716
921.916	14659
922.025	14450
922.134	14408
922.244	14381
922.353	14400
922.462	14199
922.571	14134
922.68	13986
922.789	13982
922.898	14035
923.007	13913
923.116	14001
923.224	14039
923.333	14016
923.442	13902
923.55	13830
923.659	13917
923.767	13898
923.876	13799
923.984	13841
924.092	13670
924.201	13852
924.309	13651
924.417	13750
924.525	13662
924.633	13662
924.741	14454
924.849	13514
924.956	13525
925.064	13373
925.172	13320
925.279	13384
925.387	13422
925.494	13346
925.602	13495
925.709	13491
925.816	13263
925.924	13308
926.031	13434
926.138	13221
926.245	13445
926.352	13255
926.459	13312
926.566	13388
926.673	13247
926.779	13103
926.886	13133
926.993	12939
927.099	12932
927.206	12829
927.312	12954
927.419	13050
927.525	12897
927.631	12928
927.737	12844
927.843	12871
927.95	12681
928.056	12783
928.162	12829
928.267	12848
928.373	13457
928.479	12875
928.585	12627
928.69	12669
928.796	12741
928.901	12688
929.007	12429
929.112	12494
929.218	12536
929.323	12521
929.428	12445
929.533	12700
929.638	12407
929.743	12407
929.848	12513
929.953	12418
930.058	12292
930.163	12148
930.267	12224
930.372	12251
930.477	12072
930.581	12304
930.685	12194
930.79	12098
930.894	12053
930.998	12034
931.103	12030
931.207	11832
931.311	11657
931.415	11672
931.519	11463
931.623	11459
