Data from test_V78500241_427.txt Node
Date: Fri Mar 25 15:44:45 CST 2022
User: usil
Spectrometer: V785-0024
Trigger mode: 0
Integration Time (sec): 4.000000E-1
Scans to average: 1
Nonlinearity correction enabled: false
Boxcar width: 0
Storing dark spectrum: false
XAxis mode: Wavelengths
Number of Pixels in Spectrum: 1024
>>>>>Begin Spectral Data<<<<<
801.071	28386
801.214	28375
801.356	28166
801.499	28044
801.641	28025
801.783	27945
801.926	28002
802.068	27797
802.211	27831
802.353	27808
802.496	27656
802.638	27564
802.78	27720
802.923	27599
803.065	27568
803.208	27679
803.35	27492
803.492	27591
803.635	27739
803.777	27694
803.919	27644
804.061	28055
804.204	27694
804.346	27591
804.488	27648
804.63	27736
804.773	27606
804.915	27781
805.057	27759
805.199	27736
805.341	27789
805.483	27861
805.626	27800
805.768	27671
805.91	27793
806.052	27846
806.194	27641
806.336	27983
806.478	27907
806.62	27835
806.762	28010
806.904	28154
807.046	28348
807.188	28303
807.33	28295
807.472	28371
807.614	28230
807.756	28105
807.898	28162
808.04	28055
808.182	28059
808.324	28105
808.465	28200
808.607	28360
808.749	28512
808.891	28478
809.033	28679
809.174	28622
809.316	28538
809.458	28535
809.6	28409
809.741	28557
809.883	28645
810.025	28786
810.166	28668
810.308	28622
810.45	28672
810.591	28687
810.733	28455
810.875	28375
811.016	28299
811.158	28306
811.299	28577
811.441	28645
811.582	28691
811.724	28409
811.865	28481
812.007	28375
812.148	28428
812.29	28436
812.431	28569
812.573	28767
812.714	28828
812.855	28991
812.997	28984
813.138	29277
813.279	29037
813.421	28968
813.562	28820
813.703	28660
813.845	28687
813.986	28371
814.127	28204
814.268	28078
814.41	27968
814.551	28002
814.692	28025
814.833	27994
814.974	28109
815.115	28181
815.256	27960
815.397	27880
815.539	27960
815.68	27831
815.821	27739
815.962	27869
816.103	27895
816.244	27838
816.385	27720
816.526	27454
816.666	27310
816.807	27264
816.948	27412
817.089	27401
817.23	27325
817.371	27264
817.512	27439
817.653	27252
817.793	27351
817.934	27230
818.075	27291
818.216	27367
818.356	27302
818.497	27036
818.638	27047
818.778	26952
818.919	27070
819.06	27184
819.2	27237
819.341	27302
819.481	27298
819.622	27298
819.762	27671
819.903	27507
820.043	27458
820.184	27325
820.324	27230
820.465	27462
820.605	27378
820.746	27397
820.886	27230
821.026	27218
821.167	27283
821.307	27363
821.447	27466
821.588	27085
821.728	26982
821.868	26796
822.008	26948
822.149	26632
822.289	26785
822.429	26431
822.569	26191
822.709	26431
822.849	26218
822.99	26210
823.13	26111
823.27	26039
823.41	26100
823.55	25818
823.69	26062
823.83	26058
823.97	25871
824.11	25940
824.25	25715
824.389	25803
824.529	25932
824.669	25879
824.809	25772
824.949	25928
825.089	25909
825.228	25875
825.368	25753
825.508	25575
825.648	25693
825.787	25643
825.927	25628
826.067	25616
826.206	25674
826.346	25597
826.485	25651
826.625	25594
826.765	25795
826.904	25727
827.044	25449
827.183	25244
827.323	25331
827.462	25358
827.601	25278
827.741	25373
827.88	25339
828.02	25213
828.159	25232
828.298	25240
828.437	25464
828.577	25324
828.716	25479
828.855	25285
828.994	25027
829.134	25084
829.273	24973
829.412	25031
829.551	24882
829.69	24954
829.829	25072
829.968	25095
830.107	25118
830.246	25061
830.385	25084
830.524	25038
830.663	24951
830.802	24696
830.941	24665
831.08	24563
831.219	24776
831.357	24730
831.496	24932
831.635	24528
831.774	24665
831.913	24437
832.051	24319
832.19	24407
832.329	24330
832.467	24315
832.606	24369
832.744	24350
832.883	24258
833.022	24270
833.16	24121
833.299	24433
833.437	24273
833.576	24353
833.714	24361
833.852	24445
833.991	24483
834.129	24410
834.267	24327
834.406	24330
834.544	24277
834.682	24388
834.821	24296
834.959	24441
835.097	24296
835.235	24399
835.373	24292
835.511	24270
835.65	24140
835.788	24186
835.926	24053
836.064	23855
836.202	24072
836.34	24174
836.478	24258
836.615	24098
836.753	24102
836.891	24235
837.029	24030
837.167	23980
837.305	24057
837.443	24076
837.58	23958
837.718	23984
837.856	23988
837.993	23931
838.131	23939
838.269	23798
838.406	23783
838.544	23821
838.681	23516
838.819	23615
838.956	23307
839.094	23581
839.231	23524
839.369	23592
839.506	23794
839.643	23676
839.781	23421
839.918	23292
840.055	23448
840.193	23398
840.33	23353
840.467	23277
840.604	23433
840.742	23642
840.879	23204
841.016	23261
841.153	23208
841.29	23330
841.427	23200
841.564	23246
841.701	23258
841.838	23204
841.975	23181
842.112	23265
842.249	23208
842.385	23052
842.522	23311
842.659	23121
842.796	23060
842.933	22976
843.069	23067
843.206	22984
843.343	23094
843.479	22961
843.616	23037
843.752	22793
843.889	22729
844.025	23044
844.162	22660
844.298	22816
844.435	22771
844.571	22797
844.708	22797
844.844	22801
844.98	23003
845.117	22892
845.253	22675
845.389	22755
845.525	22656
845.661	22702
845.798	22390
845.934	22599
846.07	22573
846.206	22748
846.342	22603
846.478	22409
846.614	22325
846.75	22200
846.886	22124
847.022	22379
847.158	22280
847.294	22261
847.429	22360
847.565	22246
847.701	22413
847.837	21953
847.972	21960
848.108	22021
848.244	21953
848.379	21838
848.515	21941
848.65	21743
848.786	21831
848.921	21774
849.057	21876
849.192	21953
849.328	21736
849.463	21713
849.598	21819
849.734	21690
849.869	21682
850.004	21538
850.14	21641
850.275	21603
850.41	21450
850.545	21603
850.68	21557
850.815	21542
850.95	21504
851.085	21762
851.22	21511
851.355	21515
851.49	21538
851.625	21549
851.76	21545
851.895	21500
852.03	21382
852.165	21469
852.299	21542
852.434	21686
852.569	21526
852.703	21618
852.838	21572
852.973	21637
853.107	21633
853.242	21424
853.376	21428
853.511	21260
853.645	21348
853.78	21431
853.914	21310
854.048	21412
854.183	21310
854.317	21397
854.451	21488
854.585	21408
854.72	21351
854.854	21534
854.988	21325
855.122	21336
855.256	21127
855.39	21294
855.524	21306
855.658	21458
855.792	21469
855.926	21336
856.06	21370
856.194	21348
856.327	21348
856.461	21291
856.595	21340
856.729	21275
856.862	21488
856.996	21329
857.13	21447
857.263	21530
857.397	21374
857.53	21382
857.664	21458
857.797	21355
857.931	21458
858.064	21397
858.197	21355
858.331	21226
858.464	21218
858.597	21173
858.731	21344
858.864	21367
858.997	21351
859.13	21310
859.263	21386
859.396	21450
859.529	21336
859.662	21306
859.795	21195
859.928	21233
860.061	21408
860.194	21420
860.327	21313
860.46	21249
860.592	21485
860.725	21458
860.858	21401
860.99	21260
861.123	21302
861.256	21363
861.388	21252
861.521	21911
861.653	21135
861.786	21039
861.918	21142
862.05	21260
862.183	21241
862.315	21291
862.447	21332
862.58	21214
862.712	21116
862.844	21005
862.976	21173
863.108	20986
863.24	21572
863.372	20948
863.504	21013
863.636	21028
863.768	20982
863.9	21089
864.032	20948
864.164	20971
864.296	20994
864.428	21116
864.559	21165
864.691	21051
864.823	21089
864.954	20929
865.086	20918
865.217	21020
865.349	20830
865.48	20941
865.612	20944
865.743	21108
865.875	20918
866.006	20887
866.137	20857
866.269	20864
866.4	20948
866.531	20849
866.662	20830
866.793	20849
866.924	20929
867.055	20906
867.186	20826
867.317	20739
867.448	20651
867.579	20861
867.71	20792
867.841	20796
867.972	20731
868.103	20811
868.233	20967
868.364	20811
868.495	20929
868.625	21131
868.756	21249
868.886	20960
869.017	21138
869.147	21241
869.278	21199
869.408	21020
869.539	21173
869.669	21127
869.799	21176
869.929	21230
870.06	21184
870.19	21332
870.32	21287
870.45	21386
870.58	21389
870.71	21591
870.84	21629
870.97	21515
871.1	21416
871.23	21633
871.36	21686
871.489	21519
871.619	21686
871.749	21675
871.879	21690
872.008	21797
872.138	21709
872.267	21736
872.397	21618
872.526	21507
872.656	21580
872.785	21595
872.915	21618
873.044	21633
873.173	21736
873.303	21770
873.432	21660
873.561	21873
873.69	21686
873.819	21766
873.948	21797
874.077	21701
874.206	21576
874.335	21686
874.464	21781
874.593	22078
874.722	21895
874.851	21945
874.979	21956
875.108	21991
875.237	21865
875.365	21873
875.494	21949
875.623	21899
875.751	21895
875.88	21884
876.008	22051
876.136	22105
876.265	22314
876.393	22432
876.521	22268
876.65	22440
876.778	22325
876.906	22284
877.034	22147
877.162	22246
877.29	22268
877.418	22272
877.546	22352
877.674	22124
877.802	22116
877.93	22299
878.058	22181
878.185	22078
878.313	22200
878.441	22280
878.568	22093
878.696	22154
878.824	22306
878.951	22363
879.079	22375
879.206	22618
879.333	22466
879.461	22299
879.588	22299
879.715	22546
879.842	22596
879.97	22371
880.097	22242
880.224	22101
880.351	22147
880.478	22219
880.605	22128
880.732	22128
880.859	22424
880.986	22139
881.112	22078
881.239	21979
881.366	21960
881.493	21781
881.619	21850
881.746	21690
881.872	21724
881.999	21701
882.125	21656
882.252	21671
882.378	21690
882.505	21675
882.631	21534
882.757	21473
882.883	21447
883.01	21393
883.136	21363
883.262	21252
883.388	21283
883.514	21294
883.64	21389
883.766	21340
883.892	21249
884.018	21237
884.143	21416
884.269	21576
884.395	21207
884.52	21036
884.646	20857
884.772	20910
884.897	20925
885.023	20994
885.148	21131
885.274	21188
885.399	21214
885.524	21024
885.65	20967
885.775	21020
885.9	20979
886.025	21055
886.15	21222
886.275	20918
886.4	20800
886.525	21032
886.65	21001
886.775	20982
886.9	21146
887.025	21264
887.149	21013
887.274	20823
887.399	20773
887.523	20777
887.648	20689
887.773	20765
887.897	20777
888.021	20773
888.146	20785
888.27	20914
888.395	20834
888.519	20693
888.643	20724
888.767	20823
888.891	20617
889.015	20507
889.139	20754
889.263	20583
889.387	20674
889.511	20804
889.635	20754
889.759	20556
889.883	20511
890.006	20648
890.13	20743
890.254	20442
890.377	20484
890.501	20362
890.624	20218
890.748	20385
890.871	20240
890.995	20187
891.118	20111
891.241	20096
891.364	20271
891.488	20317
891.611	20164
891.734	20206
891.857	20084
891.98	20115
892.103	20183
892.226	20065
892.349	20073
892.471	19982
892.594	20142
892.717	20100
892.839	20039
892.962	20073
893.085	19993
893.207	20065
893.33	19928
893.452	19989
893.575	20062
893.697	20001
893.819	20286
893.941	20271
894.064	20134
894.186	20016
894.308	19845
894.43	20073
894.552	20252
894.674	20119
894.796	19898
894.918	20119
895.04	19986
895.161	20210
895.283	20046
895.405	20012
895.526	19982
895.648	20077
895.769	20077
895.891	20096
896.012	20142
896.134	20214
896.255	20161
896.376	20149
896.498	20107
896.619	20138
896.74	20096
896.861	20142
896.982	20484
897.103	20583
897.224	20522
897.345	20317
897.466	20187
897.587	20248
897.708	20476
897.828	20351
897.949	20320
898.07	20073
898.19	20218
898.311	20320
898.431	20134
898.552	20313
898.672	20328
898.792	20408
898.913	20278
899.033	20138
899.153	20100
899.273	19947
899.393	19997
899.513	20069
899.633	20092
899.753	20058
899.873	20016
899.993	19986
900.113	19947
900.232	20008
900.352	19875
900.472	19871
900.591	19753
900.711	19913
900.83	19723
900.95	19909
901.069	19902
901.189	19723
901.308	19464
901.427	19476
901.546	19415
901.665	19529
901.784	19411
901.904	19217
902.023	19240
902.141	19046
902.26	18939
902.379	18943
902.498	18935
902.617	18897
902.735	18909
902.854	18833
902.973	18939
903.091	18517
903.21	18566
903.328	18570
903.446	18486
903.565	18403
903.683	18350
903.801	18209
903.919	18323
904.038	18338
904.156	18239
904.274	18190
904.392	18144
904.51	18083
904.627	18114
904.745	18178
904.863	18186
904.981	17931
905.098	17897
905.216	17824
905.334	17817
905.451	17821
905.569	17832
905.686	17798
905.803	17866
905.921	17695
906.038	17672
906.155	17551
906.272	17452
906.389	17497
906.506	17474
906.623	17395
906.74	17307
906.857	17090
906.974	17311
907.091	17436
907.208	17486
907.324	17376
907.441	17212
907.557	17128
907.674	16987
907.79	17033
907.907	16972
908.023	17102
908.139	17029
908.256	16911
908.372	16961
908.488	16752
908.604	16748
908.72	16725
908.836	16706
908.952	16687
909.068	16706
909.184	16740
909.3	16660
909.415	16713
909.531	16630
909.647	16413
909.762	16519
909.878	16432
909.993	16500
910.108	16462
910.224	16402
910.339	16413
910.454	16268
910.57	16188
910.685	16173
910.8	16360
910.915	16459
911.03	16265
911.145	16124
911.259	16078
911.374	16071
911.489	15960
911.604	15972
911.718	15838
911.833	15785
911.947	15701
912.062	15618
912.176	15739
912.291	15835
912.405	15667
912.519	15991
912.633	15941
912.748	15770
912.862	15797
912.976	15614
913.09	15534
913.204	15515
913.318	15515
913.431	15622
913.545	15545
913.659	15561
913.772	15553
913.886	15435
914	15302
914.113	15576
914.226	15431
914.34	15443
914.453	15317
914.566	15477
914.68	15249
914.793	15298
914.906	15093
915.019	14975
915.132	14941
915.245	14986
915.358	15036
915.47	14986
915.583	14948
915.696	14861
915.809	15077
915.921	15180
916.034	15074
916.146	14819
916.259	14941
916.371	14971
916.483	14902
916.595	14861
916.708	14834
916.82	14842
916.932	14796
917.044	14762
917.156	14807
917.268	14594
917.38	14701
917.491	14606
917.603	14686
917.715	14686
917.826	14724
917.938	14617
918.049	14461
918.161	14530
918.272	14670
918.384	14712
918.495	14556
918.606	14408
918.717	14381
918.828	14393
918.939	14431
919.05	14355
919.161	14339
919.272	14202
919.383	14183
919.494	14389
919.604	14530
919.715	14374
919.826	14298
919.936	14278
920.047	14442
920.157	14343
920.267	14549
920.378	14419
920.488	14298
920.598	14655
920.708	14701
920.818	14552
920.928	14431
921.038	14598
921.148	14594
921.258	14271
921.368	14214
921.477	14145
921.587	14103
921.697	13963
921.806	14065
921.916	13978
922.025	13784
922.134	13780
922.244	13613
922.353	13727
922.462	13658
922.571	13556
922.68	13441
922.789	13365
922.898	13324
923.007	13327
923.116	13457
923.224	13400
923.333	13206
923.442	13270
923.55	13244
923.659	13278
923.767	13228
923.876	13061
923.984	13221
924.092	13187
924.201	13118
924.309	13141
924.417	13091
924.525	13110
924.633	13050
924.741	13811
924.849	12814
924.956	12981
925.064	12886
925.172	12749
925.279	12795
925.387	12852
925.494	12768
925.602	12901
925.709	12844
925.816	12715
925.924	12715
926.031	12863
926.138	12776
926.245	12741
926.352	12665
926.459	12791
926.566	12825
926.673	12703
926.779	12612
926.886	12544
926.993	12410
927.099	12418
927.206	12350
927.312	12251
927.419	12525
927.525	12350
927.631	12464
927.737	12319
927.843	12270
927.95	12114
928.056	12114
928.162	12133
928.267	12167
928.373	12825
928.479	12235
928.585	12072
928.69	12213
928.796	12125
928.901	12083
929.007	11958
929.112	12121
929.218	11977
929.323	11988
929.428	11950
929.533	12064
929.638	11954
929.743	11897
929.848	11923
929.953	11832
930.058	11790
930.163	11638
930.267	11657
930.372	11817
930.477	11528
930.581	11809
930.685	11714
930.79	11516
930.894	11429
930.998	11497
931.103	11627
931.207	11239
931.311	11174
931.415	11075
931.519	10930
931.623	10892
