Data from test_V78500241_2235.txt Node
Date: Fri Mar 25 15:57:17 CST 2022
User: usil
Spectrometer: V785-0024
Trigger mode: 0
Integration Time (sec): 4.000000E-1
Scans to average: 1
Nonlinearity correction enabled: false
Boxcar width: 0
Storing dark spectrum: false
XAxis mode: Wavelengths
Number of Pixels in Spectrum: 1024
>>>>>Begin Spectral Data<<<<<
801.071	29105
801.214	29060
801.356	28797
801.499	28782
801.641	28706
801.783	28675
801.926	28805
802.068	28729
802.211	28618
802.353	28554
802.496	28318
802.638	28398
802.78	28398
802.923	28265
803.065	28147
803.208	28276
803.35	28386
803.492	28607
803.635	28557
803.777	28504
803.919	28588
804.061	28881
804.204	28630
804.346	28668
804.488	28542
804.63	28577
804.773	28413
804.915	28790
805.057	28740
805.199	28542
805.341	28622
805.483	28809
805.626	28790
805.768	28672
805.91	28611
806.052	28961
806.194	28805
806.336	28953
806.478	28797
806.62	28873
806.762	28942
806.904	29029
807.046	29459
807.188	29280
807.33	29246
807.472	29425
807.614	29197
807.756	29162
807.898	29003
808.04	29151
808.182	29128
808.324	29121
808.465	29132
808.607	29349
808.749	29349
808.891	29596
809.033	29634
809.174	29604
809.316	29459
809.458	29611
809.6	29459
809.741	29627
809.883	29672
810.025	29737
810.166	29710
810.308	29813
810.45	29653
810.591	29627
810.733	29436
810.875	29421
811.016	29395
811.158	29509
811.299	29535
811.441	29726
811.582	29783
811.724	29486
811.865	29474
812.007	29539
812.148	29501
812.29	29531
812.431	29630
812.573	29897
812.714	30060
812.855	30038
812.997	30232
813.138	30342
813.279	30110
813.421	30152
813.562	30011
813.703	29954
813.845	29676
813.986	29570
814.127	29417
814.268	29322
814.41	29307
814.551	29090
814.692	29326
814.833	29185
814.974	29204
815.115	29372
815.256	29067
815.397	29113
815.539	29075
815.68	29113
815.821	29102
815.962	29033
816.103	29090
816.244	28927
816.385	28885
816.526	28831
816.666	28611
816.807	28569
816.948	28641
817.089	28615
817.23	28679
817.371	28649
817.512	28622
817.653	28664
817.793	28531
817.934	28542
818.075	28554
818.216	28554
818.356	28485
818.497	28325
818.638	28344
818.778	28253
818.919	28337
819.06	28401
819.2	28455
819.341	28630
819.481	28649
819.622	28752
819.762	28904
819.903	28824
820.043	28866
820.184	28778
820.324	28679
820.465	28752
820.605	28675
820.746	28774
820.886	28603
821.026	28771
821.167	28615
821.307	28862
821.447	28763
821.588	28573
821.728	28565
821.868	28196
822.008	28093
822.149	28059
822.289	28070
822.429	27637
822.569	27789
822.709	27743
822.849	27618
822.99	27561
823.13	27526
823.27	27363
823.41	27435
823.55	27272
823.69	27374
823.83	27321
823.97	27268
824.11	27214
824.25	27188
824.389	27329
824.529	27367
824.669	27359
824.809	27348
824.949	27332
825.089	27344
825.228	27150
825.368	27104
825.508	27119
825.648	27104
825.787	27096
825.927	27142
826.067	27062
826.206	27218
826.346	27131
826.485	27199
826.625	27077
826.765	27180
826.904	27207
827.044	26868
827.183	27009
827.323	26895
827.462	26929
827.601	26868
827.741	26785
827.88	26674
828.02	26674
828.159	26804
828.298	26940
828.437	26914
828.577	26682
828.716	26914
828.855	26716
828.994	26480
829.134	26393
829.273	26617
829.412	26514
829.551	26587
829.69	26579
829.829	26560
829.968	26602
830.107	26461
830.246	26598
830.385	26328
830.524	26461
830.663	26393
830.802	26282
830.941	26100
831.08	26046
831.219	26088
831.357	26202
831.496	26374
831.635	26073
831.774	26008
831.913	26054
832.051	25955
832.19	25932
832.329	25841
832.467	25761
832.606	25750
832.744	25788
832.883	25715
833.022	25742
833.16	25776
833.299	25772
833.437	25799
833.576	25951
833.714	25902
833.852	25963
833.991	25887
834.129	26050
834.267	26016
834.406	25883
834.544	25841
834.682	25906
834.821	25742
834.959	26100
835.097	25868
835.235	25978
835.373	25803
835.511	25845
835.65	25708
835.788	25719
835.926	25548
836.064	25453
836.202	25544
836.34	25681
836.478	26016
836.615	25567
836.753	25655
836.891	25712
837.029	25666
837.167	25548
837.305	25510
837.443	25533
837.58	25529
837.718	25605
837.856	25677
837.993	25381
838.131	25441
838.269	25381
838.406	25388
838.544	25236
838.681	25114
838.819	25160
838.956	24837
839.094	24882
839.231	24954
839.369	25099
839.506	25282
839.643	25171
839.781	24928
839.918	24764
840.055	24909
840.193	24875
840.33	24844
840.467	24787
840.604	24867
840.742	25107
840.879	24692
841.016	24814
841.153	24856
841.29	24916
841.427	24817
841.564	24886
841.701	24856
841.838	24817
841.975	24734
842.112	24677
842.249	24673
842.385	24627
842.522	24696
842.659	24608
842.796	24547
842.933	24715
843.069	24555
843.206	24445
843.343	24661
843.479	24604
843.616	24589
843.752	24475
843.889	24384
844.025	24505
844.162	24243
844.298	24433
844.435	24479
844.571	24308
844.708	24384
844.844	24582
844.98	24464
845.117	24429
845.253	24323
845.389	24201
845.525	24296
845.661	24155
845.798	24057
845.934	24030
846.07	24053
846.206	24079
846.342	24327
846.478	24060
846.614	23889
846.75	23790
846.886	23817
847.022	23821
847.158	23840
847.294	23855
847.429	23836
847.565	23752
847.701	23961
847.837	23589
847.972	23680
848.108	23760
848.244	23581
848.379	23501
848.515	23497
848.65	23379
848.786	23356
848.921	23406
849.057	23433
849.192	23573
849.328	23482
849.463	23482
849.598	23444
849.734	23303
849.869	23345
850.004	23288
850.14	23368
850.275	23109
850.41	23147
850.545	22991
850.68	23162
850.815	23178
850.95	23185
851.085	23341
851.22	23452
851.355	23193
851.49	23197
851.625	23128
851.76	23128
851.895	23052
852.03	23041
852.165	23162
852.299	23258
852.434	23254
852.569	23208
852.703	23189
852.838	23197
852.973	23334
853.107	23368
853.242	23143
853.376	23048
853.511	22984
853.645	23025
853.78	23094
853.914	23155
854.048	22915
854.183	22976
854.317	22938
854.451	23166
854.585	23006
854.72	22908
854.854	23067
854.988	22934
855.122	22961
855.256	22862
855.39	22946
855.524	22976
855.658	23083
855.792	23094
855.926	22965
856.06	22995
856.194	23041
856.327	22999
856.461	22987
856.595	23052
856.729	22968
856.862	23041
856.996	23086
857.13	23155
857.263	23006
857.397	23121
857.53	23064
857.664	23102
857.797	22881
857.931	23235
858.064	23060
858.197	23212
858.331	22957
858.464	22873
858.597	22972
858.731	23003
858.864	22805
858.997	22847
859.13	22946
859.263	22995
859.396	23208
859.529	22961
859.662	22968
859.795	22957
859.928	23071
860.061	23170
860.194	23143
860.327	23041
860.46	23022
860.592	23124
860.725	23147
860.858	23079
860.99	22999
861.123	22942
861.256	22881
861.388	23075
861.521	23665
861.653	22949
861.786	22797
861.918	22927
862.05	22869
862.183	22793
862.315	22919
862.447	23018
862.58	22896
862.712	22611
862.844	22577
862.976	22752
863.108	22668
863.24	23189
863.372	22713
863.504	22660
863.636	22649
863.768	22729
863.9	22721
864.032	22550
864.164	22523
864.296	22527
864.428	22725
864.559	22843
864.691	22793
864.823	22740
864.954	22691
865.086	22577
865.217	22653
865.349	22421
865.48	22569
865.612	22470
865.743	22656
865.875	22580
866.006	22561
866.137	22550
866.269	22409
866.4	22371
866.531	22573
866.662	22500
866.793	22481
866.924	22474
867.055	22409
867.186	22447
867.317	22447
867.448	22542
867.579	22344
867.71	22493
867.841	22409
867.972	22470
868.103	22398
868.233	22508
868.364	22523
868.495	22649
868.625	22641
868.756	22843
868.886	22607
869.017	22702
869.147	22793
869.278	22908
869.408	22664
869.539	22668
869.669	22809
869.799	22843
869.929	22793
870.06	22816
870.19	22995
870.32	23052
870.45	23124
870.58	23193
870.71	23128
870.84	23265
870.97	23136
871.1	23067
871.23	23254
871.36	23330
871.489	23235
871.619	23376
871.749	23349
871.879	23273
872.008	23395
872.138	23246
872.267	23292
872.397	23212
872.526	23174
872.656	23147
872.785	23136
872.915	23250
873.044	23353
873.173	23364
873.303	23436
873.432	23455
873.561	23509
873.69	23315
873.819	23349
873.948	23349
874.077	23277
874.206	23284
874.335	23383
874.464	23410
874.593	23459
874.722	23459
874.851	23463
874.979	23474
875.108	23710
875.237	23562
875.365	23471
875.494	23611
875.623	23592
875.751	23493
875.88	23471
876.008	23657
876.136	23710
876.265	23889
876.393	24060
876.521	24144
876.65	24114
876.778	23935
876.906	23885
877.034	23813
877.162	23988
877.29	23836
877.418	23885
877.546	24007
877.674	23855
877.802	23916
877.93	23790
878.058	23961
878.185	23767
878.313	23745
878.441	23767
878.568	23722
878.696	23794
878.824	23893
878.951	24018
879.079	24106
879.206	24022
879.333	24064
879.461	23904
879.588	23885
879.715	24140
879.842	24106
879.97	23847
880.097	23813
880.224	23752
880.351	23752
880.478	23756
880.605	23528
880.732	23600
880.859	23802
880.986	23649
881.112	23756
881.239	23638
881.366	23509
881.493	23379
881.619	23269
881.746	23250
881.872	23254
881.999	23193
882.125	23322
882.252	23212
882.378	23235
882.505	23368
882.631	23090
882.757	22946
882.883	22965
883.01	22881
883.136	22904
883.262	22630
883.388	22694
883.514	22949
883.64	22946
883.766	22752
883.892	22729
884.018	22713
884.143	22889
884.269	23064
884.395	22596
884.52	22493
884.646	22527
884.772	22341
884.897	22489
885.023	22508
885.148	22500
885.274	22717
885.399	22634
885.524	22599
885.65	22550
885.775	22440
885.9	22542
886.025	22603
886.15	22565
886.275	22592
886.4	22554
886.525	22394
886.65	22402
886.775	22409
886.9	22653
887.025	22675
887.149	22542
887.274	22440
887.399	22344
887.523	22295
887.648	22287
887.773	22192
887.897	22265
888.021	22318
888.146	22185
888.27	22447
888.395	22261
888.519	22322
888.643	22348
888.767	22421
888.891	22299
889.015	22044
889.139	22185
889.263	22002
889.387	22242
889.511	22181
889.635	22207
889.759	22051
889.883	22017
890.006	22173
890.13	22173
890.254	22002
890.377	21979
890.501	21827
890.624	21759
890.748	21869
890.871	21766
890.995	21576
891.118	21564
891.241	21614
891.364	21720
891.488	21641
891.611	21743
891.734	21641
891.857	21637
891.98	21705
892.103	21606
892.226	21660
892.349	21591
892.471	21496
892.594	21424
892.717	21603
892.839	21416
892.962	21511
893.085	21580
893.207	21572
893.33	21397
893.452	21241
893.575	21530
893.697	21583
893.819	21618
893.941	21701
894.064	21648
894.186	21374
894.308	21370
894.43	21496
894.552	21591
894.674	21603
894.796	21511
894.918	21382
895.04	21397
895.161	21553
895.283	21504
895.405	21553
895.526	21496
895.648	21420
895.769	21504
895.891	21545
896.012	21519
896.134	21473
896.255	21481
896.376	21496
896.498	21462
896.619	21431
896.74	21443
896.861	21523
896.982	21755
897.103	21869
897.224	21762
897.345	21732
897.466	21538
897.587	21561
897.708	21831
897.828	21732
897.949	21663
898.07	21469
898.19	21526
898.311	21747
898.431	21625
898.552	21633
898.672	21656
898.792	21652
898.913	21701
899.033	21549
899.153	21545
899.273	21370
899.393	21466
899.513	21386
899.633	21458
899.753	21462
899.873	21313
899.993	21469
900.113	21355
900.232	21317
900.352	21340
900.472	21146
900.591	20994
900.711	21123
900.83	21154
900.95	21226
901.069	21214
901.189	21100
901.308	20743
901.427	20621
901.546	20640
901.665	20769
901.784	20670
901.904	20564
902.023	20454
902.141	20328
902.26	20298
902.379	20275
902.498	20172
902.617	20271
902.735	20244
902.854	20134
902.973	20054
903.091	19887
903.21	19902
903.328	19856
903.446	19807
903.565	19689
903.683	19651
903.801	19529
903.919	19559
904.038	19655
904.156	19457
904.274	19502
904.392	19365
904.51	19365
904.627	19480
904.745	19544
904.863	19453
904.981	19187
905.098	19145
905.216	19091
905.334	19133
905.451	19038
905.569	19072
905.686	19061
905.803	19084
905.921	18772
906.038	18875
906.155	18935
906.272	18722
906.389	18798
906.506	18574
906.623	18665
906.74	18604
906.857	18578
906.974	18407
907.091	18650
907.208	18604
907.324	18719
907.441	18448
907.557	18266
907.674	18296
907.79	18338
907.907	18155
908.023	18395
908.139	18334
908.256	18201
908.372	18213
908.488	18292
908.604	18034
908.72	17942
908.836	17980
908.952	18019
909.068	18148
909.184	18022
909.3	17950
909.415	17988
909.531	18034
909.647	17710
909.762	17809
909.878	17630
909.993	17733
910.108	17722
910.224	17532
910.339	17638
910.454	17486
910.57	17562
910.685	17417
910.8	17630
910.915	17623
911.03	17421
911.145	17326
911.259	17322
911.374	17223
911.489	17254
911.604	17147
911.718	17037
911.833	16991
911.947	16923
912.062	16828
912.176	17025
912.291	17029
912.405	17056
912.519	17231
912.633	17193
912.748	16991
912.862	17094
912.976	16938
913.09	16786
913.204	16862
913.318	16850
913.431	16949
913.545	16854
913.659	16915
913.772	16790
913.886	16599
914	16588
914.113	16611
914.226	16615
914.34	16729
914.453	16523
914.566	16668
914.68	16523
914.793	16409
914.906	16314
915.019	16234
915.132	16150
915.245	16265
915.358	16249
915.47	16181
915.583	16234
915.696	16226
915.809	16211
915.921	16280
916.034	16109
916.146	16055
916.259	15960
916.371	16128
916.483	16051
916.595	16006
916.708	16071
916.82	15991
916.932	15987
917.044	15975
917.156	15964
917.268	15850
917.38	15797
917.491	15736
917.603	15797
917.715	15907
917.826	15854
917.938	15667
918.049	15622
918.161	15785
918.272	15861
918.384	15899
918.495	15770
918.606	15515
918.717	15485
918.828	15595
918.939	15545
919.05	15477
919.161	15447
919.272	15340
919.383	15340
919.494	15542
919.604	15671
919.715	15599
919.826	15439
919.936	15447
920.047	15622
920.157	15454
920.267	15595
920.378	15526
920.488	15519
920.598	15576
920.708	15694
920.818	15618
920.928	15572
921.038	15732
921.148	15682
921.258	15424
921.368	15378
921.477	15199
921.587	15195
921.697	15104
921.806	15222
921.916	15013
922.025	14948
922.134	14792
922.244	14781
922.353	14815
922.462	14667
922.571	14629
922.68	14423
922.789	14434
922.898	14419
923.007	14366
923.116	14434
923.224	14450
923.333	14427
923.442	14332
923.55	14294
923.659	14309
923.767	14313
923.876	14237
923.984	14275
924.092	14218
924.201	14263
924.309	14157
924.417	14153
924.525	14088
924.633	14069
924.741	14883
924.849	13826
924.956	13986
925.064	13822
925.172	13723
925.279	13803
925.387	13868
925.494	13875
925.602	13970
925.709	13845
925.816	13731
925.924	13731
926.031	13803
926.138	13666
926.245	13761
926.352	13704
926.459	13731
926.566	13757
926.673	13609
926.779	13544
926.886	13510
926.993	13343
927.099	13350
927.206	13282
927.312	13251
927.419	13422
927.525	13369
927.631	13434
927.737	13251
927.843	13274
927.95	13118
928.056	13137
928.162	13236
928.267	13145
928.373	13791
928.479	13225
928.585	12951
928.69	13088
928.796	13198
928.901	12996
929.007	12905
929.112	12993
929.218	13008
929.323	12916
929.428	12878
929.533	13050
929.638	12787
929.743	12837
929.848	12890
929.953	12757
930.058	12703
930.163	12475
930.267	12589
930.372	12684
930.477	12422
930.581	12681
930.685	12525
930.79	12391
930.894	12346
930.998	12380
931.103	12509
931.207	12171
931.311	12110
931.415	11992
931.519	11737
931.623	11855
