Data from test_V78500241_2721.txt Node
Date: Fri Mar 25 16:00:38 CST 2022
User: usil
Spectrometer: V785-0024
Trigger mode: 0
Integration Time (sec): 4.000000E-1
Scans to average: 1
Nonlinearity correction enabled: false
Boxcar width: 0
Storing dark spectrum: false
XAxis mode: Wavelengths
Number of Pixels in Spectrum: 1024
>>>>>Begin Spectral Data<<<<<
801.071	28744
801.214	28588
801.356	28466
801.499	28432
801.641	28234
801.783	28226
801.926	28337
802.068	28325
802.211	28124
802.353	28063
802.496	27960
802.638	27903
802.78	27930
802.923	27850
803.065	27941
803.208	27850
803.35	28116
803.492	28105
803.635	28120
803.777	27998
803.919	28230
804.061	28546
804.204	28325
804.346	28131
804.488	28086
804.63	28036
804.773	28139
804.915	28234
805.057	28401
805.199	28196
805.341	28280
805.483	28276
805.626	28390
805.768	28200
805.91	28459
806.052	28363
806.194	28348
806.336	28561
806.478	28306
806.62	28474
806.762	28508
806.904	28748
807.046	28885
807.188	28729
807.33	28923
807.472	28847
807.614	28691
807.756	28793
807.898	28717
808.04	28512
808.182	28630
808.324	28557
808.465	28790
808.607	28987
808.749	29014
808.891	29105
809.033	29246
809.174	29075
809.316	29083
809.458	28972
809.6	29029
809.741	29117
809.883	29204
810.025	29322
810.166	29307
810.308	29349
810.45	29258
810.591	29273
810.733	29098
810.875	29033
811.016	29083
811.158	28965
811.299	29162
811.441	29250
811.582	29311
811.724	29075
811.865	28976
812.007	29204
812.148	29121
812.29	29128
812.431	29265
812.573	29391
812.714	29642
812.855	29448
812.997	29448
813.138	29866
813.279	29627
813.421	29741
813.562	29391
813.703	29277
813.845	29261
813.986	28900
814.127	28862
814.268	28748
814.41	28831
814.551	28649
814.692	28843
814.833	28637
814.974	28820
815.115	28710
815.256	28748
815.397	28687
815.539	28546
815.68	28531
815.821	28504
815.962	28740
816.103	28573
816.244	28481
816.385	28409
816.526	28443
816.666	28310
816.807	28158
816.948	28192
817.089	28226
817.23	28219
817.371	28112
817.512	28006
817.653	28029
817.793	27956
817.934	28078
818.075	28055
818.216	28067
818.356	27994
818.497	28021
818.638	27873
818.778	27941
818.919	27789
819.06	27831
819.2	28032
819.341	28120
819.481	28147
819.622	28135
819.762	28459
819.903	28382
820.043	28204
820.184	28272
820.324	28192
820.465	28230
820.605	28185
820.746	28230
820.886	28131
821.026	28131
821.167	28078
821.307	28261
821.447	28131
821.588	27949
821.728	27846
821.868	27720
822.008	27614
822.149	27603
822.289	27568
822.429	27367
822.569	27252
822.709	27355
822.849	26975
822.99	27096
823.13	26994
823.27	27039
823.41	26925
823.55	26937
823.69	27043
823.83	26906
823.97	26914
824.11	26663
824.25	26689
824.389	26880
824.529	26864
824.669	26785
824.809	26796
824.949	26701
825.089	26830
825.228	26883
825.368	26640
825.508	26674
825.648	26678
825.787	26670
825.927	26621
826.067	26571
826.206	26651
826.346	26590
826.485	26670
826.625	26625
826.765	26777
826.904	26712
827.044	26511
827.183	26533
827.323	26385
827.462	26290
827.601	26355
827.741	26324
827.88	26320
828.02	26298
828.159	26305
828.298	26328
828.437	26339
828.577	26492
828.716	26324
828.855	26176
828.994	25928
829.134	26119
829.273	26065
829.412	25864
829.551	25894
829.69	26005
829.829	26168
829.968	26081
830.107	26149
830.246	26039
830.385	25864
830.524	25917
830.663	25852
830.802	25734
830.941	25601
831.08	25734
831.219	25791
831.357	25746
831.496	25986
831.635	25624
831.774	25575
831.913	25499
832.051	25537
832.19	25453
832.329	25449
832.467	25187
832.606	25346
832.744	25232
832.883	25221
833.022	25194
833.16	25354
833.299	25270
833.437	25320
833.576	25403
833.714	25320
833.852	25518
833.991	25343
834.129	25403
834.267	25434
834.406	25483
834.544	25312
834.682	25388
834.821	25365
834.959	25506
835.097	25331
835.235	25426
835.373	25354
835.511	25506
835.65	25209
835.788	25213
835.926	25171
836.064	24920
836.202	25038
836.34	25209
836.478	25232
836.615	25244
836.753	25198
836.891	25225
837.029	25308
837.167	25225
837.305	25065
837.443	25031
837.58	24973
837.718	24970
837.856	24935
837.993	24939
838.131	24886
838.269	25012
838.406	24863
838.544	24867
838.681	24646
838.819	24700
838.956	24589
839.094	24513
839.231	24479
839.369	24684
839.506	24810
839.643	24730
839.781	24460
839.918	24353
840.055	24445
840.193	24528
840.33	24369
840.467	24460
840.604	24403
840.742	24677
840.879	24338
841.016	24361
841.153	24296
841.29	24521
841.427	24350
841.564	24422
841.701	24479
841.838	24334
841.975	24289
842.112	24258
842.249	24289
842.385	24018
842.522	24445
842.659	24270
842.796	24144
842.933	24091
843.069	24030
843.206	24117
843.343	24136
843.479	24045
843.616	24167
843.752	23977
843.889	24049
844.025	24011
844.162	23904
844.298	24041
844.435	23859
844.571	23824
844.708	23874
844.844	24091
844.98	24121
845.117	24076
845.253	23923
845.389	23684
845.525	23817
845.661	23828
845.798	23554
845.934	23699
846.07	23570
846.206	23718
846.342	23764
846.478	23649
846.614	23471
846.75	23349
846.886	23311
847.022	23520
847.158	23387
847.294	23425
847.429	23440
847.565	23364
847.701	23684
847.837	23105
847.972	22968
848.108	23212
848.244	23155
848.379	23018
848.515	22896
848.65	22881
848.786	22908
848.921	22892
849.057	23003
849.192	22961
849.328	23003
849.463	22984
849.598	22828
849.734	22816
849.869	22850
850.004	22634
850.14	22771
850.275	22717
850.41	22474
850.545	22645
850.68	22626
850.815	22653
850.95	22744
851.085	23041
851.22	22755
851.355	22816
851.49	22752
851.625	22573
851.76	22637
851.895	22577
852.03	22573
852.165	22740
852.299	22736
852.434	22824
852.569	22702
852.703	22752
852.838	22763
852.973	22850
853.107	22736
853.242	22622
853.376	22584
853.511	22356
853.645	22470
853.78	22698
853.914	22641
854.048	22481
854.183	22523
854.317	22557
854.451	22683
854.585	22626
854.72	22660
854.854	22641
854.988	22523
855.122	22630
855.256	22474
855.39	22668
855.524	22615
855.658	22523
855.792	22489
855.926	22580
856.06	22493
856.194	22615
856.327	22542
856.461	22478
856.595	22432
856.729	22497
856.862	22626
856.996	22580
857.13	22603
857.263	22557
857.397	22557
857.53	22413
857.664	22645
857.797	22573
857.931	22683
858.064	22557
858.197	22679
858.331	22641
858.464	22455
858.597	22432
858.731	22497
858.864	22455
858.997	22474
859.13	22554
859.263	22580
859.396	22615
859.529	22485
859.662	22493
859.795	22538
859.928	22523
860.061	22740
860.194	22782
860.327	22554
860.46	22462
860.592	22592
860.725	22675
860.858	22618
860.99	22493
861.123	22455
861.256	22474
861.388	22637
861.521	23318
861.653	22405
861.786	22356
861.918	22356
862.05	22352
862.183	22402
862.315	22424
862.447	22531
862.58	22386
862.712	22246
862.844	22196
862.976	22363
863.108	22318
863.24	22752
863.372	22337
863.504	22272
863.636	22128
863.768	22310
863.9	22257
864.032	22090
864.164	22120
864.296	22356
864.428	22322
864.559	22443
864.691	22166
864.823	22253
864.954	22268
865.086	22207
865.217	22086
865.349	22006
865.48	21994
865.612	22162
865.743	22169
865.875	22078
866.006	22051
866.137	21991
866.269	22097
866.4	22040
866.531	21968
866.662	21994
866.793	22067
866.924	22044
867.055	22124
867.186	22051
867.317	21972
867.448	21865
867.579	22067
867.71	22013
867.841	22017
867.972	22188
868.103	22112
868.233	22040
868.364	22078
868.495	22128
868.625	22272
868.756	22284
868.886	22238
869.017	22223
869.147	22489
869.278	22451
869.408	22341
869.539	22238
869.669	22409
869.799	22405
869.929	22398
870.06	22508
870.19	22550
870.32	22554
870.45	22592
870.58	22698
870.71	22683
870.84	22725
870.97	22615
871.1	22664
871.23	22927
871.36	22946
871.489	22759
871.619	22847
871.749	22892
871.879	22980
872.008	23056
872.138	22858
872.267	22961
872.397	22740
872.526	22782
872.656	22634
872.785	22653
872.915	22889
873.044	22900
873.173	22987
873.303	22938
873.432	22915
873.561	22991
873.69	22877
873.819	22927
873.948	23010
874.077	22774
874.206	22877
874.335	22949
874.464	23052
874.593	23086
874.722	23071
874.851	23079
874.979	23041
875.108	23212
875.237	22991
875.365	23018
875.494	23121
875.623	23105
875.751	22968
875.88	23216
876.008	23235
876.136	23231
876.265	23512
876.393	23646
876.521	23592
876.65	23684
876.778	23497
876.906	23429
877.034	23299
877.162	23444
877.29	23330
877.418	23433
877.546	23471
877.674	23455
877.802	23547
877.93	23455
878.058	23421
878.185	23284
878.313	23429
878.441	23444
878.568	23197
878.696	23474
878.824	23452
878.951	23535
879.079	23596
879.206	23790
879.333	23668
879.461	23528
879.588	23604
879.715	23615
879.842	23661
879.97	23604
880.097	23360
880.224	23372
880.351	23318
880.478	23383
880.605	23239
880.732	23395
880.859	23531
880.986	23220
881.112	23242
881.239	23098
881.366	23010
881.493	22946
881.619	22824
881.746	22889
881.872	22919
881.999	22854
882.125	22797
882.252	22858
882.378	22721
882.505	22980
882.631	22675
882.757	22523
882.883	22687
883.01	22459
883.136	22519
883.262	22344
883.388	22405
883.514	22504
883.64	22489
883.766	22436
883.892	22310
884.018	22382
884.143	22447
884.269	22409
884.395	22261
884.52	22147
884.646	22105
884.772	22017
884.897	22032
885.023	22166
885.148	22268
885.274	22284
885.399	22272
885.524	22158
885.65	22036
885.775	22154
885.9	22139
886.025	22230
886.15	22135
886.275	22112
886.4	22017
886.525	22101
886.65	21998
886.775	22006
886.9	22318
887.025	22322
887.149	22051
887.274	21922
887.399	21876
887.523	21797
887.648	21781
887.773	21926
887.897	21953
888.021	21895
888.146	21739
888.27	22013
888.395	21945
888.519	22044
888.643	21930
888.767	21994
888.891	21888
889.015	21694
889.139	21690
889.263	21724
889.387	21694
889.511	21987
889.635	21911
889.759	21622
889.883	21587
890.006	21625
890.13	21755
890.254	21523
890.377	21629
890.501	21435
890.624	21473
890.748	21439
890.871	21317
890.995	21180
891.118	21184
891.241	21283
891.364	21233
891.488	21355
891.611	21192
891.734	21192
891.857	21252
891.98	21310
892.103	21237
892.226	21310
892.349	21161
892.471	21017
892.594	21211
892.717	21184
892.839	21150
892.962	21150
893.085	21291
893.207	21055
893.33	21093
893.452	21001
893.575	21184
893.697	21066
893.819	21272
893.941	21408
894.064	21161
894.186	21180
894.308	21047
894.43	21214
894.552	21279
894.674	21104
894.796	21070
894.918	21074
895.04	21020
895.161	21116
895.283	21154
895.405	21032
895.526	20979
895.648	21096
895.769	21131
895.891	21218
896.012	21146
896.134	21245
896.255	21119
896.376	21055
896.498	21093
896.619	21104
896.74	21142
896.861	21077
896.982	21523
897.103	21530
897.224	21256
897.345	21184
897.466	21214
897.587	21310
897.708	21408
897.828	21310
897.949	21161
898.07	21192
898.19	21214
898.311	21260
898.431	21180
898.552	21283
898.672	21287
898.792	21374
898.913	21340
899.033	21264
899.153	21051
899.273	20948
899.393	21074
899.513	21173
899.633	21096
899.753	21005
899.873	20933
899.993	21108
900.113	21013
900.232	21032
900.352	20823
900.472	20785
900.591	20952
900.711	20819
900.83	20758
900.95	20830
901.069	20765
901.189	20644
901.308	20613
901.427	20385
901.546	20377
901.665	20351
901.784	20339
901.904	20206
902.023	20122
902.141	20050
902.26	19978
902.379	20054
902.498	19970
902.617	19772
902.735	19947
902.854	19852
902.973	19769
903.091	19662
903.21	19582
903.328	19472
903.446	19377
903.565	19373
903.683	19236
903.801	19335
903.919	19285
904.038	19282
904.156	19053
904.274	19129
904.392	19088
904.51	19148
904.627	19038
904.745	19107
904.863	19141
904.981	18905
905.098	18757
905.216	18795
905.334	18791
905.451	18840
905.569	18776
905.686	18654
905.803	18749
905.921	18513
906.038	18627
906.155	18566
906.272	18467
906.389	18483
906.506	18220
906.623	18342
906.74	18194
906.857	18174
906.974	18216
907.091	18254
907.208	18369
907.324	18273
907.441	18213
907.557	18015
907.674	17939
907.79	17851
907.907	17946
908.023	18057
908.139	17893
908.256	17920
908.372	17859
908.488	17843
908.604	17783
908.72	17710
908.836	17741
908.952	17699
909.068	17718
909.184	17802
909.3	17649
909.415	17680
909.531	17722
909.647	17539
909.762	17406
909.878	17356
909.993	17353
910.108	17452
910.224	17334
910.339	17349
910.454	17296
910.57	17212
910.685	17216
910.8	17353
910.915	17269
911.03	17204
911.145	16942
911.259	17022
911.374	16915
911.489	16885
911.604	16782
911.718	16656
911.833	16683
911.947	16630
912.062	16584
912.176	16752
912.291	16664
912.405	16702
912.519	16953
912.633	16915
912.748	16793
912.862	16649
912.976	16573
913.09	16447
913.204	16485
913.318	16577
913.431	16615
913.545	16641
913.659	16535
913.772	16481
913.886	16421
914	16287
914.113	16417
914.226	16440
914.34	16280
914.453	16185
914.566	16455
914.68	16253
914.793	16044
914.906	15941
915.019	15937
915.132	15850
915.245	15838
915.358	15789
915.47	15865
915.583	15907
915.696	15934
915.809	16006
915.921	16040
916.034	15793
916.146	15770
916.259	15759
916.371	15736
916.483	15755
916.595	15736
916.708	15641
916.82	15682
916.932	15553
917.044	15614
917.156	15606
917.268	15572
917.38	15603
917.491	15488
917.603	15519
917.715	15538
917.826	15694
917.938	15367
918.049	15359
918.161	15408
918.272	15500
918.384	15485
918.495	15416
918.606	15405
918.717	15157
918.828	15222
918.939	15306
919.05	15108
919.161	15218
919.272	15051
919.383	15173
919.494	15260
919.604	15412
919.715	15298
919.826	15081
919.936	15207
920.047	15214
920.157	15279
920.267	15306
920.378	15165
920.488	15176
920.598	15344
920.708	15447
920.818	15454
920.928	15332
921.038	15386
921.148	15458
921.258	15180
921.368	15024
921.477	15001
921.587	14956
921.697	14872
921.806	14986
921.916	14773
922.025	14659
922.134	14476
922.244	14465
922.353	14556
922.462	14514
922.571	14492
922.68	14214
922.789	14180
922.898	14225
923.007	14202
923.116	14191
923.224	14054
923.333	14069
923.442	14153
923.55	14062
923.659	14062
923.767	14065
923.876	13913
923.984	14103
924.092	13814
924.201	13982
924.309	13997
924.417	13917
924.525	13932
924.633	13841
924.741	14769
924.849	13647
924.956	13784
925.064	13734
925.172	13590
925.279	13605
925.387	13704
925.494	13544
925.602	13727
925.709	13609
925.816	13476
925.924	13575
926.031	13563
926.138	13468
926.245	13491
926.352	13441
926.459	13559
926.566	13556
926.673	13434
926.779	13392
926.886	13354
926.993	13129
927.099	13114
927.206	13156
927.312	13118
927.419	13183
927.525	13110
927.631	13110
927.737	13050
927.843	12943
927.95	12825
928.056	12958
928.162	12993
928.267	12928
928.373	13563
928.479	12939
928.585	12677
928.69	12772
928.796	12901
928.901	12738
929.007	12665
929.112	12764
929.218	12848
929.323	12730
929.428	12669
929.533	12791
929.638	12494
929.743	12623
929.848	12631
929.953	12540
930.058	12433
930.163	12277
930.267	12353
930.372	12441
930.477	12251
930.581	12528
930.685	12353
930.79	12144
930.894	12205
930.998	12178
931.103	12277
931.207	11977
931.311	11821
931.415	11718
931.519	11562
931.623	11547
