Data from test_V78500241_252.txt Node
Date: Fri Mar 25 15:43:32 CST 2022
User: usil
Spectrometer: V785-0024
Trigger mode: 0
Integration Time (sec): 4.000000E-1
Scans to average: 1
Nonlinearity correction enabled: false
Boxcar width: 0
Storing dark spectrum: false
XAxis mode: Wavelengths
Number of Pixels in Spectrum: 1024
>>>>>Begin Spectral Data<<<<<
801.071	29676
801.214	29851
801.356	29520
801.499	29562
801.641	29421
801.783	29452
801.926	29398
802.068	29193
802.211	29349
802.353	29208
802.496	29041
802.638	29075
802.78	29010
802.923	28831
803.065	28953
803.208	28946
803.35	29014
803.492	29056
803.635	29113
803.777	29204
803.919	29189
804.061	29505
804.204	29159
804.346	29117
804.488	29098
804.63	29147
804.773	28999
804.915	29071
805.057	29231
805.199	29056
805.341	29360
805.483	29227
805.626	29246
805.768	29140
805.91	29181
806.052	29277
806.194	29231
806.336	29398
806.478	29303
806.62	29162
806.762	29566
806.904	29482
807.046	29862
807.188	29665
807.33	29680
807.472	29748
807.614	29695
807.756	29486
807.898	29585
808.04	29395
808.182	29512
808.324	29444
808.465	29471
808.607	29653
808.749	29817
808.891	29931
809.033	30159
809.174	30083
809.316	29931
809.458	29836
809.6	29862
809.741	29885
809.883	30091
810.025	30117
810.166	30155
810.308	30053
810.45	30083
810.591	30060
810.733	29931
810.875	29897
811.016	29893
811.158	29687
811.299	29912
811.441	30140
811.582	30053
811.724	29931
811.865	29855
812.007	29821
812.148	29783
812.29	29859
812.431	30011
812.573	30106
812.714	30194
812.855	30304
812.997	30525
813.138	30620
813.279	30505
813.421	30483
813.562	30395
813.703	30311
813.845	30209
813.986	29783
814.127	29558
814.268	29577
814.41	29490
814.551	29402
814.692	29600
814.833	29334
814.974	29410
815.115	29452
815.256	29311
815.397	29372
815.539	29326
815.68	29307
815.821	29200
815.962	29277
816.103	29250
816.244	29117
816.385	28965
816.526	29006
816.666	28873
816.807	28687
816.948	28763
817.089	28831
817.23	28736
817.371	28637
817.512	28733
817.653	28774
817.793	28672
817.934	28721
818.075	28554
818.216	28797
818.356	28649
818.497	28527
818.638	28386
818.778	28382
818.919	28504
819.06	28512
819.2	28417
819.341	28752
819.481	28626
819.622	28793
819.762	29048
819.903	28999
820.043	28786
820.184	28847
820.324	28698
820.465	28850
820.605	28763
820.746	28774
820.886	28573
821.026	28805
821.167	28824
821.307	28752
821.447	28729
821.588	28580
821.728	28394
821.868	28306
822.008	28010
822.149	28147
822.289	28044
822.429	27766
822.569	27823
822.709	27861
822.849	27466
822.99	27599
823.13	27519
823.27	27466
823.41	27405
823.55	27283
823.69	27355
823.83	27424
823.97	27268
824.11	27264
824.25	27161
824.389	27252
824.529	27218
824.669	27249
824.809	27256
824.949	27370
825.089	27321
825.228	27199
825.368	27066
825.508	27055
825.648	27180
825.787	27116
825.927	27199
826.067	26998
826.206	26982
826.346	27062
826.485	27036
826.625	27009
826.765	27203
826.904	27108
827.044	26838
827.183	26758
827.323	26769
827.462	26872
827.601	26708
827.741	26727
827.88	26792
828.02	26571
828.159	26682
828.298	26743
828.437	26731
828.577	26609
828.716	26777
828.855	26712
828.994	26412
829.134	26632
829.273	26419
829.412	26370
829.551	26278
829.69	26427
829.829	26366
829.968	26431
830.107	26385
830.246	26431
830.385	26301
830.524	26176
830.663	26202
830.802	26180
830.941	25932
831.08	25978
831.219	26157
831.357	25978
831.496	26145
831.635	25944
831.774	25955
831.913	25833
832.051	25655
832.19	25708
832.329	25651
832.467	25605
832.606	25731
832.744	25620
832.883	25674
833.022	25651
833.16	25704
833.299	25571
833.437	25658
833.576	25791
833.714	25647
833.852	25681
833.991	25761
834.129	25727
834.267	25708
834.406	25613
834.544	25651
834.682	25567
834.821	25590
834.959	25639
835.097	25552
835.235	25582
835.373	25677
835.511	25590
835.65	25563
835.788	25419
835.926	25289
836.064	25133
836.202	25354
836.34	25422
836.478	25441
836.615	25483
836.753	25460
836.891	25400
837.029	25426
837.167	25396
837.305	25293
837.443	25327
837.58	25270
837.718	25221
837.856	25206
837.993	25114
838.131	25247
838.269	25209
838.406	25160
838.544	24970
838.681	24840
838.819	24837
838.956	24673
839.094	24734
839.231	24700
839.369	24772
839.506	25000
839.643	24844
839.781	24696
839.918	24593
840.055	24658
840.193	24593
840.33	24540
840.467	24566
840.604	24544
840.742	24806
840.879	24578
841.016	24452
841.153	24589
841.29	24665
841.427	24498
841.564	24700
841.701	24498
841.838	24498
841.975	24464
842.112	24460
842.249	24353
842.385	24346
842.522	24620
842.659	24391
842.796	24266
842.933	24140
843.069	24114
843.206	24205
843.343	24361
843.479	24251
843.616	24270
843.752	23980
843.889	23885
844.025	24095
844.162	23878
844.298	24083
844.435	23999
844.571	23980
844.708	23958
844.844	24026
844.98	24068
845.117	24076
845.253	23882
845.389	23752
845.525	23832
845.661	23805
845.798	23741
845.934	23657
846.07	23642
846.206	23608
846.342	23813
846.478	23600
846.614	23334
846.75	23326
846.886	23444
847.022	23501
847.158	23322
847.294	23402
847.429	23356
847.565	23391
847.701	23653
847.837	23094
847.972	23037
848.108	23258
848.244	23189
848.379	22972
848.515	22965
848.65	23010
848.786	23006
848.921	22980
849.057	23052
849.192	23200
849.328	22915
849.463	23025
849.598	22999
849.734	22782
849.869	22778
850.004	22691
850.14	22782
850.275	22557
850.41	22634
850.545	22763
850.68	22668
850.815	22759
850.95	22592
851.085	22877
851.22	22759
851.355	22740
851.49	22786
851.625	22592
851.76	22733
851.895	22660
852.03	22546
852.165	22584
852.299	22634
852.434	22858
852.569	22679
852.703	22740
852.838	22790
852.973	22744
853.107	22725
853.242	22531
853.376	22466
853.511	22386
853.645	22500
853.78	22557
853.914	22481
854.048	22497
854.183	22508
854.317	22493
854.451	22634
854.585	22519
854.72	22455
854.854	22390
854.988	22386
855.122	22424
855.256	22375
855.39	22531
855.524	22664
855.658	22546
855.792	22474
855.926	22455
856.06	22497
856.194	22577
856.327	22386
856.461	22360
856.595	22432
856.729	22409
856.862	22523
856.996	22459
857.13	22508
857.263	22611
857.397	22706
857.53	22390
857.664	22424
857.797	22523
857.931	22538
858.064	22554
858.197	22569
858.331	22538
858.464	22303
858.597	22356
858.731	22436
858.864	22291
858.997	22325
859.13	22466
859.263	22478
859.396	22500
859.529	22352
859.662	22348
859.795	22367
859.928	22405
860.061	22577
860.194	22615
860.327	22398
860.46	22421
860.592	22519
860.725	22713
860.858	22538
860.99	22341
861.123	22459
861.256	22352
861.388	22390
861.521	23178
861.653	22295
861.786	22200
861.918	22284
862.05	22402
862.183	22432
862.315	22402
862.447	22489
862.58	22550
862.712	22139
862.844	22059
862.976	22276
863.108	22051
863.24	22653
863.372	22105
863.504	22158
863.636	22120
863.768	22078
863.9	21991
864.032	22090
864.164	21949
864.296	22147
864.428	22226
864.559	22143
864.691	22162
864.823	22097
864.954	22044
865.086	22074
865.217	21953
865.349	21831
865.48	21987
865.612	22006
865.743	22051
865.875	22044
866.006	21945
866.137	22013
866.269	22101
866.4	21918
866.531	22032
866.662	21983
866.793	21960
866.924	21873
867.055	21930
867.186	21876
867.317	21915
867.448	21739
867.579	21812
867.71	21975
867.841	21789
867.972	21975
868.103	21899
868.233	21831
868.364	21888
868.495	21964
868.625	22090
868.756	22207
868.886	22029
869.017	22082
869.147	22291
869.278	22276
869.408	22166
869.539	22143
869.669	22196
869.799	22158
869.929	22181
870.06	22181
870.19	22538
870.32	22432
870.45	22451
870.58	22588
870.71	22550
870.84	22675
870.97	22664
871.1	22736
871.23	22733
871.36	22774
871.489	22588
871.619	22679
871.749	22740
871.879	22653
872.008	22809
872.138	22736
872.267	22702
872.397	22542
872.526	22588
872.656	22565
872.785	22649
872.915	22850
873.044	22744
873.173	22729
873.303	22862
873.432	22759
873.561	22934
873.69	22736
873.819	22862
873.948	22812
874.077	22786
874.206	22771
874.335	22645
874.464	22850
874.593	22942
874.722	22972
874.851	23037
874.979	22934
875.108	22953
875.237	22953
875.365	22877
875.494	22759
875.623	22942
875.751	23006
875.88	22946
876.008	23124
876.136	23086
876.265	23391
876.393	23558
876.521	23414
876.65	23368
876.778	23326
876.906	23277
877.034	23261
877.162	23258
877.29	23220
877.418	23341
877.546	23368
877.674	23303
877.802	23410
877.93	23292
878.058	23235
878.185	23086
878.313	23303
878.441	23261
878.568	23121
878.696	23231
878.824	23326
878.951	23372
879.079	23414
879.206	23516
879.333	23471
879.461	23353
879.588	23421
879.715	23482
879.842	23608
879.97	23436
880.097	23143
880.224	23025
880.351	23223
880.478	23113
880.605	23010
880.732	23140
880.859	23364
880.986	23178
881.112	23178
881.239	23044
881.366	22835
881.493	22812
881.619	22786
881.746	22793
881.872	22755
881.999	22637
882.125	22599
882.252	22755
882.378	22641
882.505	22759
882.631	22577
882.757	22394
882.883	22535
883.01	22413
883.136	22303
883.262	22215
883.388	22215
883.514	22428
883.64	22550
883.766	22242
883.892	22093
884.018	22162
884.143	22314
884.269	22329
884.395	22116
884.52	22154
884.646	21983
884.772	21850
884.897	21945
885.023	22101
885.148	22109
885.274	22124
885.399	22067
885.524	22025
885.65	22158
885.775	22044
885.9	22029
886.025	22124
886.15	22086
886.275	22029
886.4	21770
886.525	21964
886.65	21922
886.775	21876
886.9	22116
887.025	22211
887.149	22048
887.274	21789
887.399	21785
887.523	21884
887.648	21762
887.773	21717
887.897	21755
888.021	21827
888.146	21728
888.27	21766
888.395	21793
888.519	21686
888.643	21732
888.767	21762
888.891	21701
889.015	21572
889.139	21443
889.263	21447
889.387	21663
889.511	21778
889.635	21561
889.759	21591
889.883	21450
890.006	21568
890.13	21618
890.254	21469
890.377	21481
890.501	21306
890.624	21154
890.748	21256
890.871	21150
890.995	21173
891.118	20986
891.241	21108
891.364	21138
891.488	21222
891.611	21138
891.734	21062
891.857	21112
891.98	21176
892.103	21131
892.226	21131
892.349	20994
892.471	20788
892.594	21036
892.717	20994
892.839	20948
892.962	21001
893.085	21180
893.207	20887
893.33	20872
893.452	20834
893.575	21013
893.697	20937
893.819	21055
893.941	21199
894.064	21188
894.186	20842
894.308	21017
894.43	21161
894.552	21043
894.674	20967
894.796	20807
894.918	20956
895.04	20979
895.161	20921
895.283	21024
895.405	20956
895.526	21005
895.648	20823
895.769	20906
895.891	20994
896.012	20937
896.134	21024
896.255	21013
896.376	20944
896.498	20960
896.619	21161
896.74	21032
896.861	21112
896.982	21378
897.103	21485
897.224	21306
897.345	21294
897.466	21039
897.587	21336
897.708	21272
897.828	21096
897.949	21146
898.07	20941
898.19	21085
898.311	21233
898.431	21119
898.552	21093
898.672	21157
898.792	21207
898.913	20956
899.033	21032
899.153	20895
899.273	20773
899.393	20826
899.513	20937
899.633	20868
899.753	20781
899.873	20876
899.993	20804
900.113	20762
900.232	20796
900.352	20697
900.472	20613
900.591	20530
900.711	20788
900.83	20564
900.95	20731
901.069	20708
901.189	20476
901.308	20294
901.427	20164
901.546	20183
901.665	20301
901.784	20145
901.904	19993
902.023	19921
902.141	19704
902.26	19795
902.379	19818
902.498	19689
902.617	19567
902.735	19681
902.854	19506
902.973	19590
903.091	19217
903.21	19362
903.328	19422
903.446	19217
903.565	19156
903.683	19206
903.801	19012
903.919	19091
904.038	19019
904.156	18932
904.274	18977
904.392	18833
904.51	18863
904.627	18913
904.745	18970
904.863	18996
904.981	18589
905.098	18555
905.216	18578
905.334	18646
905.451	18601
905.569	18589
905.686	18528
905.803	18612
905.921	18403
906.038	18422
906.155	18380
906.272	18296
906.389	18213
906.506	18026
906.623	18133
906.74	18072
906.857	17939
906.974	17958
907.091	18197
907.208	18155
907.324	18098
907.441	17882
907.557	17718
907.674	17714
907.79	17748
907.907	17714
908.023	17832
908.139	17775
908.256	17646
908.372	17592
908.488	17585
908.604	17482
908.72	17383
908.836	17543
908.952	17406
909.068	17444
909.184	17573
909.3	17444
909.415	17395
909.531	17497
909.647	17162
909.762	17029
909.878	17052
909.993	17189
910.108	17098
910.224	17014
910.339	17102
910.454	17025
910.57	17056
910.685	16915
910.8	17136
910.915	17090
911.03	16923
911.145	16793
911.259	16706
911.374	16691
911.489	16660
911.604	16607
911.718	16421
911.833	16466
911.947	16402
912.062	16306
912.176	16424
912.291	16504
912.405	16451
912.519	16618
912.633	16508
912.748	16554
912.862	16500
912.976	16219
913.09	16040
913.204	16120
913.318	16207
913.431	16402
913.545	16375
913.659	16238
913.772	16223
913.886	16082
914	16010
914.113	16169
914.226	16105
914.34	16067
914.453	15979
914.566	16048
914.68	15945
914.793	15804
914.906	15637
915.019	15679
915.132	15701
915.245	15549
915.358	15564
915.47	15705
915.583	15572
915.696	15728
915.809	15755
915.921	15751
916.034	15515
916.146	15496
916.259	15466
916.371	15618
916.483	15504
916.595	15466
916.708	15382
916.82	15386
916.932	15439
917.044	15408
917.156	15378
917.268	15203
917.38	15279
917.491	15218
917.603	15245
917.715	15252
917.826	15294
917.938	15131
918.049	15055
918.161	15169
918.272	15355
918.384	15264
918.495	15195
918.606	15028
918.717	14948
918.828	14979
918.939	15058
919.05	14853
919.161	14910
919.272	14762
919.383	14788
919.494	15089
919.604	15161
919.715	14963
919.826	14804
919.936	14838
920.047	14933
920.157	14929
920.267	15268
920.378	14948
920.488	14819
920.598	15081
920.708	15260
920.818	15024
920.928	14914
921.038	15252
921.148	15138
921.258	14826
921.368	14807
921.477	14640
921.587	14621
921.697	14571
921.806	14655
921.916	14419
922.025	14358
922.134	14362
922.244	14301
922.353	14347
922.462	14183
922.571	14187
922.68	13913
922.789	13860
922.898	13959
923.007	13826
923.116	13871
923.224	13875
923.333	13875
923.442	13826
923.55	13769
923.659	13753
923.767	13818
923.876	13738
923.984	13769
924.092	13677
924.201	13651
924.309	13601
924.417	13548
924.525	13457
924.633	13575
924.741	14282
924.849	13464
924.956	13445
925.064	13403
925.172	13346
925.279	13289
925.387	13358
925.494	13312
925.602	13460
925.709	13255
925.816	13149
925.924	13156
926.031	13381
926.138	13198
926.245	13266
926.352	13141
926.459	13228
926.566	13251
926.673	13107
926.779	13050
926.886	13069
926.993	12913
927.099	12886
927.206	12787
927.312	12772
927.419	12829
927.525	12795
927.631	12810
927.737	12703
927.843	12642
927.95	12658
928.056	12681
928.162	12707
928.267	12684
928.373	13244
928.479	12749
928.585	12582
928.69	12608
928.796	12635
928.901	12479
929.007	12433
929.112	12494
929.218	12452
929.323	12388
929.428	12395
929.533	12525
929.638	12258
929.743	12266
929.848	12353
929.953	12266
930.058	12155
930.163	11954
930.267	12068
930.372	12167
930.477	11988
930.581	12209
930.685	12079
930.79	11912
930.894	11969
930.998	11885
931.103	11969
931.207	11653
931.311	11623
931.415	11520
931.519	11296
931.623	11273
