Data from test_V78500241_769.txt Node
Date: Fri Mar 25 15:47:07 CST 2022
User: usil
Spectrometer: V785-0024
Trigger mode: 0
Integration Time (sec): 4.000000E-1
Scans to average: 1
Nonlinearity correction enabled: false
Boxcar width: 0
Storing dark spectrum: false
XAxis mode: Wavelengths
Number of Pixels in Spectrum: 1024
>>>>>Begin Spectral Data<<<<<
801.071	27934
801.214	28120
801.356	27759
801.499	27587
801.641	27530
801.783	27557
801.926	27580
802.068	27458
802.211	27481
802.353	27496
802.496	27370
802.638	27317
802.78	27329
802.923	27165
803.065	27214
803.208	27154
803.35	27332
803.492	27245
803.635	27488
803.777	27374
803.919	27427
804.061	27804
804.204	27378
804.346	27435
804.488	27526
804.63	27370
804.773	27332
804.915	27447
805.057	27462
805.199	27542
805.341	27462
805.483	27561
805.626	27534
805.768	27507
805.91	27481
806.052	27496
806.194	27435
806.336	27660
806.478	27603
806.62	27606
806.762	27789
806.904	27953
807.046	28166
807.188	28078
807.33	28010
807.472	28147
807.614	27945
807.756	28032
807.898	27869
808.04	27861
808.182	27922
808.324	27983
808.465	27838
808.607	28188
808.749	28223
808.891	28386
809.033	28584
809.174	28306
809.316	28291
809.458	28109
809.6	28246
809.741	28500
809.883	28478
810.025	28379
810.166	28607
810.308	28596
810.45	28466
810.591	28375
810.733	28417
810.875	28303
811.016	28074
811.158	28325
811.299	28493
811.441	28542
811.582	28466
811.724	28329
811.865	28436
812.007	28261
812.148	28188
812.29	28238
812.431	28466
812.573	28584
812.714	28706
812.855	28706
812.997	28881
813.138	28919
813.279	28881
813.421	28881
813.562	28729
813.703	28603
813.845	28436
813.986	28226
814.127	27998
814.268	27991
814.41	28017
814.551	27808
814.692	28120
814.833	27975
814.974	27797
815.115	28013
815.256	27972
815.397	27747
815.539	27888
815.68	27641
815.821	27587
815.962	27603
816.103	27713
816.244	27682
816.385	27477
816.526	27580
816.666	27348
816.807	27230
816.948	27359
817.089	27504
817.23	27359
817.371	27226
817.512	27287
817.653	27211
817.793	27230
817.934	27245
818.075	27298
818.216	27393
818.356	27237
818.497	27165
818.638	26929
818.778	27051
818.919	27104
819.06	27058
819.2	27116
819.341	27340
819.481	27157
819.622	27374
819.762	27492
819.903	27534
820.043	27462
820.184	27405
820.324	27344
820.465	27618
820.605	27173
820.746	27321
820.886	27268
821.026	27298
821.167	27370
821.307	27340
821.447	27287
821.588	27218
821.728	27104
821.868	26948
822.008	26762
822.149	26640
822.289	26727
822.429	26579
822.569	26518
822.709	26347
822.849	26305
822.99	26218
823.13	26206
823.27	26126
823.41	26008
823.55	26024
823.69	26073
823.83	26058
823.97	26088
824.11	25814
824.25	25803
824.389	25928
824.529	25963
824.669	25879
824.809	26172
824.949	25932
825.089	25966
825.228	25913
825.368	25670
825.508	25715
825.648	25788
825.787	25807
825.927	25795
826.067	25674
826.206	25776
826.346	25818
826.485	25841
826.625	25875
826.765	25830
826.904	25772
827.044	25468
827.183	25479
827.323	25468
827.462	25430
827.601	25430
827.741	25590
827.88	25502
828.02	25358
828.159	25339
828.298	25449
828.437	25521
828.577	25518
828.716	25563
828.855	25373
828.994	25316
829.134	25209
829.273	25190
829.412	25122
829.551	25012
829.69	25084
829.829	25160
829.968	25369
830.107	25251
830.246	25221
830.385	25061
830.524	25076
830.663	24996
830.802	24878
830.941	24730
831.08	24665
831.219	24844
831.357	24897
831.496	25012
831.635	24779
831.774	24700
831.913	24715
832.051	24612
832.19	24479
832.329	24570
832.467	24525
832.606	24380
832.744	24407
832.883	24517
833.022	24448
833.16	24407
833.299	24502
833.437	24551
833.576	24467
833.714	24429
833.852	24441
833.991	24479
834.129	24559
834.267	24509
834.406	24536
834.544	24563
834.682	24380
834.821	24445
834.959	24593
835.097	24502
835.235	24593
835.373	24475
835.511	24407
835.65	24391
835.788	24532
835.926	24197
836.064	24022
836.202	24201
836.34	24254
836.478	24407
836.615	24205
836.753	24292
836.891	24365
837.029	24505
837.167	24216
837.305	24110
837.443	24243
837.58	24174
837.718	24209
837.856	24114
837.993	24167
838.131	24243
838.269	24087
838.406	24053
838.544	23969
838.681	23783
838.819	23874
838.956	23562
839.094	23471
839.231	23680
839.369	23901
839.506	24114
839.643	23950
839.781	23638
839.918	23566
840.055	23703
840.193	23600
840.33	23551
840.467	23657
840.604	23577
840.742	23767
840.879	23452
841.016	23497
841.153	23372
841.29	23710
841.427	23558
841.564	23577
841.701	23570
841.838	23311
841.975	23315
842.112	23516
842.249	23436
842.385	23364
842.522	23657
842.659	23440
842.796	23250
842.933	23364
843.069	23235
843.206	23178
843.343	23368
843.479	23174
843.616	23239
843.752	23041
843.889	22984
844.025	23189
844.162	23117
844.298	23174
844.435	23102
844.571	23052
844.708	23105
844.844	23231
844.98	23220
845.117	23273
845.253	22995
845.389	22843
845.525	23018
845.661	22957
845.798	22748
845.934	22820
846.07	22710
846.206	22812
846.342	22892
846.478	22748
846.614	22630
846.75	22500
846.886	22500
847.022	22626
847.158	22557
847.294	22485
847.429	22577
847.565	22538
847.701	22786
847.837	22329
847.972	22173
848.108	22470
848.244	22417
848.379	22078
848.515	22192
848.65	21953
848.786	22131
848.921	22177
849.057	22230
849.192	22226
849.328	22265
849.463	22280
849.598	22097
849.734	21994
849.869	21918
850.004	21812
850.14	21838
850.275	21907
850.41	21789
850.545	21827
850.68	21968
850.815	21857
850.95	21789
851.085	21998
851.22	21899
851.355	21934
851.49	21865
851.625	21705
851.76	21888
851.895	21778
852.03	21857
852.165	21918
852.299	22044
852.434	21983
852.569	21781
852.703	21831
852.838	21987
852.973	22059
853.107	22051
853.242	21842
853.376	21759
853.511	21694
853.645	21667
853.78	21865
853.914	21743
854.048	21713
854.183	21679
854.317	21660
854.451	21785
854.585	21633
854.72	21774
854.854	21816
854.988	21660
855.122	21804
855.256	21405
855.39	21587
855.524	21838
855.658	21785
855.792	21724
855.926	21743
856.06	21747
856.194	21854
856.327	21671
856.461	21660
856.595	21736
856.729	21743
856.862	21781
856.996	21762
857.13	21781
857.263	21827
857.397	21755
857.53	21816
857.664	21720
857.797	21736
857.931	21907
858.064	21793
858.197	21808
858.331	21644
858.464	21648
858.597	21728
858.731	21793
858.864	21652
858.997	21583
859.13	21671
859.263	21675
859.396	21884
859.529	21709
859.662	21679
859.795	21610
859.928	21709
860.061	21861
860.194	21922
860.327	21797
860.46	21808
860.592	21797
860.725	21987
860.858	21876
860.99	21724
861.123	21606
861.256	21641
861.388	21797
861.521	22352
861.653	21557
861.786	21431
861.918	21564
862.05	21580
862.183	21583
862.315	21564
862.447	21637
862.58	21690
862.712	21542
862.844	21363
862.976	21420
863.108	21507
863.24	21953
863.372	21386
863.504	21416
863.636	21466
863.768	21496
863.9	21348
864.032	21386
864.164	21370
864.296	21428
864.428	21564
864.559	21462
864.691	21351
864.823	21462
864.954	21378
865.086	21363
865.217	21230
865.349	21256
865.48	21363
865.612	21287
865.743	21389
865.875	21317
866.006	21313
866.137	21188
866.269	21370
866.4	21310
866.531	21207
866.662	21256
866.793	21279
866.924	21226
867.055	21214
867.186	21241
867.317	21176
867.448	21169
867.579	21150
867.71	21169
867.841	21165
867.972	21214
868.103	21275
868.233	21264
868.364	21211
868.495	21382
868.625	21458
868.756	21561
868.886	21412
869.017	21435
869.147	21580
869.278	21572
869.408	21443
869.539	21485
869.669	21485
869.799	21576
869.929	21663
870.06	21603
870.19	21774
870.32	21724
870.45	21857
870.58	21892
870.71	21922
870.84	21895
870.97	21838
871.1	21930
871.23	22010
871.36	22032
871.489	21979
871.619	21972
871.749	22166
871.879	22070
872.008	22192
872.138	22097
872.267	21964
872.397	21823
872.526	21895
872.656	21907
872.785	21941
872.915	22044
873.044	22211
873.173	22177
873.303	22120
873.432	22086
873.561	22154
873.69	22074
873.819	22063
873.948	22147
874.077	22219
874.206	22036
874.335	22169
874.464	22249
874.593	22455
874.722	22287
874.851	22489
874.979	22322
875.108	22443
875.237	22352
875.365	22249
875.494	22299
875.623	22333
875.751	22261
875.88	22287
876.008	22402
876.136	22645
876.265	22717
876.393	22683
876.521	22877
876.65	22725
876.778	22717
876.906	22637
877.034	22653
877.162	22755
877.29	22653
877.418	22790
877.546	22675
877.674	22653
877.802	22691
877.93	22660
878.058	22561
878.185	22538
878.313	22691
878.441	22717
878.568	22550
878.696	22599
878.824	22713
878.951	22687
879.079	22793
879.206	22965
879.333	22862
879.461	22637
879.588	22801
879.715	22820
879.842	22923
879.97	22698
880.097	22451
880.224	22546
880.351	22470
880.478	22577
880.605	22443
880.732	22379
880.859	22611
880.986	22417
881.112	22622
881.239	22333
881.366	22112
881.493	22139
881.619	21991
881.746	22101
881.872	21975
881.999	22139
882.125	21960
882.252	22158
882.378	22044
882.505	22067
882.631	21766
882.757	21717
882.883	21869
883.01	21785
883.136	21781
883.262	21675
883.388	21538
883.514	21770
883.64	21835
883.766	21625
883.892	21515
884.018	21443
884.143	21629
884.269	21804
884.395	21401
884.52	21405
884.646	21466
884.772	21344
884.897	21389
885.023	21367
885.148	21504
885.274	21591
885.399	21454
885.524	21332
885.65	21405
885.775	21511
885.9	21317
886.025	21496
886.15	21523
886.275	21272
886.4	21279
886.525	21363
886.65	21306
886.775	21287
886.9	21431
887.025	21511
887.149	21370
887.274	21226
887.399	21116
887.523	21165
887.648	21047
887.773	21024
887.897	21173
888.021	21291
888.146	21028
888.27	21173
888.395	21119
888.519	21150
888.643	21051
888.767	21260
888.891	21154
889.015	20998
889.139	20925
889.263	20960
889.387	21077
889.511	21207
889.635	21093
889.759	20937
889.883	20956
890.006	20910
890.13	20960
890.254	20925
890.377	20910
890.501	20686
890.624	20686
890.748	20739
890.871	20495
890.995	20507
891.118	20476
891.241	20560
891.364	20587
891.488	20659
891.611	20503
891.734	20450
891.857	20518
891.98	20415
892.103	20575
892.226	20514
892.349	20556
892.471	20366
892.594	20541
892.717	20450
892.839	20419
892.962	20552
893.085	20511
893.207	20396
893.33	20248
893.452	20317
893.575	20484
893.697	20396
893.819	20545
893.941	20530
894.064	20514
894.186	20355
894.308	20343
894.43	20526
894.552	20594
894.674	20442
894.796	20313
894.918	20328
895.04	20358
895.161	20499
895.283	20385
895.405	20324
895.526	20385
895.648	20415
895.769	20514
895.891	20423
896.012	20560
896.134	20503
896.255	20442
896.376	20278
896.498	20438
896.619	20408
896.74	20355
896.861	20362
896.982	20727
897.103	20804
897.224	20724
897.345	20712
897.466	20575
897.587	20746
897.708	20743
897.828	20682
897.949	20495
898.07	20400
898.19	20480
898.311	20720
898.431	20617
898.552	20667
898.672	20667
898.792	20659
898.913	20632
899.033	20507
899.153	20317
899.273	20317
899.393	20423
899.513	20450
899.633	20545
899.753	20370
899.873	20320
899.993	20366
900.113	20412
900.232	20290
900.352	20210
900.472	20187
900.591	20027
900.711	20187
900.83	20088
900.95	20290
901.069	20077
901.189	19940
901.308	19909
901.427	19704
901.546	19791
901.665	19753
901.784	19681
901.904	19685
902.023	19483
902.141	19217
902.26	19259
902.379	19301
902.498	19187
902.617	19148
902.735	19331
902.854	19122
902.973	19179
903.091	18894
903.21	18814
903.328	18867
903.446	18825
903.565	18700
903.683	18711
903.801	18741
903.919	18585
904.038	18681
904.156	18479
904.274	18559
904.392	18429
904.51	18391
904.627	18422
904.745	18490
904.863	18475
904.981	18216
905.098	18125
905.216	18129
905.334	18140
905.451	18125
905.569	18060
905.686	18224
905.803	18144
905.921	17904
906.038	18030
906.155	17980
906.272	17817
906.389	17760
906.506	17687
906.623	17703
906.74	17627
906.857	17554
906.974	17509
907.091	17646
907.208	17790
907.324	17714
907.441	17570
907.557	17440
907.674	17296
907.79	17330
907.907	17337
908.023	17414
908.139	17345
908.256	17265
908.372	17284
908.488	17284
908.604	17090
908.72	17018
908.836	17075
908.952	17029
909.068	17193
909.184	17181
909.3	17045
909.415	17242
909.531	17041
909.647	16820
909.762	16729
909.878	16885
909.993	16946
910.108	16866
910.224	16873
910.339	16831
910.454	16637
910.57	16721
910.685	16580
910.8	16828
910.915	16763
911.03	16698
911.145	16565
911.259	16573
911.374	16500
911.489	16303
911.604	16310
911.718	16154
911.833	16124
911.947	16006
912.062	16086
912.176	16192
912.291	16223
912.405	16147
912.519	16394
912.633	16329
912.748	16143
912.862	16185
912.976	16013
913.09	15854
913.204	15899
913.318	16082
913.431	16078
913.545	16002
913.659	16124
913.772	15918
913.886	15838
914	15720
914.113	15918
914.226	15926
914.34	15835
914.453	15652
914.566	15797
914.68	15656
914.793	15618
914.906	15405
915.019	15378
915.132	15359
915.245	15344
915.358	15504
915.47	15393
915.583	15298
915.696	15481
915.809	15564
915.921	15466
916.034	15370
916.146	15268
916.259	15268
916.371	15355
916.483	15279
916.595	15195
916.708	15203
916.82	15256
916.932	15089
917.044	15146
917.156	15093
917.268	15066
917.38	15142
917.491	14986
917.603	15036
917.715	15085
917.826	15070
917.938	14868
918.049	14941
918.161	15039
918.272	15104
918.384	15108
918.495	14967
918.606	14819
918.717	14724
918.828	14838
918.939	14807
919.05	14667
919.161	14819
919.272	14579
919.383	14659
919.494	14773
919.604	14929
919.715	14678
919.826	14686
919.936	14708
920.047	14902
920.157	14727
920.267	14952
920.378	14739
920.488	14804
920.598	14918
920.708	14971
920.818	14937
920.928	14883
921.038	15138
921.148	15024
921.258	14644
921.368	14583
921.477	14514
921.587	14492
921.697	14412
921.806	14480
921.916	14351
922.025	14134
922.134	14046
922.244	14123
922.353	14111
922.462	13997
922.571	13864
922.68	13814
922.789	13712
922.898	13830
923.007	13700
923.116	13814
923.224	13837
923.333	13757
923.442	13578
923.55	13601
923.659	13537
923.767	13658
923.876	13514
923.984	13639
924.092	13434
924.201	13529
924.309	13384
924.417	13502
924.525	13430
924.633	13407
924.741	14351
924.849	13190
924.956	13373
925.064	13225
925.172	13160
925.279	13088
925.387	13168
925.494	13232
925.602	13297
925.709	13198
925.816	13110
925.924	13149
926.031	13107
926.138	13152
926.245	13088
926.352	13023
926.459	13152
926.566	12989
926.673	13034
926.779	12833
926.886	12871
926.993	12734
927.099	12738
927.206	12673
927.312	12677
927.419	12734
927.525	12658
927.631	12757
927.737	12616
927.843	12589
927.95	12445
928.056	12540
928.162	12578
928.267	12589
928.373	13141
928.479	12566
928.585	12330
928.69	12464
928.796	12517
928.901	12429
929.007	12270
929.112	12407
929.218	12319
929.323	12254
929.428	12308
929.533	12422
929.638	12201
929.743	12178
929.848	12273
929.953	12197
930.058	12175
930.163	11870
930.267	11912
930.372	12155
930.477	11939
930.581	12159
930.685	11961
930.79	11798
930.894	11824
930.998	11737
931.103	11897
931.207	11611
931.311	11406
931.415	11429
931.519	11193
931.623	11216
