Data from test_V78500241_864.txt Node
Date: Fri Mar 25 15:47:47 CST 2022
User: usil
Spectrometer: V785-0024
Trigger mode: 0
Integration Time (sec): 4.000000E-1
Scans to average: 1
Nonlinearity correction enabled: false
Boxcar width: 0
Storing dark spectrum: false
XAxis mode: Wavelengths
Number of Pixels in Spectrum: 1024
>>>>>Begin Spectral Data<<<<<
801.071	27450
801.214	27298
801.356	27131
801.499	26902
801.641	26887
801.783	26853
801.926	26982
802.068	26933
802.211	26815
802.353	26750
802.496	26636
802.638	26552
802.78	26575
802.923	26590
803.065	26522
803.208	26537
803.35	26659
803.492	26693
803.635	26800
803.777	26598
803.919	26834
804.061	27089
804.204	26800
804.346	26533
804.488	26697
804.63	26686
804.773	26644
804.915	26682
805.057	26845
805.199	26724
805.341	26777
805.483	26800
805.626	26746
805.768	26655
805.91	26838
806.052	26861
806.194	26731
806.336	27100
806.478	26902
806.62	26765
806.762	26887
806.904	27112
807.046	27405
807.188	27389
807.33	27218
807.472	27332
807.614	27325
807.756	27264
807.898	27123
808.04	27135
808.182	27070
808.324	27116
808.465	27188
808.607	27218
808.749	27405
808.891	27610
809.033	27667
809.174	27595
809.316	27389
809.458	27564
809.6	27462
809.741	27610
809.883	27679
810.025	27698
810.166	27778
810.308	27861
810.45	27705
810.591	27606
810.733	27367
810.875	27420
811.016	27378
811.158	27424
811.299	27386
811.441	27477
811.582	27610
811.724	27542
811.865	27568
812.007	27469
812.148	27454
812.29	27496
812.431	27587
812.573	27724
812.714	27987
812.855	28070
812.997	28101
813.138	28192
813.279	28059
813.421	27998
813.562	27926
813.703	27770
813.845	27816
813.986	27519
814.127	27275
814.268	27119
814.41	27081
814.551	27131
814.692	27176
814.833	27104
814.974	27108
815.115	27176
815.256	27047
815.397	26990
815.539	27043
815.68	26975
815.821	26872
815.962	26944
816.103	27062
816.244	26914
816.385	26834
816.526	26697
816.666	26583
816.807	26450
816.948	26594
817.089	26476
817.23	26530
817.371	26404
817.512	26488
817.653	26461
817.793	26343
817.934	26549
818.075	26324
818.216	26492
818.356	26278
818.497	26191
818.638	26267
818.778	26301
818.919	26305
819.06	26278
819.2	26195
819.341	26218
819.481	26503
819.622	26590
819.762	26606
819.903	26644
820.043	26602
820.184	26495
820.324	26598
820.465	26667
820.605	26583
820.746	26476
820.886	26511
821.026	26594
821.167	26415
821.307	26511
821.447	26355
821.588	26389
821.728	26240
821.868	26058
822.008	25841
822.149	25811
822.289	25890
822.429	25651
822.569	25639
822.709	25415
822.849	25365
822.99	25464
823.13	25343
823.27	25472
823.41	25270
823.55	25183
823.69	25209
823.83	25171
823.97	25088
824.11	25053
824.25	25053
824.389	24890
824.529	25206
824.669	25148
824.809	25190
824.949	24989
825.089	25031
825.228	25053
825.368	24875
825.508	24920
825.648	24890
825.787	24939
825.927	25019
826.067	24882
826.206	24897
826.346	24871
826.485	24973
826.625	24856
826.765	25038
826.904	24958
827.044	24726
827.183	24726
827.323	24696
827.462	24604
827.601	24570
827.741	24623
827.88	24620
828.02	24559
828.159	24623
828.298	24700
828.437	24711
828.577	24544
828.716	24741
828.855	24604
828.994	24308
829.134	24304
829.273	24441
829.412	24311
829.551	24216
829.69	24330
829.829	24300
829.968	24391
830.107	24410
830.246	24441
830.385	24289
830.524	24125
830.663	24091
830.802	24018
830.941	23977
831.08	23942
831.219	23885
831.357	24129
831.496	24167
831.635	23912
831.774	23885
831.913	23794
832.051	23714
832.19	23771
832.329	23813
832.467	23619
832.606	23543
832.744	23372
832.883	23615
833.022	23585
833.16	23570
833.299	23699
833.437	23627
833.576	23661
833.714	23733
833.852	23729
833.991	23619
834.129	23741
834.267	23726
834.406	23687
834.544	23699
834.682	23668
834.821	23634
834.959	23824
835.097	23619
835.235	23566
835.373	23649
835.511	23676
835.65	23402
835.788	23554
835.926	23349
836.064	23330
836.202	23360
836.34	23482
836.478	23547
836.615	23463
836.753	23414
836.891	23665
837.029	23608
837.167	23368
837.305	23242
837.443	23303
837.58	23258
837.718	23410
837.856	23341
837.993	23277
838.131	23265
838.269	23250
838.406	23239
838.544	23033
838.681	22984
838.819	22915
838.956	22809
839.094	22927
839.231	22790
839.369	22881
839.506	23193
839.643	22923
839.781	22717
839.918	22717
840.055	22896
840.193	22782
840.33	22721
840.467	22740
840.604	22755
840.742	22965
840.879	22504
841.016	22615
841.153	22622
841.29	22831
841.427	22763
841.564	22725
841.701	22675
841.838	22596
841.975	22675
842.112	22573
842.249	22504
842.385	22500
842.522	22736
842.659	22504
842.796	22462
842.933	22531
843.069	22356
843.206	22295
843.343	22527
843.479	22386
843.616	22478
843.752	22230
843.889	22280
844.025	22329
844.162	22150
844.298	22306
844.435	22128
844.571	22249
844.708	22318
844.844	22447
844.98	22325
845.117	22371
845.253	22082
845.389	22169
845.525	22177
845.661	22059
845.798	21987
845.934	22063
846.07	21880
846.206	22010
846.342	22131
846.478	22021
846.614	21682
846.75	21629
846.886	21762
847.022	21846
847.158	21709
847.294	21713
847.429	21816
847.565	21595
847.701	21918
847.837	21466
847.972	21348
848.108	21580
848.244	21420
848.379	21294
848.515	21336
848.65	21325
848.786	21275
848.921	21355
849.057	21386
849.192	21378
849.328	21405
849.463	21363
849.598	21344
849.734	21249
849.869	21150
850.004	21150
850.14	21005
850.275	21161
850.41	20933
850.545	20929
850.68	21009
850.815	21127
850.95	21085
851.085	21222
851.22	21150
851.355	21180
851.49	21062
851.625	21066
851.76	21047
851.895	20948
852.03	20994
852.165	21112
852.299	21195
852.434	21150
852.569	21100
852.703	21119
852.838	21211
852.973	21066
853.107	21157
853.242	21055
853.376	20933
853.511	20819
853.645	20853
853.78	21043
853.914	20830
854.048	20864
854.183	20842
854.317	21017
854.451	21093
854.585	21043
854.72	20895
854.854	20944
854.988	20777
855.122	20876
855.256	20807
855.39	20807
855.524	20887
855.658	20986
855.792	20826
855.926	21066
856.06	20899
856.194	20910
856.327	20788
856.461	20952
856.595	20765
856.729	20956
856.862	20982
856.996	20960
857.13	20941
857.263	20982
857.397	21028
857.53	20899
857.664	20921
857.797	20868
857.931	21047
858.064	20918
858.197	20956
858.331	21001
858.464	20861
858.597	20948
858.731	20876
858.864	20868
858.997	20842
859.13	20929
859.263	20872
859.396	20902
859.529	20842
859.662	20891
859.795	20826
859.928	20952
860.061	20880
860.194	21066
860.327	20925
860.46	21055
860.592	20853
860.725	21032
860.858	20895
860.99	20937
861.123	20785
861.256	20826
861.388	20902
861.521	21412
861.653	20800
861.786	20655
861.918	20716
862.05	20689
862.183	20883
862.315	20815
862.447	20952
862.58	20697
862.712	20682
862.844	20609
862.976	20678
863.108	20735
863.24	21062
863.372	20583
863.504	20587
863.636	20617
863.768	20678
863.9	20609
864.032	20499
864.164	20613
864.296	20632
864.428	20625
864.559	20705
864.691	20807
864.823	20590
864.954	20606
865.086	20457
865.217	20556
865.349	20484
865.48	20469
865.612	20514
865.743	20629
865.875	20514
866.006	20503
866.137	20556
866.269	20575
866.4	20461
866.531	20522
866.662	20423
866.793	20412
866.924	20499
867.055	20461
867.186	20457
867.317	20473
867.448	20248
867.579	20362
867.71	20381
867.841	20454
867.972	20393
868.103	20446
868.233	20343
868.364	20408
868.495	20457
868.625	20674
868.756	20785
868.886	20625
869.017	20720
869.147	20811
869.278	20800
869.408	20708
869.539	20834
869.669	20762
869.799	20765
869.929	20800
870.06	20804
870.19	20967
870.32	20910
870.45	20952
870.58	21055
870.71	21211
870.84	21188
870.97	21108
871.1	21020
871.23	21291
871.36	21313
871.489	21241
871.619	21249
871.749	21332
871.879	21340
872.008	21363
872.138	21279
872.267	21192
872.397	21203
872.526	21047
872.656	21066
872.785	21039
872.915	21435
873.044	21336
873.173	21321
873.303	21317
873.432	21363
873.561	21291
873.69	21382
873.819	21382
873.948	21523
874.077	21340
874.206	21241
874.335	21291
874.464	21435
874.593	21568
874.722	21466
874.851	21576
874.979	21580
875.108	21648
875.237	21652
875.365	21355
875.494	21511
875.623	21701
875.751	21511
875.88	21515
876.008	21686
876.136	21835
876.265	21930
876.393	22219
876.521	21964
876.65	22067
876.778	21949
876.906	22029
877.034	21804
877.162	21903
877.29	21930
877.418	21903
877.546	21964
877.674	21926
877.802	21869
877.93	21842
878.058	21884
878.185	21667
878.313	21850
878.441	21937
878.568	21785
878.696	21857
878.824	21888
878.951	21983
879.079	21987
879.206	22215
879.333	22025
879.461	21968
879.588	22143
879.715	22021
879.842	22158
879.97	22036
880.097	21743
880.224	21648
880.351	21720
880.478	21679
880.605	21622
880.732	21701
880.859	21975
880.986	21633
881.112	21709
881.239	21595
881.366	21511
881.493	21393
881.619	21298
881.746	21336
881.872	21477
881.999	21325
882.125	21218
882.252	21275
882.378	21192
882.505	21447
882.631	21180
882.757	20982
882.883	21062
883.01	21074
883.136	20971
883.262	20804
883.388	20929
883.514	21051
883.64	21013
883.766	20971
883.892	20880
884.018	20788
884.143	21051
884.269	21020
884.395	20823
884.52	20678
884.646	20575
884.772	20568
884.897	20568
885.023	20602
885.148	20708
885.274	20720
885.399	20743
885.524	20583
885.65	20731
885.775	20629
885.9	20716
886.025	20712
886.15	20682
886.275	20629
886.4	20579
886.525	20560
886.65	20488
886.775	20541
886.9	20659
887.025	20834
887.149	20495
887.274	20492
887.399	20389
887.523	20450
887.648	20358
887.773	20377
887.897	20484
888.021	20370
888.146	20415
888.27	20556
888.395	20484
888.519	20408
888.643	20423
888.767	20298
888.891	20282
889.015	20259
889.139	20214
889.263	20206
889.387	20275
889.511	20537
889.635	20298
889.759	20210
889.883	20229
890.006	20225
890.13	20309
890.254	20225
890.377	20206
890.501	20088
890.624	20020
890.748	19997
890.871	19875
890.995	19803
891.118	19750
891.241	19719
891.364	19818
891.488	19849
891.611	19871
891.734	19849
891.857	19799
891.98	19784
892.103	19864
892.226	19814
892.349	19791
892.471	19594
892.594	19738
892.717	19788
892.839	19723
892.962	19715
893.085	19704
893.207	19757
893.33	19571
893.452	19613
893.575	19814
893.697	19772
893.819	19925
893.941	19852
894.064	19807
894.186	19647
894.308	19643
894.43	19689
894.552	19978
894.674	19753
894.796	19575
894.918	19753
895.04	19655
895.161	19780
895.283	19655
895.405	19578
895.526	19715
895.648	19746
895.769	19746
895.891	19761
896.012	19841
896.134	19799
896.255	19875
896.376	19727
896.498	19742
896.619	19784
896.74	19776
896.861	19772
896.982	20073
897.103	20157
897.224	19879
897.345	19936
897.466	20050
897.587	20008
897.708	20176
897.828	20054
897.949	19875
898.07	19731
898.19	19932
898.311	19982
898.431	19898
898.552	19970
898.672	19917
898.792	20065
898.913	20016
899.033	19868
899.153	19788
899.273	19567
899.393	19822
899.513	19791
899.633	19731
899.753	19715
899.873	19670
899.993	19715
900.113	19685
900.232	19757
900.352	19639
900.472	19635
900.591	19460
900.711	19552
900.83	19510
900.95	19445
901.069	19453
901.189	19377
901.308	19148
901.427	18993
901.546	19080
901.665	19080
901.784	19179
901.904	18913
902.023	18894
902.141	18646
902.26	18673
902.379	18787
902.498	18616
902.617	18612
902.735	18703
902.854	18646
902.973	18559
903.091	18346
903.21	18243
903.328	18327
903.446	18254
903.565	18155
903.683	18038
903.801	17942
903.919	18098
904.038	18015
904.156	17920
904.274	17916
904.392	17897
904.51	17885
904.627	17885
904.745	17984
904.863	17847
904.981	17661
905.098	17566
905.216	17608
905.334	17573
905.451	17463
905.569	17539
905.686	17638
905.803	17501
905.921	17368
906.038	17376
906.155	17315
906.272	17174
906.389	17185
906.506	17189
906.623	17060
906.74	17056
906.857	17060
906.974	16946
907.091	17128
907.208	17280
907.324	17178
907.441	16995
907.557	16812
907.674	16862
907.79	16752
907.907	16740
908.023	16816
908.139	16866
908.256	16767
908.372	16599
908.488	16694
908.604	16466
908.72	16440
908.836	16531
908.952	16500
909.068	16603
909.184	16573
909.3	16504
909.415	16546
909.531	16451
909.647	16306
909.762	16211
909.878	16230
909.993	16242
910.108	16188
910.224	16120
910.339	16128
910.454	16040
910.57	16006
910.685	15903
910.8	16207
910.915	16185
911.03	15960
911.145	15804
911.259	15831
911.374	15869
911.489	15759
911.604	15698
911.718	15606
911.833	15591
911.947	15561
912.062	15378
912.176	15606
912.291	15625
912.405	15542
912.519	15793
912.633	15682
912.748	15663
912.862	15485
912.976	15408
913.09	15348
913.204	15264
913.318	15367
913.431	15393
913.545	15458
913.659	15428
913.772	15321
913.886	15260
914	15233
914.113	15241
914.226	15325
914.34	15226
914.453	15093
914.566	15252
914.68	15093
914.793	15104
914.906	14857
915.019	14796
915.132	14739
915.245	14804
915.358	14910
915.47	14948
915.583	14811
915.696	14880
915.809	15013
915.921	14971
916.034	14800
916.146	14716
916.259	14648
916.371	14823
916.483	14712
916.595	14621
916.708	14693
916.82	14705
916.932	14613
917.044	14556
917.156	14579
917.268	14446
917.38	14450
917.491	14499
917.603	14495
917.715	14590
917.826	14640
917.938	14366
918.049	14263
918.161	14385
918.272	14541
918.384	14564
918.495	14423
918.606	14286
918.717	14134
918.828	14237
918.939	14240
919.05	14210
919.161	14275
919.272	14043
919.383	14050
919.494	14206
919.604	14457
919.715	14313
919.826	14145
919.936	14107
920.047	14237
920.157	14206
920.267	14374
920.378	14252
920.488	14221
920.598	14336
920.708	14564
920.818	14328
920.928	14328
921.038	14503
921.148	14389
921.258	14119
921.368	14081
921.477	13944
921.587	13978
921.697	13799
921.806	14069
921.916	13769
922.025	13685
922.134	13685
922.244	13597
922.353	13685
922.462	13476
922.571	13411
922.68	13297
922.789	13312
922.898	13358
923.007	13198
923.116	13274
923.224	13327
923.333	13339
923.442	13107
923.55	13091
923.659	13057
923.767	13190
923.876	13053
923.984	13133
924.092	12985
924.201	13057
924.309	12985
924.417	13034
924.525	12970
924.633	12996
924.741	13883
924.849	12654
924.956	12871
925.064	12821
925.172	12623
925.279	12726
925.387	12722
925.494	12711
925.602	12795
925.709	12749
925.816	12540
925.924	12635
926.031	12760
926.138	12639
926.245	12684
926.352	12509
926.459	12665
926.566	12776
926.673	12593
926.779	12525
926.886	12479
926.993	12327
927.099	12285
927.206	12194
927.312	12182
927.419	12213
927.525	12182
927.631	12254
927.737	12125
927.843	12133
927.95	11980
928.056	12079
928.162	12102
928.267	12220
928.373	12662
928.479	12133
928.585	11965
928.69	12019
928.796	12038
928.901	11912
929.007	11790
929.112	11969
929.218	11999
929.323	11824
929.428	11874
929.533	11992
929.638	11779
929.743	11836
929.848	11828
929.953	11794
930.058	11691
930.163	11490
930.267	11532
930.372	11661
930.477	11501
930.581	11710
930.685	11524
930.79	11452
930.894	11414
930.998	11414
931.103	11478
931.207	11166
931.311	11033
931.415	11037
931.519	10889
931.623	10736
