Data from test_V78500241_1617.txt Node
Date: Fri Mar 25 15:53:00 CST 2022
User: usil
Spectrometer: V785-0024
Trigger mode: 0
Integration Time (sec): 4.000000E-1
Scans to average: 1
Nonlinearity correction enabled: false
Boxcar width: 0
Storing dark spectrum: false
XAxis mode: Wavelengths
Number of Pixels in Spectrum: 1024
>>>>>Begin Spectral Data<<<<<
801.071	28436
801.214	28386
801.356	27907
801.499	27998
801.641	27983
801.783	27907
801.926	28040
802.068	27994
802.211	27831
802.353	27819
802.496	27591
802.638	27576
802.78	27694
802.923	27542
803.065	27405
803.208	27526
803.35	27629
803.492	27644
803.635	27778
803.777	27671
803.919	27903
804.061	28181
804.204	27899
804.346	27819
804.488	27743
804.63	27698
804.773	27701
804.915	27937
805.057	27907
805.199	27869
805.341	27854
805.483	27975
805.626	27918
805.768	27930
805.91	27991
806.052	27960
806.194	27899
806.336	28135
806.478	28120
806.62	27964
806.762	28131
806.904	28093
807.046	28599
807.188	28272
807.33	28371
807.472	28470
807.614	28390
807.756	28428
807.898	28196
808.04	28128
808.182	28215
808.324	28344
808.465	28405
808.607	28611
808.749	28557
808.891	28748
809.033	28809
809.174	28679
809.316	28717
809.458	28615
809.6	28634
809.741	28717
809.883	28771
810.025	28835
810.166	28953
810.308	28919
810.45	28911
810.591	28858
810.733	28710
810.875	28618
811.016	28569
811.158	28432
811.299	28683
811.441	28862
811.582	28790
811.724	28592
811.865	28736
812.007	28713
812.148	28812
812.29	28653
812.431	28816
812.573	29025
812.714	29098
812.855	29261
812.997	29265
813.138	29383
813.279	29448
813.421	29212
813.562	28976
813.703	29044
813.845	28923
813.986	28615
814.127	28363
814.268	28287
814.41	28329
814.551	28265
814.692	28466
814.833	28371
814.974	28291
815.115	28333
815.256	28173
815.397	28150
815.539	28356
815.68	28101
815.821	28090
815.962	28276
816.103	28272
816.244	28086
816.385	28010
816.526	27895
816.666	27652
816.807	27603
816.948	27663
817.089	27686
817.23	27720
817.371	27622
817.512	27698
817.653	27759
817.793	27652
817.934	27652
818.075	27698
818.216	27675
818.356	27591
818.497	27473
818.638	27386
818.778	27363
818.919	27412
819.06	27542
819.2	27530
819.341	27477
819.481	27648
819.622	27739
819.762	27884
819.903	27876
820.043	27956
820.184	27789
820.324	27892
820.465	27797
820.605	27797
820.746	27861
820.886	27717
821.026	27774
821.167	27656
821.307	27907
821.447	27686
821.588	27648
821.728	27466
821.868	27378
822.008	27230
822.149	27222
822.289	27161
822.429	26815
822.569	26952
822.709	26823
822.849	26632
822.99	26750
823.13	26541
823.27	26659
823.41	26514
823.55	26450
823.69	26389
823.83	26507
823.97	26446
824.11	26317
824.25	26130
824.389	26221
824.529	26385
824.669	26221
824.809	26522
824.949	26347
825.089	26415
825.228	26313
825.368	26111
825.508	26161
825.648	26252
825.787	26187
825.927	26210
826.067	26145
826.206	26267
826.346	26275
826.485	26362
826.625	26122
826.765	26256
826.904	26225
827.044	26043
827.183	25963
827.323	25837
827.462	25894
827.601	25917
827.741	25959
827.88	25765
828.02	25799
828.159	25936
828.298	25780
828.437	26024
828.577	25879
828.716	25982
828.855	25826
828.994	25628
829.134	25582
829.273	25586
829.412	25441
829.551	25571
829.69	25582
829.829	25499
829.968	25731
830.107	25605
830.246	25495
830.385	25578
830.524	25476
830.663	25392
830.802	25316
830.941	25327
831.08	25198
831.219	25304
831.357	25152
831.496	25415
831.635	25236
831.774	25168
831.913	25084
832.051	25023
832.19	24848
832.329	25038
832.467	24863
832.606	24916
832.744	24840
832.883	24783
833.022	24970
833.16	24875
833.299	24909
833.437	24905
833.576	24829
833.714	24958
833.852	24844
833.991	24966
834.129	25012
834.267	25000
834.406	24973
834.544	25080
834.682	24852
834.821	24897
834.959	24943
835.097	24772
835.235	25053
835.373	24764
835.511	24894
835.65	24753
835.788	24806
835.926	24730
836.064	24601
836.202	24608
836.34	24745
836.478	24760
836.615	24734
836.753	24623
836.891	24806
837.029	24768
837.167	24726
837.305	24635
837.443	24566
837.58	24574
837.718	24555
837.856	24639
837.993	24441
838.131	24464
838.269	24635
838.406	24604
838.544	24357
838.681	24334
838.819	24319
838.956	23935
839.094	24102
839.231	24155
839.369	24308
839.506	24388
839.643	24209
839.781	24087
839.918	24015
840.055	24015
840.193	24015
840.33	23988
840.467	23916
840.604	24041
840.742	24270
840.879	23828
841.016	23863
841.153	23847
841.29	24091
841.427	23866
841.564	23992
841.701	23859
841.838	23980
841.975	23828
842.112	23980
842.249	23927
842.385	23786
842.522	23897
842.659	23741
842.796	23718
842.933	23729
843.069	23623
843.206	23627
843.343	23889
843.479	23703
843.616	23687
843.752	23638
843.889	23455
844.025	23630
844.162	23471
844.298	23581
844.435	23528
844.571	23406
844.708	23463
844.844	23783
844.98	23573
845.117	23509
845.253	23356
845.389	23467
845.525	23417
845.661	23372
845.798	23284
845.934	23345
846.07	23242
846.206	23326
846.342	23311
846.478	23197
846.614	23033
846.75	22873
846.886	22938
847.022	22930
847.158	23067
847.294	22987
847.429	23098
847.565	22953
847.701	23113
847.837	22740
847.972	22717
848.108	22736
848.244	22782
848.379	22672
848.515	22660
848.65	22470
848.786	22717
848.921	22493
849.057	22683
849.192	22634
849.328	22611
849.463	22618
849.598	22546
849.734	22344
849.869	22516
850.004	22295
850.14	22417
850.275	22223
850.41	22356
850.545	22310
850.68	22318
850.815	22287
850.95	22272
851.085	22527
851.22	22375
851.355	22428
851.49	22234
851.625	22299
851.76	22356
851.895	22253
852.03	22322
852.165	22253
852.299	22375
852.434	22367
852.569	22249
852.703	22314
852.838	22352
852.973	22519
853.107	22428
853.242	22337
853.376	22230
853.511	21911
853.645	22044
853.78	22219
853.914	22048
854.048	22135
854.183	22063
854.317	22063
854.451	22268
854.585	22112
854.72	22246
854.854	22169
854.988	22078
855.122	22082
855.256	22013
855.39	22116
855.524	22177
855.658	22154
855.792	22143
855.926	22154
856.06	22185
856.194	22162
856.327	22112
856.461	22097
856.595	22063
856.729	22002
856.862	22188
856.996	22147
857.13	22162
857.263	22246
857.397	22230
857.53	22135
857.664	22109
857.797	22265
857.931	22310
858.064	22082
858.197	22280
858.331	22147
858.464	22021
858.597	22131
858.731	22055
858.864	22135
858.997	22063
859.13	22124
859.263	22116
859.396	22204
859.529	22181
859.662	22090
859.795	22139
859.928	22105
860.061	22341
860.194	22318
860.327	22238
860.46	22093
860.592	22196
860.725	22322
860.858	22230
860.99	22070
861.123	22055
861.256	22078
861.388	22143
861.521	22839
861.653	22109
861.786	21979
861.918	21983
862.05	22063
862.183	22120
862.315	21953
862.447	22093
862.58	22002
862.712	21873
862.844	21835
862.976	21842
863.108	21903
863.24	22276
863.372	21751
863.504	21816
863.636	21812
863.768	21869
863.9	21846
864.032	21838
864.164	21861
864.296	21895
864.428	21915
864.559	21926
864.691	21884
864.823	21838
864.954	21827
865.086	21618
865.217	21774
865.349	21675
865.48	21690
865.612	21751
865.743	21861
865.875	21827
866.006	21736
866.137	21663
866.269	21671
866.4	21660
866.531	21690
866.662	21720
866.793	21644
866.924	21686
867.055	21747
867.186	21660
867.317	21720
867.448	21500
867.579	21644
867.71	21511
867.841	21587
867.972	21690
868.103	21686
868.233	21671
868.364	21652
868.495	21762
868.625	21884
868.756	21975
868.886	21781
869.017	21907
869.147	22063
869.278	21998
869.408	21930
869.539	21998
869.669	21964
869.799	21945
869.929	22002
870.06	22002
870.19	22166
870.32	22131
870.45	22246
870.58	22375
870.71	22394
870.84	22375
870.97	22230
871.1	22284
871.23	22554
871.36	22508
871.489	22375
871.619	22443
871.749	22432
871.879	22489
872.008	22611
872.138	22519
872.267	22360
872.397	22363
872.526	22314
872.656	22306
872.785	22337
872.915	22611
873.044	22615
873.173	22485
873.303	22527
873.432	22637
873.561	22550
873.69	22588
873.819	22462
873.948	22569
874.077	22470
874.206	22554
874.335	22588
874.464	22668
874.593	22675
874.722	22733
874.851	22752
874.979	22759
875.108	22812
875.237	22752
875.365	22630
875.494	22805
875.623	22869
875.751	22668
875.88	22778
876.008	22805
876.136	22805
876.265	23124
876.393	23223
876.521	23189
876.65	23086
876.778	23140
876.906	23010
877.034	22995
877.162	23117
877.29	23056
877.418	23025
877.546	23094
877.674	23075
877.802	23064
877.93	23124
878.058	23064
878.185	23014
878.313	22987
878.441	23185
878.568	23010
878.696	23022
878.824	23044
878.951	23018
879.079	23235
879.206	23376
879.333	23044
879.461	23094
879.588	23014
879.715	23216
879.842	23311
879.97	23227
880.097	22980
880.224	22862
880.351	22885
880.478	22946
880.605	22843
880.732	22961
880.859	23067
880.986	22980
881.112	22816
881.239	22702
881.366	22561
881.493	22531
881.619	22436
881.746	22523
881.872	22622
881.999	22409
882.125	22405
882.252	22500
882.378	22466
882.505	22538
882.631	22253
882.757	22207
882.883	22261
883.01	22169
883.136	22188
883.262	21934
883.388	22082
883.514	22204
883.64	22219
883.766	22040
883.892	22006
884.018	21956
884.143	22109
884.269	22158
884.395	21869
884.52	21781
884.646	21827
884.772	21759
884.897	21739
885.023	21789
885.148	21926
885.274	21835
885.399	21994
885.524	21720
885.65	21884
885.775	21808
885.9	21660
886.025	21918
886.15	21823
886.275	21759
886.4	21732
886.525	21789
886.65	21557
886.775	21762
886.9	21865
887.025	21899
887.149	21762
887.274	21580
887.399	21591
887.523	21530
887.648	21568
887.773	21363
887.897	21572
888.021	21519
888.146	21500
888.27	21557
888.395	21637
888.519	21599
888.643	21641
888.767	21587
888.891	21431
889.015	21359
889.139	21348
889.263	21291
889.387	21431
889.511	21496
889.635	21325
889.759	21313
889.883	21348
890.006	21488
890.13	21439
890.254	21142
890.377	21207
890.501	21093
890.624	20971
890.748	21051
890.871	21005
890.995	20887
891.118	20853
891.241	20925
891.364	20872
891.488	20994
891.611	20956
891.734	20925
891.857	20925
891.98	20887
892.103	20823
892.226	20773
892.349	20883
892.471	20598
892.594	20788
892.717	20785
892.839	20739
892.962	20830
893.085	20880
893.207	20834
893.33	20590
893.452	20731
893.575	20765
893.697	20712
893.819	20929
893.941	20994
894.064	20902
894.186	20670
894.308	20678
894.43	20849
894.552	20921
894.674	20830
894.796	20606
894.918	20773
895.04	20788
895.161	20807
895.283	20880
895.405	20819
895.526	20667
895.648	20667
895.769	20670
895.891	20743
896.012	20857
896.134	20750
896.255	20819
896.376	20735
896.498	20880
896.619	20804
896.74	20727
896.861	20819
896.982	21062
897.103	21291
897.224	21028
897.345	20933
897.466	20921
897.587	20990
897.708	21222
897.828	20967
897.949	20925
898.07	20781
898.19	20910
898.311	21062
898.431	20990
898.552	20925
898.672	21024
898.792	20925
898.913	21047
899.033	20899
899.153	20834
899.273	20697
899.393	20746
899.513	20781
899.633	20724
899.753	20762
899.873	20625
899.993	20659
900.113	20575
900.232	20705
900.352	20670
900.472	20484
900.591	20423
900.711	20518
900.83	20423
900.95	20469
901.069	20602
901.189	20511
901.308	20084
901.427	20005
901.546	20035
901.665	20069
901.784	20069
901.904	19864
902.023	19731
902.141	19537
902.26	19552
902.379	19746
902.498	19533
902.617	19578
902.735	19544
902.854	19529
902.973	19362
903.091	19179
903.21	19350
903.328	19190
903.446	19076
903.565	19091
903.683	19004
903.801	18859
903.919	18996
904.038	18821
904.156	18730
904.274	18814
904.392	18722
904.51	18707
904.627	18760
904.745	18719
904.863	18734
904.981	18513
905.098	18407
905.216	18376
905.334	18570
905.451	18429
905.569	18342
905.686	18513
905.803	18467
905.921	18285
906.038	18323
906.155	18197
906.272	18277
906.389	18266
906.506	18007
906.623	18026
906.74	18011
906.857	17813
906.974	17851
907.091	18041
907.208	18163
907.324	17999
907.441	17821
907.557	17783
907.674	17687
907.79	17611
907.907	17577
908.023	17665
908.139	17604
908.256	17611
908.372	17486
908.488	17528
908.604	17402
908.72	17448
908.836	17379
908.952	17315
909.068	17364
909.184	17353
909.3	17356
909.415	17356
909.531	17455
909.647	17140
909.762	17147
909.878	17060
909.993	17113
910.108	17098
910.224	17003
910.339	17071
910.454	16965
910.57	16927
910.685	16877
910.8	17048
910.915	17056
911.03	16968
911.145	16634
911.259	16702
911.374	16607
911.489	16611
911.604	16561
911.718	16382
911.833	16447
911.947	16371
912.062	16226
912.176	16424
912.291	16398
912.405	16424
912.519	16561
912.633	16596
912.748	16447
912.862	16436
912.976	16234
913.09	16067
913.204	16204
913.318	16310
913.431	16253
913.545	16363
913.659	16382
913.772	16097
913.886	16143
914	15991
914.113	16074
914.226	16090
914.34	16093
914.453	15975
914.566	16177
914.68	15865
914.793	15838
914.906	15713
915.019	15538
915.132	15557
915.245	15644
915.358	15603
915.47	15663
915.583	15625
915.696	15713
915.809	15888
915.921	15720
916.034	15599
916.146	15386
916.259	15542
916.371	15606
916.483	15473
916.595	15500
916.708	15477
916.82	15424
916.932	15378
917.044	15363
917.156	15389
917.268	15332
917.38	15249
917.491	15230
917.603	15222
917.715	15298
917.826	15332
917.938	15272
918.049	15001
918.161	15287
918.272	15211
918.384	15283
918.495	15199
918.606	14914
918.717	14804
918.828	15001
918.939	14929
919.05	14933
919.161	15020
919.272	14815
919.383	14864
919.494	14990
919.604	15116
919.715	15005
919.826	14861
919.936	14899
920.047	14937
920.157	14914
920.267	15074
920.378	14880
920.488	14910
920.598	15131
920.708	15260
920.818	15009
920.928	15093
921.038	15188
921.148	15287
921.258	14929
921.368	14819
921.477	14705
921.587	14712
921.697	14594
921.806	14796
921.916	14457
922.025	14305
922.134	14267
922.244	14267
922.353	14362
922.462	14267
922.571	14096
922.68	14020
922.789	13944
922.898	13959
923.007	13989
923.116	13974
923.224	13959
923.333	13875
923.442	13860
923.55	13769
923.659	13860
923.767	13864
923.876	13670
923.984	13734
924.092	13628
924.201	13723
924.309	13670
924.417	13662
924.525	13597
924.633	13601
924.741	14644
924.849	13457
924.956	13559
925.064	13384
925.172	13278
925.279	13407
925.387	13251
925.494	13377
925.602	13506
925.709	13434
925.816	13225
925.924	13289
926.031	13304
926.138	13282
926.245	13308
926.352	13171
926.459	13308
926.566	13316
926.673	13198
926.779	13107
926.886	13072
926.993	12985
927.099	12943
927.206	12890
927.312	12768
927.419	13023
927.525	12871
927.631	12909
927.737	12772
927.843	12753
927.95	12582
928.056	12654
928.162	12681
928.267	12779
928.373	13320
928.479	12757
928.585	12673
928.69	12623
928.796	12631
928.901	12544
929.007	12479
929.112	12578
929.218	12509
929.323	12483
929.428	12391
929.533	12528
929.638	12369
929.743	12315
929.848	12532
929.953	12308
930.058	12391
930.163	12072
930.267	12102
930.372	12315
930.477	12022
930.581	12323
930.685	12175
930.79	11916
930.894	12041
930.998	12030
931.103	12171
931.207	11745
931.311	11691
931.415	11585
931.519	11402
931.623	11360
