Data from test_V78500241_424.txt Node
Date: Fri Mar 25 15:44:44 CST 2022
User: usil
Spectrometer: V785-0024
Trigger mode: 0
Integration Time (sec): 4.000000E-1
Scans to average: 1
Nonlinearity correction enabled: false
Boxcar width: 0
Storing dark spectrum: false
XAxis mode: Wavelengths
Number of Pixels in Spectrum: 1024
>>>>>Begin Spectral Data<<<<<
801.071	28706
801.214	28645
801.356	28462
801.499	28580
801.641	28413
801.783	28215
801.926	28360
802.068	28276
802.211	28200
802.353	28204
802.496	28158
802.638	28101
802.78	27876
802.923	27934
803.065	27899
803.208	27937
803.35	27960
803.492	28128
803.635	28284
803.777	28112
803.919	28246
804.061	28432
804.204	28200
804.346	28112
804.488	27956
804.63	28112
804.773	28059
804.915	28090
805.057	28257
805.199	27960
805.341	28207
805.483	28242
805.626	28276
805.768	28215
805.91	28318
806.052	28265
806.194	28344
806.336	28577
806.478	28348
806.62	28150
806.762	28455
806.904	28401
807.046	28828
807.188	28702
807.33	28752
807.472	28816
807.614	28577
807.756	28691
807.898	28550
808.04	28504
808.182	28577
808.324	28573
808.465	28725
808.607	28816
808.749	28942
808.891	28961
809.033	29044
809.174	29029
809.316	29022
809.458	28965
809.6	28919
809.741	29090
809.883	29147
810.025	29056
810.166	29159
810.308	29208
810.45	29356
810.591	29349
810.733	29109
810.875	28809
811.016	28634
811.158	28820
811.299	28869
811.441	29025
811.582	28995
811.724	28915
811.865	28797
812.007	28805
812.148	28828
812.29	29010
812.431	28904
812.573	29136
812.714	29273
812.855	29490
812.997	29547
813.138	29573
813.279	29608
813.421	29623
813.562	29444
813.703	29227
813.845	29117
813.986	28866
814.127	28645
814.268	28481
814.41	28508
814.551	28546
814.692	28694
814.833	28462
814.974	28493
815.115	28485
815.256	28390
815.397	28371
815.539	28360
815.68	28398
815.821	28344
815.962	28265
816.103	28303
816.244	28166
816.385	28063
816.526	28044
816.666	28025
816.807	27800
816.948	27857
817.089	27838
817.23	27781
817.371	27816
817.512	27759
817.653	27705
817.793	27705
817.934	27857
818.075	27762
818.216	27789
818.356	27625
818.497	27701
818.638	27614
818.778	27454
818.919	27496
819.06	27637
819.2	27682
819.341	27701
819.481	27785
819.622	27991
819.762	28143
819.903	27937
820.043	27983
820.184	27914
820.324	27835
820.465	27869
820.605	27865
820.746	27755
820.886	27728
821.026	27781
821.167	27781
821.307	27873
821.447	27739
821.588	27747
821.728	27553
821.868	27545
822.008	27260
822.149	27218
822.289	27252
822.429	27032
822.569	26853
822.709	26883
822.849	26712
822.99	26788
823.13	26712
823.27	26667
823.41	26549
823.55	26259
823.69	26556
823.83	26412
823.97	26328
824.11	26377
824.25	26248
824.389	26374
824.529	26511
824.669	26358
824.809	26400
824.949	26571
825.089	26286
825.228	26294
825.368	26062
825.508	26122
825.648	26164
825.787	26191
825.927	26183
826.067	26065
826.206	26119
826.346	26275
826.485	26084
826.625	26062
826.765	26267
826.904	26229
827.044	25921
827.183	25925
827.323	25871
827.462	25959
827.601	25917
827.741	25780
827.88	25963
828.02	25723
828.159	25864
828.298	25780
828.437	25917
828.577	25685
828.716	25944
828.855	25826
828.994	25514
829.134	25434
829.273	25578
829.412	25476
829.551	25411
829.69	25460
829.829	25567
829.968	25540
830.107	25689
830.246	25460
830.385	25479
830.524	25358
830.663	25339
830.802	25160
830.941	25137
831.08	25050
831.219	25240
831.357	25171
831.496	25430
831.635	25103
831.774	25069
831.913	24958
832.051	24852
832.19	24787
832.329	25038
832.467	24894
832.606	24837
832.744	24684
832.883	24681
833.022	24677
833.16	24661
833.299	24844
833.437	24875
833.576	24776
833.714	24776
833.852	24856
833.991	24897
834.129	24848
834.267	24985
834.406	24821
834.544	24783
834.682	24867
834.821	24852
834.959	24798
835.097	24859
835.235	24764
835.373	24772
835.511	24726
835.65	24646
835.788	24620
835.926	24418
836.064	24422
836.202	24388
836.34	24585
836.478	24665
836.615	24547
836.753	24620
836.891	24623
837.029	24661
837.167	24483
837.305	24426
837.443	24426
837.58	24441
837.718	24551
837.856	24350
837.993	24418
838.131	24422
838.269	24296
838.406	24311
838.544	24228
838.681	24121
838.819	24026
838.956	23927
839.094	23980
839.231	23817
839.369	24064
839.506	24399
839.643	24136
839.781	23843
839.918	23752
840.055	23893
840.193	23726
840.33	23729
840.467	23840
840.604	23821
840.742	23996
840.879	23714
841.016	23649
841.153	23775
841.29	23870
841.427	23676
841.564	23779
841.701	23733
841.838	23638
841.975	23691
842.112	23756
842.249	23452
842.385	23611
842.522	23790
842.659	23589
842.796	23474
842.933	23596
843.069	23421
843.206	23554
843.343	23581
843.479	23433
843.616	23490
843.752	23322
843.889	23250
844.025	23322
844.162	23326
844.298	23356
844.435	23204
844.571	23204
844.708	23288
844.844	23448
844.98	23433
845.117	23410
845.253	23178
845.389	23079
845.525	23109
845.661	23048
845.798	22987
845.934	22858
846.07	22976
846.206	22930
846.342	23022
846.478	22984
846.614	22831
846.75	22596
846.886	22706
847.022	22805
847.158	22641
847.294	22649
847.429	22710
847.565	22596
847.701	22927
847.837	22535
847.972	22379
848.108	22371
848.244	22440
848.379	22344
848.515	22348
848.65	22386
848.786	22390
848.921	22112
849.057	22405
849.192	22284
849.328	22295
849.463	22215
849.598	22169
849.734	22150
849.869	21998
850.004	22078
850.14	21949
850.275	22017
850.41	21964
850.545	21915
850.68	22006
850.815	21915
850.95	22021
851.085	22158
851.22	22093
851.355	22059
851.49	21937
851.625	21987
851.76	21949
851.895	21964
852.03	21994
852.165	21975
852.299	22036
852.434	22025
852.569	22029
852.703	22010
852.838	21991
852.973	22040
853.107	22090
853.242	21895
853.376	21835
853.511	21751
853.645	21808
853.78	21857
853.914	21835
854.048	21724
854.183	21835
854.317	21842
854.451	22010
854.585	21823
854.72	21835
854.854	21934
854.988	21808
855.122	21663
855.256	21660
855.39	21823
855.524	21762
855.658	21732
855.792	21736
855.926	21861
856.06	21964
856.194	21808
856.327	21720
856.461	21739
856.595	21759
856.729	21713
856.862	21804
856.996	21876
857.13	21926
857.263	21907
857.397	21941
857.53	21720
857.664	21747
857.797	21857
857.931	21816
858.064	21819
858.197	21850
858.331	21926
858.464	21690
858.597	21648
858.731	21736
858.864	21732
858.997	21698
859.13	21846
859.263	21583
859.396	21823
859.529	21675
859.662	21732
859.795	21739
859.928	21717
860.061	21972
860.194	21789
860.327	21800
860.46	21762
860.592	21778
860.725	21968
860.858	21865
860.99	21717
861.123	21720
861.256	21804
861.388	21701
861.521	22382
861.653	21606
861.786	21492
861.918	21553
862.05	21583
862.183	21644
862.315	21698
862.447	21835
862.58	21663
862.712	21587
862.844	21587
862.976	21637
863.108	21511
863.24	21884
863.372	21393
863.504	21458
863.636	21515
863.768	21526
863.9	21488
864.032	21340
864.164	21367
864.296	21454
864.428	21595
864.559	21428
864.691	21515
864.823	21580
864.954	21382
865.086	21405
865.217	21336
865.349	21302
865.48	21340
865.612	21310
865.743	21530
865.875	21393
866.006	21256
866.137	21355
866.269	21355
866.4	21192
866.531	21367
866.662	21188
866.793	21214
866.924	21275
867.055	21279
867.186	21214
867.317	21180
867.448	21203
867.579	21252
867.71	21195
867.841	21157
867.972	21195
868.103	21382
868.233	21272
868.364	21306
868.495	21473
868.625	21500
868.756	21564
868.886	21477
869.017	21424
869.147	21526
869.278	21622
869.408	21542
869.539	21450
869.669	21462
869.799	21496
869.929	21679
870.06	21633
870.19	21816
870.32	21884
870.45	21907
870.58	21846
870.71	22067
870.84	22063
870.97	21922
871.1	21968
871.23	22044
871.36	22173
871.489	21934
871.619	22128
871.749	22036
871.879	22128
872.008	22196
872.138	22032
872.267	22234
872.397	22055
872.526	22040
872.656	21987
872.785	21835
872.915	22070
873.044	22154
873.173	22135
873.303	22333
873.432	22280
873.561	22192
873.69	22116
873.819	22135
873.948	22253
874.077	22181
874.206	22154
874.335	22177
874.464	22109
874.593	22238
874.722	22375
874.851	22325
874.979	22341
875.108	22485
875.237	22329
875.365	22261
875.494	22284
875.623	22325
875.751	22325
875.88	22379
876.008	22451
876.136	22443
876.265	22721
876.393	22767
876.521	22824
876.65	22835
876.778	22801
876.906	22740
877.034	22763
877.162	22782
877.29	22615
877.418	22656
877.546	22771
877.674	22653
877.802	22668
877.93	22691
878.058	22565
878.185	22592
878.313	22557
878.441	22630
878.568	22577
878.696	22637
878.824	22733
878.951	22767
879.079	22892
879.206	22946
879.333	22866
879.461	22679
879.588	22881
879.715	22877
879.842	22949
879.97	22710
880.097	22481
880.224	22554
880.351	22508
880.478	22478
880.605	22485
880.732	22569
880.859	22782
880.986	22390
881.112	22497
881.239	22436
881.366	22261
881.493	22207
881.619	22139
881.746	21998
881.872	22249
881.999	22029
882.125	22029
882.252	22078
882.378	22051
882.505	22150
882.631	22010
882.757	21846
882.883	21915
883.01	21846
883.136	21728
883.262	21648
883.388	21583
883.514	21835
883.64	21797
883.766	21717
883.892	21553
884.018	21549
884.143	21694
884.269	21998
884.395	21534
884.52	21431
884.646	21473
884.772	21450
884.897	21237
885.023	21424
885.148	21443
885.274	21568
885.399	21393
885.524	21408
885.65	21401
885.775	21351
885.9	21374
886.025	21511
886.15	21515
886.275	21397
886.4	21332
886.525	21367
886.65	21241
886.775	21351
886.9	21595
887.025	21671
887.149	21526
887.274	21176
887.399	21211
887.523	21256
887.648	21096
887.773	21070
887.897	21188
888.021	21245
888.146	21093
888.27	21203
888.395	21180
888.519	21237
888.643	21154
888.767	21207
888.891	21062
889.015	20876
889.139	21062
889.263	20899
889.387	21089
889.511	21268
889.635	21089
889.759	20918
889.883	20910
890.006	21024
890.13	21096
890.254	20834
890.377	20826
890.501	20716
890.624	20651
890.748	20811
890.871	20632
890.995	20537
891.118	20484
891.241	20655
891.364	20533
891.488	20712
891.611	20454
891.734	20431
891.857	20686
891.98	20549
892.103	20530
892.226	20552
892.349	20473
892.471	20393
892.594	20522
892.717	20522
892.839	20396
892.962	20533
893.085	20499
893.207	20396
893.33	20370
893.452	20305
893.575	20465
893.697	20320
893.819	20716
893.941	20606
894.064	20564
894.186	20374
894.308	20366
894.43	20514
894.552	20492
894.674	20507
894.796	20351
894.918	20389
895.04	20362
895.161	20484
895.283	20396
895.405	20317
895.526	20446
895.648	20457
895.769	20381
895.891	20419
896.012	20434
896.134	20564
896.255	20385
896.376	20457
896.498	20415
896.619	20438
896.74	20427
896.861	20495
896.982	20826
897.103	20861
897.224	20830
897.345	20655
897.466	20632
897.587	20659
897.708	20811
897.828	20708
897.949	20530
898.07	20457
898.19	20667
898.311	20731
898.431	20632
898.552	20568
898.672	20781
898.792	20598
898.913	20518
899.033	20549
899.153	20438
899.273	20419
899.393	20339
899.513	20366
899.633	20473
899.753	20347
899.873	20218
899.993	20454
900.113	20309
900.232	20393
900.352	20286
900.472	20248
900.591	20111
900.711	20138
900.83	20119
900.95	20161
901.069	20202
901.189	20058
901.308	19769
901.427	19731
901.546	19738
901.665	19746
901.784	19765
901.904	19578
902.023	19434
902.141	19304
902.26	19232
902.379	19304
902.498	19129
902.617	19145
902.735	19213
902.854	19282
902.973	19099
903.091	18833
903.21	18943
903.328	18928
903.446	18802
903.565	18665
903.683	18684
903.801	18673
903.919	18658
904.038	18631
904.156	18437
904.274	18525
904.392	18486
904.51	18471
904.627	18426
904.745	18547
904.863	18418
904.981	18296
905.098	18273
905.216	18117
905.334	18091
905.451	18182
905.569	18095
905.686	18064
905.803	18190
905.921	17870
906.038	18045
906.155	17935
906.272	17863
906.389	17859
906.506	17687
906.623	17554
906.74	17672
906.857	17532
906.974	17589
907.091	17699
907.208	17790
907.324	17627
907.441	17581
907.557	17376
907.674	17364
907.79	17261
907.907	17379
908.023	17395
908.139	17368
908.256	17334
908.372	17185
908.488	17162
908.604	17140
908.72	16949
908.836	17029
908.952	16987
909.068	16968
909.184	17052
909.3	17067
909.415	17094
909.531	17083
909.647	16824
909.762	16774
909.878	16675
909.993	16679
910.108	16778
910.224	16778
910.339	16744
910.454	16653
910.57	16626
910.685	16462
910.8	16675
910.915	16618
911.03	16561
911.145	16424
911.259	16246
911.374	16280
911.489	16196
911.604	16158
911.718	16078
911.833	16101
911.947	16071
912.062	16017
912.176	16048
912.291	16109
912.405	16097
912.519	16299
912.633	16360
912.748	16166
912.862	16090
912.976	15945
913.09	15766
913.204	15819
913.318	15838
913.431	15960
913.545	15907
913.659	15983
913.772	15922
913.886	15789
914	15629
914.113	15739
914.226	15778
914.34	15770
914.453	15530
914.566	15682
914.68	15553
914.793	15545
914.906	15447
915.019	15230
915.132	15150
915.245	15256
915.358	15336
915.47	15283
915.583	15211
915.696	15237
915.809	15370
915.921	15428
916.034	15279
916.146	15165
916.259	15169
916.371	15245
916.483	15272
916.595	15077
916.708	15211
916.82	15116
916.932	15093
917.044	15062
917.156	15039
917.268	14883
917.38	14891
917.491	14887
917.603	14937
917.715	14979
917.826	14952
917.938	14788
918.049	14796
918.161	14853
918.272	14910
918.384	14975
918.495	14895
918.606	14655
918.717	14587
918.828	14746
918.939	14781
919.05	14587
919.161	14590
919.272	14415
919.383	14549
919.494	14754
919.604	14857
919.715	14617
919.826	14465
919.936	14693
920.047	14651
920.157	14644
920.267	14807
920.378	14579
920.488	14556
920.598	14868
920.708	14910
920.818	14777
920.928	14731
921.038	14853
921.148	14895
921.258	14495
921.368	14507
921.477	14339
921.587	14301
921.697	14180
921.806	14404
921.916	14286
922.025	14142
922.134	13917
922.244	13997
922.353	13951
922.462	14001
922.571	13772
922.68	13738
922.789	13677
922.898	13613
923.007	13632
923.116	13765
923.224	13651
923.333	13639
923.442	13502
923.55	13441
923.659	13548
923.767	13483
923.876	13480
923.984	13441
924.092	13331
924.201	13403
924.309	13354
924.417	13430
924.525	13335
924.633	13266
924.741	14218
924.849	13179
924.956	13285
925.064	13126
925.172	13019
925.279	13080
925.387	13065
925.494	13034
925.602	13270
925.709	13164
925.816	12996
925.924	13065
926.031	13190
926.138	12970
926.245	13050
926.352	12958
926.459	13076
926.566	13141
926.673	12993
926.779	12890
926.886	12848
926.993	12703
927.099	12688
927.206	12646
927.312	12574
927.419	12673
927.525	12688
927.631	12597
927.737	12506
927.843	12445
927.95	12437
928.056	12494
928.162	12513
928.267	12494
928.373	13027
928.479	12570
928.585	12330
928.69	12342
928.796	12456
928.901	12262
929.007	12167
929.112	12388
929.218	12281
929.323	12178
929.428	12106
929.533	12243
929.638	12148
929.743	12194
929.848	12190
929.953	12167
930.058	12041
930.163	11866
930.267	11874
930.372	12015
930.477	11870
930.581	12053
930.685	11958
930.79	11745
930.894	11851
930.998	11684
931.103	11863
931.207	11497
931.311	11372
931.415	11356
931.519	11147
931.623	11140
