Data from test_V78500241_741.txt Node
Date: Fri Mar 25 15:46:56 CST 2022
User: usil
Spectrometer: V785-0024
Trigger mode: 0
Integration Time (sec): 4.000000E-1
Scans to average: 1
Nonlinearity correction enabled: false
Boxcar width: 0
Storing dark spectrum: false
XAxis mode: Wavelengths
Number of Pixels in Spectrum: 1024
>>>>>Begin Spectral Data<<<<<
801.071	28032
801.214	27998
801.356	27751
801.499	27701
801.641	27629
801.783	27648
801.926	27682
802.068	27599
802.211	27511
802.353	27397
802.496	27252
802.638	27173
802.78	27192
802.923	27222
803.065	27245
803.208	27127
803.35	27348
803.492	27485
803.635	27165
803.777	27351
803.919	27553
804.061	27686
804.204	27431
804.346	27504
804.488	27359
804.63	27477
804.773	27355
804.915	27405
805.057	27641
805.199	27416
805.341	27500
805.483	27561
805.626	27667
805.768	27469
805.91	27770
806.052	27557
806.194	27515
806.336	27682
806.478	27682
806.62	27660
806.762	27652
806.904	27975
807.046	28158
807.188	28097
807.33	28029
807.472	28116
807.614	28006
807.756	27979
807.898	27831
808.04	27835
808.182	27774
808.324	27895
808.465	27861
808.607	28093
808.749	28284
808.891	28265
809.033	28325
809.174	28185
809.316	28344
809.458	28268
809.6	28265
809.741	28352
809.883	28546
810.025	28580
810.166	28531
810.308	28459
810.45	28386
810.591	28318
810.733	28230
810.875	28219
811.016	28177
811.158	28226
811.299	28322
811.441	28577
811.582	28341
811.724	28268
811.865	28177
812.007	28295
812.148	28333
812.29	28424
812.431	28363
812.573	28675
812.714	28615
812.855	28805
812.997	28843
813.138	28934
813.279	28915
813.421	28702
813.562	28656
813.703	28672
813.845	28580
813.986	28238
814.127	27998
814.268	27991
814.41	27964
814.551	27975
814.692	28006
814.833	27888
814.974	27876
815.115	28010
815.256	27892
815.397	27778
815.539	27797
815.68	27705
815.821	27778
815.962	27770
816.103	27732
816.244	27629
816.385	27576
816.526	27504
816.666	27325
816.807	27256
816.948	27325
817.089	27386
817.23	27332
817.371	27302
817.512	27245
817.653	27127
817.793	27317
817.934	27222
818.075	27195
818.216	27260
818.356	27260
818.497	27043
818.638	27017
818.778	26921
818.919	27062
819.06	26918
819.2	27199
819.341	27207
819.481	27154
819.622	27492
819.762	27686
819.903	27431
820.043	27427
820.184	27351
820.324	27359
820.465	27507
820.605	27363
820.746	27340
820.886	27272
821.026	27329
821.167	27256
821.307	27382
821.447	27351
821.588	27138
821.728	27058
821.868	26925
822.008	26701
822.149	26686
822.289	26777
822.429	26473
822.569	26385
822.709	26385
822.849	26252
822.99	26210
823.13	25982
823.27	26229
823.41	26005
823.55	26012
823.69	26077
823.83	26096
823.97	25883
824.11	25769
824.25	25795
824.389	25947
824.529	25928
824.669	25788
824.809	26031
824.949	26027
825.089	25989
825.228	25913
825.368	25700
825.508	25818
825.648	25814
825.787	25807
825.927	25818
826.067	25715
826.206	25685
826.346	25830
826.485	25826
826.625	25849
826.765	25826
826.904	25841
827.044	25540
827.183	25586
827.323	25400
827.462	25499
827.601	25590
827.741	25396
827.88	25613
828.02	25339
828.159	25384
828.298	25540
828.437	25567
828.577	25365
828.716	25533
828.855	25430
828.994	25247
829.134	25141
829.273	25148
829.412	25126
829.551	25198
829.69	25232
829.829	25103
829.968	25247
830.107	25263
830.246	25244
830.385	25072
830.524	25050
830.663	24878
830.802	24848
830.941	24749
831.08	24722
831.219	24738
831.357	24726
831.496	24947
831.635	24673
831.774	24658
831.913	24616
832.051	24604
832.19	24544
832.329	24589
832.467	24616
832.606	24296
832.744	24350
832.883	24494
833.022	24437
833.16	24544
833.299	24528
833.437	24513
833.576	24551
833.714	24559
833.852	24536
833.991	24483
834.129	24604
834.267	24547
834.406	24551
834.544	24597
834.682	24483
834.821	24505
834.959	24467
835.097	24456
835.235	24388
835.373	24410
835.511	24422
835.65	24342
835.788	24384
835.926	24251
836.064	24117
836.202	24163
836.34	24357
836.478	24369
836.615	24235
836.753	24403
836.891	24422
837.029	24338
837.167	24292
837.305	24254
837.443	24190
837.58	24045
837.718	24407
837.856	24159
837.993	24087
838.131	24129
838.269	24057
838.406	24098
838.544	23954
838.681	23741
838.819	23748
838.956	23600
839.094	23638
839.231	23718
839.369	23714
839.506	24041
839.643	23847
839.781	23615
839.918	23581
840.055	23604
840.193	23566
840.33	23509
840.467	23638
840.604	23562
840.742	23878
840.879	23436
841.016	23436
841.153	23509
841.29	23615
841.427	23611
841.564	23581
841.701	23474
841.838	23577
841.975	23398
842.112	23509
842.249	23417
842.385	23296
842.522	23455
842.659	23334
842.796	23239
842.933	23318
843.069	23322
843.206	23208
843.343	23265
843.479	23307
843.616	23326
843.752	23029
843.889	23018
844.025	23303
844.162	22938
844.298	23117
844.435	23064
844.571	23075
844.708	23113
844.844	23292
844.98	23216
845.117	23079
845.253	22968
845.389	22911
845.525	22957
845.661	22942
845.798	22820
845.934	22877
846.07	22702
846.206	22919
846.342	22938
846.478	22755
846.614	22535
846.75	22519
846.886	22512
847.022	22508
847.158	22637
847.294	22508
847.429	22481
847.565	22584
847.701	22740
847.837	22318
847.972	22261
848.108	22329
848.244	22333
848.379	22238
848.515	22006
848.65	22219
848.786	22147
848.921	22192
849.057	22226
849.192	22360
849.328	22188
849.463	22215
849.598	22112
849.734	22051
849.869	21945
850.004	21899
850.14	21915
850.275	21857
850.41	21812
850.545	21781
850.68	21835
850.815	21861
850.95	21797
851.085	22128
851.22	21968
851.355	22002
851.49	21857
851.625	21835
851.76	21846
851.895	21823
852.03	21838
852.165	21880
852.299	21873
852.434	21899
852.569	21892
852.703	21907
852.838	21983
852.973	22116
853.107	21975
853.242	21865
853.376	21842
853.511	21644
853.645	21686
853.78	21842
853.914	21679
854.048	21622
854.183	21709
854.317	21736
854.451	22013
854.585	21857
854.72	21679
854.854	21888
854.988	21576
855.122	21709
855.256	21633
855.39	21622
855.524	21778
855.658	21869
855.792	21732
855.926	21747
856.06	21717
856.194	21663
856.327	21652
856.461	21705
856.595	21701
856.729	21671
856.862	21854
856.996	21732
857.13	21869
857.263	21808
857.397	21793
857.53	21717
857.664	21736
857.797	21831
857.931	21922
858.064	21808
858.197	21797
858.331	21660
858.464	21622
858.597	21618
858.731	21739
858.864	21530
858.997	21701
859.13	21667
859.263	21698
859.396	21888
859.529	21724
859.662	21686
859.795	21709
859.928	21743
860.061	21968
860.194	21915
860.327	21789
860.46	21717
860.592	21861
860.725	21831
860.858	21728
860.99	21850
861.123	21686
861.256	21724
861.388	21656
861.521	22455
861.653	21549
861.786	21557
861.918	21633
862.05	21599
862.183	21606
862.315	21553
862.447	21701
862.58	21587
862.712	21568
862.844	21355
862.976	21447
863.108	21553
863.24	21861
863.372	21329
863.504	21272
863.636	21351
863.768	21363
863.9	21504
864.032	21279
864.164	21351
864.296	21504
864.428	21515
864.559	21538
864.691	21443
864.823	21458
864.954	21428
865.086	21283
865.217	21389
865.349	21332
865.48	21306
865.612	21249
865.743	21557
865.875	21424
866.006	21287
866.137	21230
866.269	21374
866.4	21279
866.531	21264
866.662	21211
866.793	21249
866.924	21199
867.055	21291
867.186	21287
867.317	21233
867.448	21116
867.579	21241
867.71	21154
867.841	21112
867.972	21294
868.103	21184
868.233	21233
868.364	21272
868.495	21313
868.625	21492
868.756	21542
868.886	21325
869.017	21386
869.147	21633
869.278	21652
869.408	21469
869.539	21424
869.669	21488
869.799	21629
869.929	21694
870.06	21557
870.19	21846
870.32	21781
870.45	21793
870.58	21888
870.71	21960
870.84	22013
870.97	21884
871.1	21861
871.23	22128
871.36	22048
871.489	22006
871.619	22010
871.749	22086
871.879	22063
872.008	22246
872.138	21998
872.267	21979
872.397	22021
872.526	21968
872.656	21915
872.785	21854
872.915	22131
873.044	22234
873.173	22086
873.303	22154
873.432	22105
873.561	22154
873.69	22200
873.819	22147
873.948	22013
874.077	22082
874.206	22166
874.335	22147
874.464	22177
874.593	22238
874.722	22188
874.851	22417
874.979	22356
875.108	22405
875.237	22181
875.365	22200
875.494	22257
875.623	22310
875.751	22215
875.88	22325
876.008	22348
876.136	22478
876.265	22668
876.393	22965
876.521	22850
876.65	22782
876.778	22805
876.906	22691
877.034	22630
877.162	22668
877.29	22710
877.418	22710
877.546	22645
877.674	22649
877.802	22733
877.93	22748
878.058	22782
878.185	22607
878.313	22519
878.441	22611
878.568	22440
878.696	22554
878.824	22672
878.951	22774
879.079	22896
879.206	22908
879.333	22866
879.461	22645
879.588	22778
879.715	22733
879.842	23083
879.97	22656
880.097	22523
880.224	22516
880.351	22508
880.478	22561
880.605	22542
880.732	22512
880.859	22675
880.986	22557
881.112	22493
881.239	22291
881.366	22211
881.493	22124
881.619	21987
881.746	22226
881.872	21975
881.999	21941
882.125	22025
882.252	22063
882.378	21972
882.505	22128
882.631	21899
882.757	21816
882.883	21793
883.01	21732
883.136	21709
883.262	21568
883.388	21663
883.514	21759
883.64	21774
883.766	21675
883.892	21545
884.018	21526
884.143	21583
884.269	21816
884.395	21431
884.52	21313
884.646	21344
884.772	21351
884.897	21249
885.023	21488
885.148	21488
885.274	21591
885.399	21340
885.524	21389
885.65	21401
885.775	21393
885.9	21321
886.025	21530
886.15	21405
886.275	21332
886.4	21450
886.525	21275
886.65	21195
886.775	21252
886.9	21572
887.025	21500
887.149	21473
887.274	21169
887.399	21081
887.523	21142
887.648	21074
887.773	21127
887.897	21321
888.021	21325
888.146	21074
888.27	21260
888.395	21192
888.519	21127
888.643	21218
888.767	21218
888.891	20967
889.015	20941
889.139	20967
889.263	20842
889.387	20986
889.511	21100
889.635	21138
889.759	20823
889.883	21024
890.006	20921
890.13	21096
890.254	20910
890.377	20963
890.501	20739
890.624	20621
890.748	20659
890.871	20693
890.995	20484
891.118	20431
891.241	20659
891.364	20518
891.488	20644
891.611	20571
891.734	20461
891.857	20621
891.98	20492
892.103	20716
892.226	20499
892.349	20484
892.471	20434
892.594	20404
892.717	20461
892.839	20438
892.962	20366
893.085	20431
893.207	20362
893.33	20244
893.452	20438
893.575	20457
893.697	20385
893.819	20541
893.941	20632
894.064	20461
894.186	20324
894.308	20324
894.43	20473
894.552	20537
894.674	20571
894.796	20233
894.918	20332
895.04	20324
895.161	20492
895.283	20393
895.405	20415
895.526	20408
895.648	20457
895.769	20530
895.891	20518
896.012	20492
896.134	20530
896.255	20396
896.376	20370
896.498	20469
896.619	20488
896.74	20461
896.861	20427
896.982	20792
897.103	20891
897.224	20667
897.345	20659
897.466	20609
897.587	20526
897.708	20739
897.828	20648
897.949	20617
898.07	20419
898.19	20526
898.311	20640
898.431	20465
898.552	20598
898.672	20682
898.792	20750
898.913	20651
899.033	20480
899.153	20514
899.273	20446
899.393	20366
899.513	20438
899.633	20473
899.753	20305
899.873	20332
899.993	20339
900.113	20347
900.232	20252
900.352	20256
900.472	20259
900.591	20218
900.711	20256
900.83	20107
900.95	20248
901.069	20267
901.189	20024
901.308	19776
901.427	19780
901.546	19727
901.665	19731
901.784	19769
901.904	19643
902.023	19476
902.141	19297
902.26	19152
902.379	19324
902.498	19320
902.617	19148
902.735	19285
902.854	19145
902.973	19072
903.091	18875
903.21	18909
903.328	18859
903.446	18779
903.565	18635
903.683	18779
903.801	18616
903.919	18642
904.038	18578
904.156	18445
904.274	18574
904.392	18369
904.51	18441
904.627	18464
904.745	18452
904.863	18483
904.981	18239
905.098	18121
905.216	18148
905.334	18114
905.451	18159
905.569	18083
905.686	18068
905.803	18159
905.921	17999
906.038	18133
906.155	17920
906.272	17855
906.389	17752
906.506	17611
906.623	17665
906.74	17718
906.857	17566
906.974	17642
907.091	17718
907.208	17851
907.324	17699
907.441	17573
907.557	17429
907.674	17337
907.79	17364
907.907	17372
908.023	17356
908.139	17501
908.256	17353
908.372	17239
908.488	17197
908.604	17204
908.72	17109
908.836	17041
908.952	17018
909.068	17132
909.184	17181
909.3	17098
909.415	17094
909.531	17052
909.647	16774
909.762	16858
909.878	16835
909.993	16816
910.108	16824
910.224	16809
910.339	16752
910.454	16637
910.57	16641
910.685	16561
910.8	16771
910.915	16805
911.03	16542
911.145	16432
911.259	16451
911.374	16360
911.489	16352
911.604	16310
911.718	16223
911.833	16219
911.947	16120
912.062	15934
912.176	16200
912.291	16086
912.405	16166
912.519	16337
912.633	16348
912.748	16223
912.862	16048
912.976	15968
913.09	15915
913.204	15915
913.318	16021
913.431	15968
913.545	15998
913.659	16078
913.772	15941
913.886	15846
914	15663
914.113	15766
914.226	15823
914.34	15895
914.453	15557
914.566	15827
914.68	15720
914.793	15667
914.906	15386
915.019	15386
915.132	15283
915.245	15260
915.358	15382
915.47	15272
915.583	15355
915.696	15294
915.809	15557
915.921	15477
916.034	15336
916.146	15279
916.259	15226
916.371	15302
916.483	15252
916.595	15154
916.708	15142
916.82	15237
916.932	15142
917.044	15062
917.156	15028
917.268	14956
917.38	14971
917.491	15005
917.603	14952
917.715	15036
917.826	15097
917.938	14937
918.049	14811
918.161	14899
918.272	15013
918.384	15005
918.495	14967
918.606	14804
918.717	14613
918.828	14640
918.939	14731
919.05	14670
919.161	14781
919.272	14552
919.383	14598
919.494	14716
919.604	14933
919.715	14739
919.826	14678
919.936	14731
920.047	14655
920.157	14762
920.267	14857
920.378	14720
920.488	14655
920.598	14838
920.708	14971
920.818	14781
920.928	14899
921.038	15009
921.148	14990
921.258	14697
921.368	14556
921.477	14377
921.587	14423
921.697	14298
921.806	14473
921.916	14210
922.025	14126
922.134	14103
922.244	14043
922.353	14153
922.462	14024
922.571	13947
922.68	13727
922.789	13757
922.898	13662
923.007	13643
923.116	13742
923.224	13753
923.333	13605
923.442	13563
923.55	13529
923.659	13559
923.767	13616
923.876	13430
923.984	13559
924.092	13400
924.201	13510
924.309	13559
924.417	13403
924.525	13331
924.633	13377
924.741	14237
924.849	13274
924.956	13324
925.064	13255
925.172	13122
925.279	13133
925.387	13118
925.494	13152
925.602	13339
925.709	13198
925.816	13027
925.924	13050
926.031	13164
926.138	13114
926.245	13137
926.352	12913
926.459	13023
926.566	13145
926.673	13084
926.779	12916
926.886	12920
926.993	12730
927.099	12719
927.206	12631
927.312	12692
927.419	12730
927.525	12623
927.631	12821
927.737	12570
927.843	12460
927.95	12361
928.056	12559
928.162	12494
928.267	12620
928.373	13126
928.479	12593
928.585	12376
928.69	12414
928.796	12551
928.901	12407
929.007	12235
929.112	12403
929.218	12342
929.323	12251
929.428	12254
929.533	12281
929.638	12197
929.743	12117
929.848	12258
929.953	12148
930.058	12155
930.163	11973
930.267	11992
930.372	12049
930.477	11878
930.581	12155
930.685	12011
930.79	11840
930.894	11847
930.998	11836
931.103	11961
931.207	11547
931.311	11554
931.415	11364
931.519	11216
931.623	11132
