Data from test_V78500241_2687.txt Node
Date: Fri Mar 25 16:00:24 CST 2022
User: usil
Spectrometer: V785-0024
Trigger mode: 0
Integration Time (sec): 4.000000E-1
Scans to average: 1
Nonlinearity correction enabled: false
Boxcar width: 0
Storing dark spectrum: false
XAxis mode: Wavelengths
Number of Pixels in Spectrum: 1024
>>>>>Begin Spectral Data<<<<<
801.071	28934
801.214	28877
801.356	28580
801.499	28451
801.641	28436
801.783	28303
801.926	28474
802.068	28261
802.211	28360
802.353	28306
802.496	28147
802.638	28078
802.78	27972
802.923	27937
803.065	27914
803.208	28074
803.35	28139
803.492	28295
803.635	28291
803.777	28086
803.919	28421
804.061	28767
804.204	28344
804.346	28192
804.488	28090
804.63	28276
804.773	28200
804.915	28371
805.057	28398
805.199	28192
805.341	28356
805.483	28432
805.626	28478
805.768	28246
805.91	28443
806.052	28519
806.194	28341
806.336	28535
806.478	28413
806.62	28538
806.762	28702
806.904	28744
807.046	29033
807.188	28915
807.33	28877
807.472	29041
807.614	28816
807.756	28949
807.898	28828
808.04	28812
808.182	28691
808.324	28748
808.465	28763
808.607	28900
808.749	29102
808.891	29185
809.033	29231
809.174	29185
809.316	29197
809.458	29189
809.6	29113
809.741	29200
809.883	29391
810.025	29516
810.166	29455
810.308	29455
810.45	29360
810.591	29212
810.733	29258
810.875	29113
811.016	29159
811.158	28923
811.299	29254
811.441	29288
811.582	29349
811.724	29151
811.865	29121
812.007	29067
812.148	29231
812.29	29159
812.431	29311
812.573	29520
812.714	29539
812.855	29745
812.997	29904
813.138	29840
813.279	29882
813.421	29722
813.562	29733
813.703	29608
813.845	29356
813.986	29231
814.127	28938
814.268	28942
814.41	28915
814.551	28911
814.692	28938
814.833	28733
814.974	28835
815.115	28942
815.256	28672
815.397	28736
815.539	28725
815.68	28649
815.821	28615
815.962	28736
816.103	28523
816.244	28557
816.385	28314
816.526	28531
816.666	28211
816.807	28128
816.948	28211
817.089	28223
817.23	28226
817.371	28280
817.512	28147
817.653	28124
817.793	28051
817.934	28147
818.075	28215
818.216	28093
818.356	28067
818.497	28086
818.638	27869
818.778	27975
818.919	28006
819.06	27964
819.2	28029
819.341	28284
819.481	28173
819.622	28287
819.762	28565
819.903	28504
820.043	28360
820.184	28249
820.324	28268
820.465	28348
820.605	28230
820.746	28363
820.886	28200
821.026	28291
821.167	28143
821.307	28261
821.447	28200
821.588	28246
821.728	28078
821.868	27778
822.008	27614
822.149	27679
822.289	27507
822.429	27401
822.569	27306
822.709	27447
822.849	27173
822.99	27116
823.13	27131
823.27	27226
823.41	27039
823.55	26998
823.69	26940
823.83	26944
823.97	26998
824.11	26765
824.25	26785
824.389	26765
824.529	26705
824.669	26727
824.809	26918
824.949	26876
825.089	26872
825.228	26982
825.368	26697
825.508	26511
825.648	26663
825.787	26705
825.927	26861
826.067	26663
826.206	26655
826.346	26697
826.485	26670
826.625	26625
826.765	26705
826.904	26670
827.044	26347
827.183	26568
827.323	26518
827.462	26431
827.601	26495
827.741	26317
827.88	26575
828.02	26419
828.159	26256
828.298	26552
828.437	26545
828.577	26370
828.716	26556
828.855	26237
828.994	26218
829.134	26256
829.273	26206
829.412	26126
829.551	26058
829.69	26122
829.829	26240
829.968	25982
830.107	26221
830.246	26100
830.385	26016
830.524	25845
830.663	25894
830.802	25719
830.941	25769
831.08	25521
831.219	25849
831.357	25830
831.496	25909
831.635	25715
831.774	25685
831.913	25544
832.051	25426
832.19	25479
832.329	25548
832.467	25476
832.606	25339
832.744	25263
832.883	25479
833.022	25221
833.16	25365
833.299	25354
833.437	25552
833.576	25445
833.714	25464
833.852	25605
833.991	25411
834.129	25563
834.267	25419
834.406	25419
834.544	25537
834.682	25358
834.821	25415
834.959	25632
835.097	25453
835.235	25464
835.373	25552
835.511	25445
835.65	25278
835.788	25171
835.926	25137
836.064	25076
836.202	25053
836.34	25221
836.478	25373
836.615	25339
836.753	25206
836.891	25320
837.029	25308
837.167	25209
837.305	25187
837.443	25088
837.58	24856
837.718	25126
837.856	25129
837.993	25027
838.131	25110
838.269	24928
838.406	24924
838.544	24878
838.681	24715
838.819	24612
838.956	24536
839.094	24623
839.231	24757
839.369	24707
839.506	24996
839.643	24768
839.781	24616
839.918	24330
840.055	24544
840.193	24578
840.33	24627
840.467	24426
840.604	24582
840.742	24601
840.879	24308
841.016	24369
841.153	24171
841.29	24532
841.427	24262
841.564	24486
841.701	24521
841.838	24445
841.975	24414
842.112	24456
842.249	24254
842.385	24174
842.522	24460
842.659	24365
842.796	24163
842.933	24174
843.069	24243
843.206	24190
843.343	24327
843.479	24239
843.616	24235
843.752	23923
843.889	24144
844.025	24098
844.162	23809
844.298	24182
844.435	23961
844.571	24034
844.708	23969
844.844	24076
844.98	24064
845.117	24030
845.253	23783
845.389	23779
845.525	23920
845.661	23897
845.798	23786
845.934	23680
846.07	23680
846.206	23767
846.342	23866
846.478	23592
846.614	23364
846.75	23334
846.886	23299
847.022	23577
847.158	23509
847.294	23512
847.429	23558
847.565	23474
847.701	23687
847.837	23273
847.972	23048
848.108	23277
848.244	23315
848.379	23143
848.515	22946
848.65	23071
848.786	22957
848.921	23102
849.057	23086
849.192	23200
849.328	23022
849.463	23025
849.598	22957
849.734	22801
849.869	22961
850.004	22828
850.14	22858
850.275	22835
850.41	22694
850.545	22778
850.68	22740
850.815	22854
850.95	22812
851.085	22892
851.22	22946
851.355	22801
851.49	22809
851.625	22710
851.76	22733
851.895	22679
852.03	22580
852.165	22702
852.299	22793
852.434	22790
852.569	22755
852.703	22767
852.838	22850
852.973	22858
853.107	22881
853.242	22675
853.376	22717
853.511	22478
853.645	22481
853.78	22725
853.914	22656
854.048	22500
854.183	22664
854.317	22618
854.451	22755
854.585	22523
854.72	22622
854.854	22615
854.988	22538
855.122	22596
855.256	22443
855.39	22641
855.524	22710
855.658	22577
855.792	22531
855.926	22603
856.06	22672
856.194	22702
856.327	22580
856.461	22611
856.595	22580
856.729	22584
856.862	22824
856.996	22653
857.13	22622
857.263	22577
857.397	22687
857.53	22531
857.664	22755
857.797	22630
857.931	22565
858.064	22630
858.197	22588
858.331	22630
858.464	22519
858.597	22550
858.731	22554
858.864	22542
858.997	22725
859.13	22584
859.263	22660
859.396	22679
859.529	22611
859.662	22516
859.795	22493
859.928	22561
860.061	22687
860.194	22850
860.327	22596
860.46	22656
860.592	22675
860.725	22740
860.858	22755
860.99	22645
861.123	22618
861.256	22535
861.388	22607
861.521	23162
861.653	22440
861.786	22382
861.918	22516
862.05	22508
862.183	22554
862.315	22474
862.447	22489
862.58	22611
862.712	22363
862.844	22185
862.976	22284
863.108	22405
863.24	22759
863.372	22284
863.504	22306
863.636	22268
863.768	22348
863.9	22284
864.032	22337
864.164	22109
864.296	22310
864.428	22276
864.559	22291
864.691	22356
864.823	22417
864.954	22303
865.086	22204
865.217	22333
865.349	22002
865.48	22135
865.612	22234
865.743	22428
865.875	22204
866.006	22173
866.137	22196
866.269	22147
866.4	22067
866.531	22029
866.662	22063
866.793	22010
866.924	22177
867.055	22078
867.186	22120
867.317	22082
867.448	22067
867.579	22090
867.71	21915
867.841	22112
867.972	22055
868.103	22158
868.233	22029
868.364	22234
868.495	22173
868.625	22253
868.756	22451
868.886	22325
869.017	22341
869.147	22466
869.278	22470
869.408	22519
869.539	22261
869.669	22542
869.799	22481
869.929	22535
870.06	22573
870.19	22668
870.32	22698
870.45	22637
870.58	22653
870.71	22892
870.84	22858
870.97	22698
871.1	22603
871.23	22949
871.36	22877
871.489	22812
871.619	22881
871.749	23018
871.879	23025
872.008	23124
872.138	22949
872.267	22980
872.397	22793
872.526	22835
872.656	22767
872.785	22790
872.915	22904
873.044	23102
873.173	22949
873.303	23079
873.432	22968
873.561	23064
873.69	23033
873.819	22961
873.948	23010
874.077	22984
874.206	22862
874.335	22972
874.464	23048
874.593	23200
874.722	23174
874.851	23299
874.979	23208
875.108	23250
875.237	23178
875.365	23113
875.494	23121
875.623	23162
875.751	23197
875.88	23181
876.008	23353
876.136	23356
876.265	23684
876.393	23733
876.521	23687
876.65	23646
876.778	23611
876.906	23505
877.034	23627
877.162	23501
877.29	23531
877.418	23642
877.546	23562
877.674	23547
877.802	23417
877.93	23589
878.058	23433
878.185	23364
878.313	23463
878.441	23543
878.568	23159
878.696	23436
878.824	23516
878.951	23604
879.079	23726
879.206	23684
879.333	23634
879.461	23615
879.588	23627
879.715	23729
879.842	23687
879.97	23627
880.097	23349
880.224	23292
880.351	23379
880.478	23376
880.605	23239
880.732	23235
880.859	23448
880.986	23463
881.112	23425
881.239	23132
881.366	23029
881.493	23025
881.619	22961
881.746	22892
881.872	22850
881.999	22816
882.125	22824
882.252	22908
882.378	22824
882.505	22847
882.631	22744
882.757	22592
882.883	22603
883.01	22592
883.136	22504
883.262	22447
883.388	22459
883.514	22436
883.64	22618
883.766	22497
883.892	22257
884.018	22390
884.143	22508
884.269	22508
884.395	22185
884.52	22166
884.646	22177
884.772	22177
884.897	22143
885.023	22284
885.148	22226
885.274	22280
885.399	22325
885.524	22192
885.65	22185
885.775	22215
885.9	22188
886.025	22413
886.15	22284
886.275	22093
886.4	22063
886.525	22204
886.65	22219
886.775	22261
886.9	22238
887.025	22379
887.149	22188
887.274	22067
887.399	21998
887.523	22032
887.648	21842
887.773	21926
887.897	21956
888.021	21865
888.146	21899
888.27	22059
888.395	22063
888.519	21983
888.643	22002
888.767	21975
888.891	21785
889.015	21751
889.139	21892
889.263	21724
889.387	21884
889.511	21907
889.635	21899
889.759	21732
889.883	21736
890.006	21663
890.13	21804
890.254	21629
890.377	21656
890.501	21538
890.624	21652
890.748	21610
890.871	21420
890.995	21226
891.118	21275
891.241	21317
891.364	21317
891.488	21386
891.611	21332
891.734	21302
891.857	21420
891.98	21344
892.103	21298
892.226	21165
892.349	21340
892.471	21108
892.594	21169
892.717	21291
892.839	21116
892.962	21169
893.085	21332
893.207	21157
893.33	21146
893.452	21184
893.575	21279
893.697	21085
893.819	21230
893.941	21412
894.064	21237
894.186	21135
894.308	21074
894.43	21176
894.552	21351
894.674	21283
894.796	21123
894.918	21195
895.04	21024
895.161	21195
895.283	21180
895.405	20952
895.526	21123
895.648	21135
895.769	21188
895.891	21157
896.012	21241
896.134	21264
896.255	21070
896.376	21135
896.498	21218
896.619	21237
896.74	21233
896.861	21188
896.982	21416
897.103	21614
897.224	21367
897.345	21412
897.466	21416
897.587	21416
897.708	21462
897.828	21462
897.949	21332
898.07	21207
898.19	21165
898.311	21466
898.431	21340
898.552	21405
898.672	21344
898.792	21332
898.913	21268
899.033	21233
899.153	21112
899.273	20914
899.393	21119
899.513	21154
899.633	21173
899.753	21138
899.873	21096
899.993	21165
900.113	21142
900.232	21032
900.352	21013
900.472	20948
900.591	20842
900.711	20819
900.83	20727
900.95	20982
901.069	20998
901.189	20727
901.308	20613
901.427	20366
901.546	20473
901.665	20415
901.784	20381
901.904	20221
902.023	20176
902.141	20050
902.26	19967
902.379	20134
902.498	19989
902.617	19875
902.735	19894
902.854	19780
902.973	19871
903.091	19643
903.21	19658
903.328	19552
903.446	19430
903.565	19388
903.683	19400
903.801	19377
903.919	19419
904.038	19350
904.156	19129
904.274	19217
904.392	19103
904.51	19008
904.627	19118
904.745	19084
904.863	19365
904.981	18924
905.098	18764
905.216	18810
905.334	18886
905.451	18806
905.569	18882
905.686	18829
905.803	18741
905.921	18700
906.038	18753
906.155	18673
906.272	18521
906.389	18494
906.506	18296
906.623	18330
906.74	18334
906.857	18228
906.974	18266
907.091	18323
907.208	18483
907.324	18319
907.441	18224
907.557	18190
907.674	18007
907.79	18041
907.907	17992
908.023	18098
908.139	18041
908.256	17965
908.372	17863
908.488	17840
908.604	17775
908.72	17733
908.836	17874
908.952	17737
909.068	17741
909.184	17847
909.3	17783
909.415	17752
909.531	17775
909.647	17520
909.762	17497
909.878	17474
909.993	17417
910.108	17558
910.224	17307
910.339	17444
910.454	17356
910.57	17258
910.685	17242
910.8	17315
910.915	17379
911.03	17250
911.145	17067
911.259	17033
911.374	16919
911.489	16949
911.604	16904
911.718	16748
911.833	16771
911.947	16660
912.062	16721
912.176	16767
912.291	16812
912.405	16816
912.519	16991
912.633	16843
912.748	16824
912.862	16675
912.976	16596
913.09	16519
913.204	16523
913.318	16599
913.431	16721
913.545	16569
913.659	16626
913.772	16516
913.886	16382
914	16352
914.113	16478
914.226	16428
914.34	16268
914.453	16280
914.566	16363
914.68	16223
914.793	16246
914.906	15987
915.019	16029
915.132	15850
915.245	15949
915.358	16025
915.47	15918
915.583	15918
915.696	15937
915.809	16082
915.921	16017
916.034	15918
916.146	15819
916.259	15774
916.371	15861
916.483	15869
916.595	15838
916.708	15774
916.82	15736
916.932	15713
917.044	15743
917.156	15633
917.268	15587
917.38	15580
917.491	15625
917.603	15523
917.715	15644
917.826	15584
917.938	15549
918.049	15389
918.161	15534
918.272	15595
918.384	15595
918.495	15458
918.606	15363
918.717	15294
918.828	15287
918.939	15401
919.05	15131
919.161	15355
919.272	15142
919.383	15154
919.494	15393
919.604	15485
919.715	15302
919.826	15081
919.936	15184
920.047	15294
920.157	15211
920.267	15469
920.378	15302
920.488	15294
920.598	15492
920.708	15553
920.818	15439
920.928	15302
921.038	15447
921.148	15515
921.258	15203
921.368	15024
921.477	14975
921.587	15055
921.697	14785
921.806	14819
921.916	14899
922.025	14575
922.134	14629
922.244	14636
922.353	14606
922.462	14503
922.571	14431
922.68	14294
922.789	14237
922.898	14358
923.007	14286
923.116	14244
923.224	14191
923.333	14252
923.442	14046
923.55	14050
923.659	14096
923.767	14134
923.876	13955
923.984	14001
924.092	13917
924.201	14062
924.309	13898
924.417	13982
924.525	13788
924.633	13951
924.741	14788
924.849	13769
924.956	13860
925.064	13658
925.172	13605
925.279	13647
925.387	13662
925.494	13594
925.602	13753
925.709	13689
925.816	13571
925.924	13567
926.031	13674
926.138	13533
926.245	13628
926.352	13468
926.459	13556
926.566	13597
926.673	13499
926.779	13331
926.886	13327
926.993	13183
927.099	13149
927.206	13118
927.312	13107
927.419	13209
927.525	13126
927.631	13084
927.737	13042
927.843	13065
927.95	12886
928.056	12867
928.162	12928
928.267	13061
928.373	13552
928.479	13046
928.585	12715
928.69	12932
928.796	12962
928.901	12783
929.007	12665
929.112	12776
929.218	12730
929.323	12677
929.428	12662
929.533	12817
929.638	12585
929.743	12688
929.848	12642
929.953	12570
930.058	12517
930.163	12361
930.267	12296
930.372	12509
930.477	12315
930.581	12563
930.685	12338
930.79	12235
930.894	12140
930.998	12178
931.103	12369
931.207	12019
931.311	11901
931.415	11847
931.519	11646
931.623	11577
