Data from test_V78500241_1829.txt Node
Date: Fri Mar 25 15:54:28 CST 2022
User: usil
Spectrometer: V785-0024
Trigger mode: 0
Integration Time (sec): 4.000000E-1
Scans to average: 1
Nonlinearity correction enabled: false
Boxcar width: 0
Storing dark spectrum: false
XAxis mode: Wavelengths
Number of Pixels in Spectrum: 1024
>>>>>Begin Spectral Data<<<<<
801.071	28649
801.214	28649
801.356	28455
801.499	28375
801.641	28230
801.783	28310
801.926	28341
802.068	28173
802.211	28162
802.353	28109
802.496	28017
802.638	28051
802.78	27873
802.923	27899
803.065	27850
803.208	27960
803.35	27956
803.492	28025
803.635	28185
803.777	28074
803.919	28181
804.061	28531
804.204	28341
804.346	28124
804.488	28154
804.63	28173
804.773	28139
804.915	28242
805.057	28291
805.199	28204
805.341	28226
805.483	28371
805.626	28409
805.768	28284
805.91	28325
806.052	28424
806.194	28371
806.336	28550
806.478	28306
806.62	28341
806.762	28508
806.904	28615
807.046	28930
807.188	28797
807.33	28877
807.472	28961
807.614	28793
807.756	28839
807.898	28649
808.04	28653
808.182	28538
808.324	28683
808.465	28873
808.607	28892
808.749	28972
808.891	29109
809.033	29227
809.174	29140
809.316	29124
809.458	29044
809.6	29025
809.741	29189
809.883	29140
810.025	29299
810.166	29414
810.308	29273
810.45	29273
810.591	29159
810.733	29067
810.875	29075
811.016	29060
811.158	29121
811.299	29086
811.441	29170
811.582	29288
811.724	29109
811.865	28908
812.007	28938
812.148	29098
812.29	29098
812.431	29334
812.573	29364
812.714	29448
812.855	29505
812.997	29676
813.138	29824
813.279	29627
813.421	29608
813.562	29501
813.703	29448
813.845	29315
813.986	29098
814.127	28892
814.268	28721
814.41	28675
814.551	28763
814.692	28740
814.833	28691
814.974	28679
815.115	28900
815.256	28740
815.397	28596
815.539	28691
815.68	28664
815.821	28481
815.962	28565
816.103	28523
816.244	28489
816.385	28363
816.526	28382
816.666	28177
816.807	28021
816.948	28188
817.089	28139
817.23	28055
817.371	27934
817.512	28173
817.653	27941
817.793	28055
817.934	27979
818.075	28029
818.216	27937
818.356	28059
818.497	27918
818.638	27781
818.778	27751
818.919	27892
819.06	27869
819.2	28063
819.341	28101
819.481	28013
819.622	28223
819.762	28379
819.903	28348
820.043	28341
820.184	28169
820.324	28219
820.465	28215
820.605	28276
820.746	28147
820.886	27998
821.026	28196
821.167	28124
821.307	28333
821.447	28223
821.588	28109
821.728	27781
821.868	27709
822.008	27614
822.149	27618
822.289	27534
822.429	27256
822.569	27226
822.709	27287
822.849	27230
822.99	27081
823.13	27131
823.27	27039
823.41	26815
823.55	26872
823.69	26849
823.83	26986
823.97	26838
824.11	26739
824.25	26625
824.389	26526
824.529	26765
824.669	26697
824.809	26861
824.949	26830
825.089	26842
825.228	26743
825.368	26541
825.508	26655
825.648	26651
825.787	26663
825.927	26587
826.067	26632
826.206	26522
826.346	26686
826.485	26735
826.625	26480
826.765	26724
826.904	26629
827.044	26358
827.183	26450
827.323	26317
827.462	26259
827.601	26317
827.741	26282
827.88	26328
828.02	26214
828.159	26145
828.298	26275
828.437	26507
828.577	26275
828.716	26377
828.855	26317
828.994	25970
829.134	26077
829.273	26005
829.412	25993
829.551	25989
829.69	26062
829.829	26027
829.968	26054
830.107	26065
830.246	25974
830.385	26134
830.524	25906
830.663	25841
830.802	25738
830.941	25521
831.08	25647
831.219	25696
831.357	25597
831.496	25700
831.635	25708
831.774	25445
831.913	25476
832.051	25403
832.19	25396
832.329	25533
832.467	25297
832.606	25304
832.744	25331
832.883	25320
833.022	25236
833.16	25274
833.299	25343
833.437	25297
833.576	25335
833.714	25403
833.852	25316
833.991	25460
834.129	25506
834.267	25434
834.406	25388
834.544	25274
834.682	25324
834.821	25339
834.959	25457
835.097	25236
835.235	25350
835.373	25495
835.511	25293
835.65	25179
835.788	25209
835.926	25103
836.064	25053
836.202	25050
836.34	25148
836.478	25126
836.615	25076
836.753	25183
836.891	25114
837.029	25148
837.167	25080
837.305	25072
837.443	25027
837.58	24985
837.718	25187
837.856	25072
837.993	24985
838.131	24882
838.269	24848
838.406	24951
838.544	24722
838.681	24616
838.819	24525
838.956	24395
839.094	24429
839.231	24505
839.369	24544
839.506	24806
839.643	24787
839.781	24494
839.918	24399
840.055	24521
840.193	24384
840.33	24376
840.467	24342
840.604	24342
840.742	24650
840.879	24197
841.016	24357
841.153	24285
841.29	24429
841.427	24361
841.564	24372
841.701	24327
841.838	24384
841.975	24285
842.112	24213
842.249	24174
842.385	24281
842.522	24311
842.659	24182
842.796	24098
842.933	24163
843.069	24114
843.206	24030
843.343	24098
843.479	24045
843.616	24190
843.752	23920
843.889	23908
844.025	24087
844.162	23889
844.298	23984
844.435	23889
844.571	23790
844.708	23885
844.844	24091
844.98	23980
845.117	24049
845.253	23783
845.389	23733
845.525	23805
845.661	23710
845.798	23585
845.934	23680
846.07	23520
846.206	23672
846.342	23737
846.478	23714
846.614	23444
846.75	23356
846.886	23406
847.022	23482
847.158	23402
847.294	23364
847.429	23315
847.565	23265
847.701	23627
847.837	23003
847.972	23170
848.108	23083
848.244	23098
848.379	22953
848.515	22995
848.65	22812
848.786	23029
848.921	22877
849.057	22991
849.192	23014
849.328	22919
849.463	23037
849.598	22919
849.734	22801
849.869	22877
850.004	22618
850.14	22645
850.275	22729
850.41	22603
850.545	22679
850.68	22713
850.815	22736
850.95	22725
851.085	23014
851.22	22824
851.355	22721
851.49	22763
851.625	22698
851.76	22767
851.895	22733
852.03	22565
852.165	22713
852.299	22797
852.434	22725
852.569	22660
852.703	22687
852.838	22664
852.973	22862
853.107	22915
853.242	22660
853.376	22466
853.511	22409
853.645	22466
853.78	22675
853.914	22641
854.048	22557
854.183	22493
854.317	22500
854.451	22694
854.585	22546
854.72	22546
854.854	22603
854.988	22497
855.122	22557
855.256	22375
855.39	22409
855.524	22592
855.658	22504
855.792	22489
855.926	22379
856.06	22535
856.194	22573
856.327	22451
856.461	22443
856.595	22508
856.729	22337
856.862	22641
856.996	22588
857.13	22527
857.263	22702
857.397	22603
857.53	22466
857.664	22523
857.797	22421
857.931	22504
858.064	22508
858.197	22645
858.331	22432
858.464	22493
858.597	22390
858.731	22443
858.864	22379
858.997	22523
859.13	22577
859.263	22565
859.396	22611
859.529	22504
859.662	22546
859.795	22500
859.928	22478
860.061	22672
860.194	22660
860.327	22519
860.46	22535
860.592	22615
860.725	22637
860.858	22630
860.99	22603
861.123	22413
861.256	22516
861.388	22577
861.521	23208
861.653	22421
861.786	22363
861.918	22276
862.05	22322
862.183	22493
862.315	22413
862.447	22557
862.58	22485
862.712	22166
862.844	22280
862.976	22291
863.108	22284
863.24	22672
863.372	22181
863.504	22162
863.636	22234
863.768	22310
863.9	22329
864.032	22074
864.164	22169
864.296	22215
864.428	22344
864.559	22173
864.691	22352
864.823	22219
864.954	22070
865.086	22181
865.217	22143
865.349	21987
865.48	22097
865.612	22078
865.743	22291
865.875	22162
866.006	22109
866.137	22185
866.269	22101
866.4	22006
866.531	21915
866.662	22044
866.793	21975
866.924	21972
867.055	22029
867.186	21987
867.317	22006
867.448	22048
867.579	21880
867.71	21926
867.841	21975
867.972	22105
868.103	22086
868.233	21975
868.364	22093
868.495	22029
868.625	22223
868.756	22329
868.886	22070
869.017	22226
869.147	22337
869.278	22375
869.408	22306
869.539	22360
869.669	22352
869.799	22268
869.929	22246
870.06	22417
870.19	22542
870.32	22580
870.45	22618
870.58	22653
870.71	22740
870.84	22771
870.97	22588
871.1	22656
871.23	22809
871.36	22736
871.489	22873
871.619	22824
871.749	22908
871.879	22847
872.008	23018
872.138	22869
872.267	22976
872.397	22763
872.526	22744
872.656	22759
872.785	22637
872.915	22892
873.044	22904
873.173	22881
873.303	22938
873.432	22839
873.561	22957
873.69	22839
873.819	22782
873.948	22873
874.077	22873
874.206	22892
874.335	22896
874.464	22904
874.593	23109
874.722	22816
874.851	23216
874.979	23162
875.108	23208
875.237	23178
875.365	23094
875.494	22885
875.623	23098
875.751	23159
875.88	23083
876.008	23136
876.136	23254
876.265	23570
876.393	23665
876.521	23596
876.65	23516
876.778	23512
876.906	23467
877.034	23376
877.162	23414
877.29	23410
877.418	23463
877.546	23429
877.674	23341
877.802	23326
877.93	23334
878.058	23425
878.185	23349
878.313	23318
878.441	23326
878.568	23185
878.696	23353
878.824	23334
878.951	23406
879.079	23585
879.206	23627
879.333	23623
879.461	23402
879.588	23551
879.715	23444
879.842	23653
879.97	23455
880.097	23292
880.224	23318
880.351	23254
880.478	23265
880.605	23223
880.732	23296
880.859	23448
880.986	23303
881.112	23258
881.239	23124
881.366	23014
881.493	22949
881.619	22862
881.746	22862
881.872	22885
881.999	22694
882.125	22755
882.252	22847
882.378	22843
882.505	22873
882.631	22645
882.757	22538
882.883	22573
883.01	22481
883.136	22322
883.262	22455
883.388	22462
883.514	22462
883.64	22599
883.766	22299
883.892	22280
884.018	22390
884.143	22333
884.269	22523
884.395	22238
884.52	22112
884.646	22131
884.772	22017
884.897	21983
885.023	22139
885.148	22238
885.274	22192
885.399	22116
885.524	22021
885.65	22158
885.775	22040
885.9	22147
886.025	22196
886.15	22211
886.275	22090
886.4	22013
886.525	22143
886.65	22017
886.775	21941
886.9	22181
887.025	22325
887.149	22082
887.274	21892
887.399	21876
887.523	21926
887.648	21854
887.773	21793
887.897	21979
888.021	21869
888.146	21743
888.27	21934
888.395	22006
888.519	21903
888.643	21930
888.767	21888
888.891	21800
889.015	21595
889.139	21778
889.263	21648
889.387	21739
889.511	21846
889.635	21804
889.759	21526
889.883	21709
890.006	21622
890.13	21770
890.254	21633
890.377	21603
890.501	21504
890.624	21313
890.748	21561
890.871	21355
890.995	21203
891.118	21188
891.241	21241
891.364	21237
891.488	21351
891.611	21230
891.734	21241
891.857	21264
891.98	21268
892.103	21245
892.226	21211
892.349	21188
892.471	21058
892.594	21131
892.717	21241
892.839	21066
892.962	21154
893.085	21135
893.207	21157
893.33	21020
893.452	21017
893.575	21157
893.697	21112
893.819	21222
893.941	21287
894.064	21302
894.186	21032
894.308	20990
894.43	21070
894.552	21192
894.674	21157
894.796	21017
894.918	21104
895.04	20986
895.161	21131
895.283	21116
895.405	21036
895.526	21165
895.648	21089
895.769	21043
895.891	21135
896.012	21195
896.134	21131
896.255	21081
896.376	21036
896.498	21119
896.619	21032
896.74	20998
896.861	21024
896.982	21389
897.103	21526
897.224	21272
897.345	21401
897.466	21306
897.587	21252
897.708	21416
897.828	21325
897.949	21237
898.07	21100
898.19	21146
898.311	21310
898.431	21138
898.552	21218
898.672	21374
898.792	21443
898.913	21321
899.033	21135
899.153	21135
899.273	20918
899.393	21112
899.513	21089
899.633	21058
899.753	21028
899.873	20990
899.993	20967
900.113	20952
900.232	20971
900.352	20918
900.472	20762
900.591	20792
900.711	20769
900.83	20815
900.95	20868
901.069	20998
901.189	20587
901.308	20492
901.427	20267
901.546	20351
901.665	20301
901.784	20282
901.904	20214
902.023	20168
902.141	19928
902.26	19883
902.379	20005
902.498	19780
902.617	19780
902.735	19932
902.854	19807
902.973	19719
903.091	19415
903.21	19495
903.328	19578
903.446	19438
903.565	19297
903.683	19266
903.801	19240
903.919	19293
904.038	19301
904.156	19050
904.274	19122
904.392	19004
904.51	19034
904.627	19038
904.745	19080
904.863	19118
904.981	18783
905.098	18764
905.216	18798
905.334	18741
905.451	18738
905.569	18741
905.686	18707
905.803	18700
905.921	18429
906.038	18635
906.155	18559
906.272	18361
906.389	18479
906.506	18315
906.623	18232
906.74	18201
906.857	18220
906.974	18235
907.091	18273
907.208	18422
907.324	18357
907.441	18083
907.557	18072
907.674	18011
907.79	17927
907.907	17961
908.023	18011
908.139	17878
908.256	17863
908.372	17832
908.488	17847
908.604	17752
908.72	17649
908.836	17783
908.952	17619
909.068	17642
909.184	17840
909.3	17619
909.415	17775
909.531	17611
909.647	17577
909.762	17406
909.878	17410
909.993	17391
910.108	17372
910.224	17318
910.339	17307
910.454	17246
910.57	17242
910.685	17105
910.8	17391
910.915	17303
911.03	17181
911.145	17025
911.259	16904
911.374	16854
911.489	16942
911.604	16736
911.718	16698
911.833	16713
911.947	16580
912.062	16466
912.176	16577
912.291	16668
912.405	16599
912.519	16812
912.633	16896
912.748	16653
912.862	16618
912.976	16603
913.09	16341
913.204	16489
913.318	16550
913.431	16599
913.545	16546
913.659	16626
913.772	16394
913.886	16242
914	16249
914.113	16394
914.226	16314
914.34	16352
914.453	16166
914.566	16261
914.68	16158
914.793	16135
914.906	15949
915.019	16021
915.132	15854
915.245	15808
915.358	15808
915.47	15835
915.583	15865
915.696	15956
915.809	15968
915.921	15968
916.034	15793
916.146	15781
916.259	15778
916.371	15873
916.483	15808
916.595	15720
916.708	15595
916.82	15690
916.932	15637
917.044	15614
917.156	15557
917.268	15447
917.38	15545
917.491	15534
917.603	15454
917.715	15458
917.826	15576
917.938	15462
918.049	15401
918.161	15405
918.272	15568
918.384	15530
918.495	15393
918.606	15275
918.717	15165
918.828	15260
918.939	15256
919.05	15138
919.161	15127
919.272	15032
919.383	14971
919.494	15325
919.604	15317
919.715	15188
919.826	15081
919.936	15180
920.047	15272
920.157	15173
920.267	15405
920.378	15184
920.488	15218
920.598	15386
920.708	15526
920.818	15291
920.928	15230
921.038	15466
921.148	15466
921.258	15154
921.368	15001
921.477	14967
921.587	14857
921.697	14746
921.806	14937
921.916	14804
922.025	14670
922.134	14541
922.244	14415
922.353	14545
922.462	14465
922.571	14336
922.68	14225
922.789	14199
922.898	14157
923.007	14073
923.116	14115
923.224	14142
923.333	14191
923.442	14031
923.55	13913
923.659	14058
923.767	14050
923.876	13955
923.984	13947
924.092	13906
924.201	13814
924.309	13879
924.417	13989
924.525	13868
924.633	13818
924.741	14587
924.849	13639
924.956	13807
925.064	13616
925.172	13540
925.279	13529
925.387	13647
925.494	13586
925.602	13704
925.709	13605
925.816	13430
925.924	13480
926.031	13693
926.138	13472
926.245	13521
926.352	13365
926.459	13491
926.566	13582
926.673	13358
926.779	13304
926.886	13346
926.993	13114
927.099	13164
927.206	12989
927.312	13000
927.419	13179
927.525	13095
927.631	13160
927.737	12947
927.843	13015
927.95	12859
928.056	12924
928.162	12882
928.267	12932
928.373	13586
928.479	13038
928.585	12760
928.69	12787
928.796	12871
928.901	12741
929.007	12646
929.112	12817
929.218	12726
929.323	12665
929.428	12555
929.533	12802
929.638	12559
929.743	12540
929.848	12684
929.953	12544
930.058	12456
930.163	12311
930.267	12365
930.372	12414
930.477	12216
930.581	12494
930.685	12403
930.79	12125
930.894	12133
930.998	12201
931.103	12311
931.207	11935
931.311	11790
931.415	11756
931.519	11570
931.623	11543
