Data from test_V78500241_1658.txt Node
Date: Fri Mar 25 15:53:17 CST 2022
User: usil
Spectrometer: V785-0024
Trigger mode: 0
Integration Time (sec): 4.000000E-1
Scans to average: 1
Nonlinearity correction enabled: false
Boxcar width: 0
Storing dark spectrum: false
XAxis mode: Wavelengths
Number of Pixels in Spectrum: 1024
>>>>>Begin Spectral Data<<<<<
801.071	28196
801.214	28207
801.356	27846
801.499	27914
801.641	27625
801.783	27648
801.926	27759
802.068	27606
802.211	27720
802.353	27534
802.496	27507
802.638	27370
802.78	27435
802.923	27264
803.065	27355
803.208	27344
803.35	27348
803.492	27515
803.635	27587
803.777	27526
803.919	27515
804.061	27941
804.204	27705
804.346	27583
804.488	27469
804.63	27622
804.773	27553
804.915	27549
805.057	27739
805.199	27622
805.341	27781
805.483	27846
805.626	27701
805.768	27572
805.91	27793
806.052	27793
806.194	27717
806.336	27804
806.478	27736
806.62	27850
806.762	27797
806.904	28006
807.046	28325
807.188	28150
807.33	28318
807.472	28306
807.614	28051
807.756	28105
807.898	28029
808.04	28006
808.182	27941
808.324	28131
808.465	28093
808.607	28249
808.749	28440
808.891	28516
809.033	28721
809.174	28413
809.316	28287
809.458	28363
809.6	28421
809.741	28516
809.883	28630
810.025	28812
810.166	28710
810.308	28660
810.45	28698
810.591	28436
810.733	28451
810.875	28398
811.016	28371
811.158	28333
811.299	28508
811.441	28580
811.582	28455
811.724	28413
811.865	28417
812.007	28295
812.148	28424
812.29	28413
812.431	28618
812.573	28873
812.714	28672
812.855	28854
812.997	29079
813.138	29280
813.279	29006
813.421	28782
813.562	28999
813.703	28702
813.845	28721
813.986	28314
814.127	28166
814.268	28169
814.41	28188
814.551	28090
814.692	28124
814.833	28223
814.974	28063
815.115	28162
815.256	28074
815.397	28090
815.539	28044
815.68	27922
815.821	27846
815.962	27926
816.103	27922
816.244	27838
816.385	27736
816.526	27648
816.666	27526
816.807	27374
816.948	27454
817.089	27454
817.23	27420
817.371	27466
817.512	27462
817.653	27393
817.793	27302
817.934	27427
818.075	27443
818.216	27469
818.356	27408
818.497	27264
818.638	27157
818.778	27268
818.919	27100
819.06	27275
819.2	27374
819.341	27408
819.481	27420
819.622	27572
819.762	27781
819.903	27675
820.043	27667
820.184	27488
820.324	27526
820.465	27576
820.605	27587
820.746	27530
820.886	27367
821.026	27599
821.167	27545
821.307	27618
821.447	27427
821.588	27397
821.728	27176
821.868	26990
822.008	26883
822.149	26762
822.289	26743
822.429	26541
822.569	26594
822.709	26575
822.849	26328
822.99	26328
823.13	26461
823.27	26358
823.41	26233
823.55	26008
823.69	26290
823.83	26202
823.97	26065
824.11	26035
824.25	25982
824.389	26027
824.529	26183
824.669	26084
824.809	26115
824.949	26187
825.089	26119
825.228	26031
825.368	25845
825.508	25868
825.648	26024
825.787	25921
825.927	25947
826.067	25898
826.206	25951
826.346	25970
826.485	25951
826.625	25909
826.765	26111
826.904	26016
827.044	25708
827.183	25674
827.323	25468
827.462	25563
827.601	25529
827.741	25521
827.88	25616
828.02	25419
828.159	25578
828.298	25578
828.437	25658
828.577	25525
828.716	25795
828.855	25521
828.994	25297
829.134	25282
829.273	25289
829.412	25350
829.551	25343
829.69	25308
829.829	25266
829.968	25282
830.107	25343
830.246	25308
830.385	25232
830.524	25217
830.663	25042
830.802	25034
830.941	24871
831.08	24817
831.219	24935
831.357	24989
831.496	25034
831.635	24981
831.774	24954
831.913	24764
832.051	24764
832.19	24639
832.329	24665
832.467	24646
832.606	24494
832.744	24582
832.883	24658
833.022	24570
833.16	24585
833.299	24582
833.437	24642
833.576	24734
833.714	24597
833.852	24574
833.991	24658
834.129	24703
834.267	24745
834.406	24684
834.544	24570
834.682	24566
834.821	24681
834.959	24821
835.097	24601
835.235	24677
835.373	24650
835.511	24658
835.65	24384
835.788	24574
835.926	24350
836.064	24407
836.202	24369
836.34	24490
836.478	24597
836.615	24410
836.753	24513
836.891	24547
837.029	24517
837.167	24433
837.305	24338
837.443	24308
837.58	24243
837.718	24319
837.856	24429
837.993	24174
838.131	24399
838.269	24201
838.406	24239
838.544	24125
838.681	23920
838.819	23939
838.956	23752
839.094	23752
839.231	23870
839.369	23973
839.506	24106
839.643	24110
839.781	23798
839.918	23779
840.055	23783
840.193	23840
840.33	23726
840.467	23707
840.604	23794
840.742	23961
840.879	23501
841.016	23657
841.153	23577
841.29	23855
841.427	23608
841.564	23737
841.701	23764
841.838	23634
841.975	23471
842.112	23665
842.249	23535
842.385	23547
842.522	23661
842.659	23421
842.796	23376
842.933	23459
843.069	23353
843.206	23417
843.343	23410
843.479	23455
843.616	23379
843.752	23143
843.889	23246
844.025	23455
844.162	23200
844.298	23337
844.435	23273
844.571	23102
844.708	23231
844.844	23246
844.98	23372
845.117	23223
845.253	23079
845.389	23052
845.525	23048
845.661	23094
845.798	22892
845.934	22987
846.07	22805
846.206	22927
846.342	23159
846.478	22972
846.614	22729
846.75	22630
846.886	22641
847.022	22740
847.158	22618
847.294	22736
847.429	22801
847.565	22637
847.701	22873
847.837	22371
847.972	22462
848.108	22569
848.244	22561
848.379	22314
848.515	22421
848.65	22261
848.786	22207
848.921	22265
849.057	22287
849.192	22375
849.328	22219
849.463	22291
849.598	22280
849.734	22082
849.869	22150
850.004	22029
850.14	22036
850.275	22101
850.41	21960
850.545	21911
850.68	22006
850.815	21956
850.95	22040
851.085	22207
851.22	22150
851.355	22002
851.49	22021
851.625	21991
851.76	22120
851.895	21960
852.03	21968
852.165	22029
852.299	21949
852.434	22192
852.569	22006
852.703	22063
852.838	21934
852.973	22177
853.107	22040
853.242	21873
853.376	21842
853.511	21812
853.645	21800
853.78	21998
853.914	21812
854.048	21793
854.183	21766
854.317	21873
854.451	22101
854.585	21873
854.72	21861
854.854	21956
854.988	21751
855.122	21911
855.256	21755
855.39	21789
855.524	21766
855.658	21930
855.792	21895
855.926	21865
856.06	21880
856.194	21934
856.327	21915
856.461	21869
856.595	21713
856.729	21778
856.862	21983
856.996	21838
857.13	21869
857.263	21907
857.397	21937
857.53	21907
857.664	21816
857.797	21899
857.931	22010
858.064	21838
858.197	21876
858.331	21831
858.464	21728
858.597	21793
858.731	21846
858.864	21770
858.997	21804
859.13	21861
859.263	21846
859.396	22006
859.529	21751
859.662	21846
859.795	21835
859.928	21861
860.061	21987
860.194	22021
860.327	21880
860.46	21812
860.592	21861
860.725	21956
860.858	21960
860.99	21842
861.123	21800
861.256	21671
861.388	21781
861.521	22603
861.653	21774
861.786	21637
861.918	21641
862.05	21679
862.183	21778
862.315	21766
862.447	21831
862.58	21682
862.712	21652
862.844	21530
862.976	21679
863.108	21564
863.24	21994
863.372	21401
863.504	21435
863.636	21542
863.768	21648
863.9	21561
864.032	21424
864.164	21564
864.296	21526
864.428	21622
864.559	21690
864.691	21644
864.823	21481
864.954	21526
865.086	21622
865.217	21519
865.349	21378
865.48	21447
865.612	21447
865.743	21553
865.875	21526
866.006	21454
866.137	21359
866.269	21507
866.4	21420
866.531	21298
866.662	21363
866.793	21374
866.924	21336
867.055	21393
867.186	21348
867.317	21306
867.448	21306
867.579	21408
867.71	21325
867.841	21344
867.972	21401
868.103	21397
868.233	21431
868.364	21382
868.495	21416
868.625	21557
868.756	21679
868.886	21534
869.017	21614
869.147	21751
869.278	21835
869.408	21652
869.539	21652
869.669	21823
869.799	21698
869.929	21865
870.06	21717
870.19	21964
870.32	21854
870.45	22036
870.58	22131
870.71	22131
870.84	22074
870.97	21937
871.1	21880
871.23	22097
871.36	22329
871.489	22082
871.619	22158
871.749	22242
871.879	22333
872.008	22276
872.138	22348
872.267	22188
872.397	22067
872.526	22010
872.656	21960
872.785	22032
872.915	22253
873.044	22314
873.173	22242
873.303	22337
873.432	22261
873.561	22443
873.69	22185
873.819	22291
873.948	22379
874.077	22143
874.206	22219
874.335	22306
874.464	22375
874.593	22550
874.722	22428
874.851	22550
874.979	22538
875.108	22546
875.237	22443
875.365	22451
875.494	22398
875.623	22443
875.751	22329
875.88	22462
876.008	22538
876.136	22573
876.265	22828
876.393	22987
876.521	22782
876.65	22980
876.778	22866
876.906	22786
877.034	22706
877.162	22812
877.29	22729
877.418	22835
877.546	22778
877.674	22889
877.802	22892
877.93	22721
878.058	22782
878.185	22694
878.313	22824
878.441	22725
878.568	22641
878.696	22755
878.824	22771
878.951	22961
879.079	22923
879.206	23098
879.333	22885
879.461	22828
879.588	22892
879.715	23079
879.842	23075
879.97	22873
880.097	22717
880.224	22603
880.351	22565
880.478	22557
880.605	22485
880.732	22679
880.859	22763
880.986	22584
881.112	22675
881.239	22500
881.366	22249
881.493	22287
881.619	22109
881.746	22173
881.872	22147
881.999	22185
882.125	22166
882.252	22234
882.378	22063
882.505	22246
882.631	21884
882.757	21926
882.883	21880
883.01	21922
883.136	21781
883.262	21762
883.388	21576
883.514	21854
883.64	21876
883.766	21789
883.892	21610
884.018	21736
884.143	21800
884.269	21964
884.395	21583
884.52	21557
884.646	21576
884.772	21332
884.897	21458
885.023	21500
885.148	21751
885.274	21755
885.399	21675
885.524	21439
885.65	21481
885.775	21591
885.9	21481
886.025	21587
886.15	21622
886.275	21488
886.4	21435
886.525	21473
886.65	21545
886.775	21462
886.9	21614
887.025	21709
887.149	21485
887.274	21389
887.399	21199
887.523	21294
887.648	21230
887.773	21108
887.897	21275
888.021	21344
888.146	21310
888.27	21310
888.395	21382
888.519	21317
888.643	21389
888.767	21428
888.891	21211
889.015	21127
889.139	21214
889.263	21039
889.387	21157
889.511	21237
889.635	21150
889.759	21074
889.883	21066
890.006	20979
890.13	21226
890.254	21028
890.377	20876
890.501	20796
890.624	20834
890.748	20800
890.871	20724
890.995	20575
891.118	20648
891.241	20625
891.364	20613
891.488	20720
891.611	20667
891.734	20651
891.857	20651
891.98	20594
892.103	20678
892.226	20571
892.349	20473
892.471	20389
892.594	20526
892.717	20571
892.839	20568
892.962	20651
893.085	20499
893.207	20621
893.33	20370
893.452	20408
893.575	20594
893.697	20587
893.819	20674
893.941	20777
894.064	20644
894.186	20564
894.308	20328
894.43	20526
894.552	20640
894.674	20663
894.796	20419
894.918	20484
895.04	20431
895.161	20682
895.283	20522
895.405	20511
895.526	20587
895.648	20473
895.769	20503
895.891	20594
896.012	20663
896.134	20613
896.255	20670
896.376	20492
896.498	20541
896.619	20617
896.74	20507
896.861	20522
896.982	20830
897.103	21001
897.224	20788
897.345	20727
897.466	20682
897.587	20651
897.708	20830
897.828	20834
897.949	20663
898.07	20583
898.19	20697
898.311	20769
898.431	20640
898.552	20739
898.672	20708
898.792	20720
898.913	20830
899.033	20568
899.153	20594
899.273	20514
899.393	20419
899.513	20533
899.633	20480
899.753	20457
899.873	20362
899.993	20549
900.113	20530
900.232	20465
900.352	20469
900.472	20351
900.591	20195
900.711	20286
900.83	20267
900.95	20332
901.069	20370
901.189	20111
901.308	19871
901.427	19875
901.546	19871
901.665	19902
901.784	19894
901.904	19666
902.023	19670
902.141	19468
902.26	19362
902.379	19415
902.498	19327
902.617	19247
902.735	19388
902.854	19331
902.973	19187
903.091	19000
903.21	18882
903.328	18981
903.446	18856
903.565	18878
903.683	18890
903.801	18738
903.919	18798
904.038	18764
904.156	18585
904.274	18623
904.392	18517
904.51	18547
904.627	18471
904.745	18563
904.863	18631
904.981	18327
905.098	18171
905.216	18327
905.334	18258
905.451	18197
905.569	18194
905.686	18429
905.803	18190
905.921	18091
906.038	18102
906.155	18057
906.272	17973
906.389	17935
906.506	17798
906.623	17760
906.74	17684
906.857	17509
906.974	17699
907.091	17729
907.208	17851
907.324	17786
907.441	17615
907.557	17467
907.674	17486
907.79	17448
907.907	17429
908.023	17497
908.139	17570
908.256	17307
908.372	17356
908.488	17376
908.604	17212
908.72	17216
908.836	17174
908.952	17193
909.068	17223
909.184	17261
909.3	17250
909.415	17181
909.531	17193
909.647	16812
909.762	16938
909.878	16908
909.993	16816
910.108	16900
910.224	16847
910.339	16980
910.454	16683
910.57	16736
910.685	16607
910.8	16831
910.915	16839
911.03	16592
911.145	16531
911.259	16519
911.374	16535
911.489	16462
911.604	16356
911.718	16173
911.833	16318
911.947	16147
912.062	15964
912.176	16230
912.291	16284
912.405	16219
912.519	16478
912.633	16371
912.748	16303
912.862	16295
912.976	16211
913.09	15903
913.204	16013
913.318	16131
913.431	16109
913.545	16143
913.659	16147
913.772	16059
913.886	15907
914	15781
914.113	15850
914.226	15903
914.34	15895
914.453	15660
914.566	15930
914.68	15736
914.793	15603
914.906	15481
915.019	15473
915.132	15367
915.245	15428
915.358	15359
915.47	15481
915.583	15412
915.696	15389
915.809	15530
915.921	15572
916.034	15317
916.146	15370
916.259	15268
916.371	15405
916.483	15416
916.595	15256
916.708	15192
916.82	15294
916.932	15310
917.044	15241
917.156	15146
917.268	15100
917.38	15097
917.491	15142
917.603	15024
917.715	15062
917.826	15180
917.938	15024
918.049	14910
918.161	14982
918.272	15093
918.384	15135
918.495	15024
918.606	14762
918.717	14735
918.828	14864
918.939	14929
919.05	14629
919.161	14842
919.272	14564
919.383	14640
919.494	14838
919.604	15017
919.715	14921
919.826	14686
919.936	14823
920.047	14807
920.157	14777
920.267	14941
920.378	14853
920.488	14689
920.598	14914
920.708	15108
920.818	14918
920.928	14937
921.038	15176
921.148	15009
921.258	14701
921.368	14625
921.477	14412
921.587	14526
921.697	14427
921.806	14552
921.916	14385
922.025	14176
922.134	14256
922.244	14157
922.353	14248
922.462	13997
922.571	13955
922.68	13845
922.789	13788
922.898	13776
923.007	13689
923.116	13833
923.224	13723
923.333	13795
923.442	13662
923.55	13575
923.659	13643
923.767	13715
923.876	13537
923.984	13727
924.092	13521
924.201	13559
924.309	13575
924.417	13502
924.525	13445
924.633	13415
924.741	14218
924.849	13255
924.956	13430
925.064	13244
925.172	13129
925.279	13247
925.387	13293
925.494	13278
925.602	13316
925.709	13190
925.816	13168
925.924	13099
926.031	13263
926.138	13095
926.245	13194
926.352	13084
926.459	13156
926.566	13255
926.673	13107
926.779	12951
926.886	12973
926.993	12776
927.099	12662
927.206	12757
927.312	12703
927.419	12791
927.525	12817
927.631	12734
927.737	12726
927.843	12597
927.95	12506
928.056	12563
928.162	12684
928.267	12551
928.373	13187
928.479	12559
928.585	12422
928.69	12597
928.796	12540
928.901	12456
929.007	12308
929.112	12403
929.218	12429
929.323	12365
929.428	12311
929.533	12357
929.638	12232
929.743	12209
929.848	12266
929.953	12285
930.058	12144
930.163	11954
930.267	11904
930.372	12102
930.477	11977
930.581	12186
930.685	12022
930.79	11863
930.894	11855
930.998	11790
931.103	11973
931.207	11726
931.311	11604
931.415	11436
931.519	11227
931.623	11197
