Data from test_V78500241_1873.txt Node
Date: Fri Mar 25 15:54:46 CST 2022
User: usil
Spectrometer: V785-0024
Trigger mode: 0
Integration Time (sec): 4.000000E-1
Scans to average: 1
Nonlinearity correction enabled: false
Boxcar width: 0
Storing dark spectrum: false
XAxis mode: Wavelengths
Number of Pixels in Spectrum: 1024
>>>>>Begin Spectral Data<<<<<
801.071	28771
801.214	28508
801.356	28413
801.499	28478
801.641	28204
801.783	28249
801.926	28310
802.068	28223
802.211	28257
802.353	28147
802.496	28086
802.638	27983
802.78	27979
802.923	27960
803.065	27816
803.208	27918
803.35	28021
803.492	28093
803.635	28173
803.777	28006
803.919	28177
804.061	28401
804.204	28196
804.346	28272
804.488	28017
804.63	28139
804.773	28021
804.915	28371
805.057	28284
805.199	28459
805.341	28322
805.483	28268
805.626	28303
805.768	28291
805.91	28421
806.052	28462
806.194	28272
806.336	28664
806.478	28432
806.62	28500
806.762	28493
806.904	28599
807.046	28930
807.188	28862
807.33	28733
807.472	28942
807.614	28790
807.756	28831
807.898	28694
808.04	28542
808.182	28596
808.324	28733
808.465	28755
808.607	28984
808.749	29052
808.891	29250
809.033	29193
809.174	29151
809.316	29018
809.458	28949
809.6	29102
809.741	29246
809.883	29178
810.025	29311
810.166	29326
810.308	29353
810.45	29280
810.591	29162
810.733	29170
810.875	29208
811.016	28946
811.158	29056
811.299	29018
811.441	29326
811.582	29239
811.724	29025
811.865	29048
812.007	29128
812.148	28972
812.29	29086
812.431	29258
812.573	29368
812.714	29436
812.855	29577
812.997	29710
813.138	29794
813.279	29684
813.421	29608
813.562	29596
813.703	29493
813.845	29292
813.986	29102
814.127	28885
814.268	28850
814.41	28866
814.551	28858
814.692	28847
814.833	28744
814.974	28668
815.115	28828
815.256	28675
815.397	28516
815.539	28706
815.68	28535
815.821	28485
815.962	28538
816.103	28561
816.244	28466
816.385	28265
816.526	28379
816.666	28150
816.807	27975
816.948	28139
817.089	28143
817.23	28139
817.371	27975
817.512	28097
817.653	28070
817.793	28010
817.934	28093
818.075	28223
818.216	28021
818.356	28029
818.497	27979
818.638	27797
818.778	27876
818.919	27800
819.06	27953
819.2	28025
819.341	28154
819.481	28074
819.622	28207
819.762	28417
819.903	28310
820.043	28246
820.184	28253
820.324	28196
820.465	28424
820.605	28105
820.746	28215
820.886	28078
821.026	28173
821.167	28162
821.307	28261
821.447	28101
821.588	28040
821.728	27755
821.868	27819
822.008	27637
822.149	27633
822.289	27431
822.429	27317
822.569	27291
822.709	27214
822.849	27077
822.99	27062
823.13	27081
823.27	27013
823.41	26899
823.55	26804
823.69	27005
823.83	26861
823.97	26838
824.11	26651
824.25	26648
824.389	26819
824.529	26819
824.669	26617
824.809	26853
824.949	26731
825.089	26804
825.228	26788
825.368	26453
825.508	26537
825.648	26636
825.787	26640
825.927	26739
826.067	26575
826.206	26518
826.346	26571
826.485	26712
826.625	26716
826.765	26785
826.904	26724
827.044	26362
827.183	26499
827.323	26233
827.462	26294
827.601	26259
827.741	26377
827.88	26267
828.02	26142
828.159	26240
828.298	26381
828.437	26336
828.577	26244
828.716	26453
828.855	26301
828.994	26062
829.134	26024
829.273	26039
829.412	26020
829.551	25974
829.69	26065
829.829	26012
829.968	26103
830.107	26126
830.246	25852
830.385	25970
830.524	25921
830.663	25772
830.802	25715
830.941	25552
831.08	25582
831.219	25597
831.357	25780
831.496	25784
831.635	25666
831.774	25502
831.913	25407
832.051	25479
832.19	25304
832.329	25285
832.467	25278
832.606	25221
832.744	25137
832.883	25152
833.022	25148
833.16	25160
833.299	25316
833.437	25221
833.576	25373
833.714	25278
833.852	25388
833.991	25479
834.129	25365
834.267	25339
834.406	25293
834.544	25362
834.682	25495
834.821	25343
834.959	25438
835.097	25289
835.235	25403
835.373	25411
835.511	25377
835.65	25187
835.788	25194
835.926	25114
836.064	24977
836.202	24943
836.34	25145
836.478	25312
836.615	25072
836.753	25095
836.891	25343
837.029	25175
837.167	25190
837.305	25129
837.443	25053
837.58	24928
837.718	25072
837.856	25080
837.993	24996
838.131	25023
838.269	24890
838.406	24962
838.544	24783
838.681	24612
838.819	24654
838.956	24369
839.094	24467
839.231	24490
839.369	24578
839.506	24787
839.643	24612
839.781	24361
839.918	24399
840.055	24471
840.193	24467
840.33	24319
840.467	24319
840.604	24262
840.742	24677
840.879	24315
841.016	24273
841.153	24308
841.29	24353
841.427	24262
841.564	24391
841.701	24338
841.838	24152
841.975	24311
842.112	24300
842.249	24148
842.385	24174
842.522	24391
842.659	24140
842.796	24174
842.933	24110
843.069	24030
843.206	24049
843.343	24182
843.479	24106
843.616	24083
843.752	23813
843.889	23847
844.025	23954
844.162	23832
844.298	23980
844.435	23828
844.571	23771
844.708	24030
844.844	23980
844.98	24030
845.117	23977
845.253	23767
845.389	23672
845.525	23707
845.661	23619
845.798	23684
845.934	23771
846.07	23589
846.206	23589
846.342	23687
846.478	23649
846.614	23482
846.75	23273
846.886	23330
847.022	23337
847.158	23356
847.294	23345
847.429	23414
847.565	23269
847.701	23551
847.837	23216
847.972	22999
848.108	23185
848.244	23071
848.379	22930
848.515	23010
848.65	22938
848.786	22866
848.921	23056
849.057	22942
849.192	22995
849.328	22949
849.463	22843
849.598	22930
849.734	22797
849.869	22805
850.004	22664
850.14	22634
850.275	22733
850.41	22504
850.545	22603
850.68	22653
850.815	22694
850.95	22691
851.085	22774
851.22	22736
851.355	22675
851.49	22531
851.625	22698
851.76	22592
851.895	22611
852.03	22504
852.165	22592
852.299	22782
852.434	22793
852.569	22630
852.703	22668
852.838	22801
852.973	22691
853.107	22831
853.242	22630
853.376	22531
853.511	22306
853.645	22413
853.78	22622
853.914	22580
854.048	22508
854.183	22440
854.317	22618
854.451	22603
854.585	22371
854.72	22466
854.854	22519
854.988	22462
855.122	22375
855.256	22352
855.39	22481
855.524	22542
855.658	22527
855.792	22455
855.926	22561
856.06	22565
856.194	22557
856.327	22478
856.461	22413
856.595	22485
856.729	22363
856.862	22599
856.996	22386
857.13	22668
857.263	22596
857.397	22554
857.53	22523
857.664	22504
857.797	22622
857.931	22649
858.064	22569
858.197	22584
858.331	22489
858.464	22436
858.597	22341
858.731	22447
858.864	22481
858.997	22284
859.13	22481
859.263	22432
859.396	22542
859.529	22432
859.662	22535
859.795	22523
859.928	22421
860.061	22653
860.194	22653
860.327	22668
860.46	22554
860.592	22592
860.725	22675
860.858	22721
860.99	22538
861.123	22417
861.256	22443
861.388	22447
861.521	23356
861.653	22402
861.786	22303
861.918	22382
862.05	22436
862.183	22497
862.315	22402
862.447	22512
862.58	22356
862.712	22131
862.844	22234
862.976	22360
863.108	22223
863.24	22618
863.372	22139
863.504	22226
863.636	22226
863.768	22207
863.9	22215
864.032	22105
864.164	22215
864.296	22204
864.428	22226
864.559	22257
864.691	22150
864.823	22177
864.954	22166
865.086	22150
865.217	22124
865.349	22002
865.48	22124
865.612	22036
865.743	22242
865.875	21991
866.006	22040
866.137	22029
866.269	22128
866.4	22074
866.531	21964
866.662	21998
866.793	21964
866.924	21907
867.055	21918
867.186	21964
867.317	22078
867.448	21873
867.579	21960
867.71	21975
867.841	21972
867.972	21991
868.103	22013
868.233	21964
868.364	21895
868.495	22223
868.625	22265
868.756	22363
868.886	22234
869.017	22192
869.147	22291
869.278	22459
869.408	22348
869.539	22124
869.669	22348
869.799	22249
869.929	22390
870.06	22367
870.19	22417
870.32	22485
870.45	22713
870.58	22679
870.71	22702
870.84	22850
870.97	22721
871.1	22512
871.23	22816
871.36	22793
871.489	22717
871.619	22744
871.749	22858
871.879	22900
872.008	22991
872.138	22801
872.267	22866
872.397	22706
872.526	22717
872.656	22702
872.785	22577
872.915	22778
873.044	23048
873.173	22862
873.303	22957
873.432	23003
873.561	22957
873.69	22854
873.819	22805
873.948	22919
874.077	22919
874.206	22831
874.335	22809
874.464	22911
874.593	23121
874.722	22991
874.851	23166
874.979	23143
875.108	23121
875.237	22976
875.365	23006
875.494	23067
875.623	23258
875.751	23041
875.88	22991
876.008	23132
876.136	23212
876.265	23372
876.393	23570
876.521	23558
876.65	23642
876.778	23493
876.906	23501
877.034	23417
877.162	23360
877.29	23360
877.418	23398
877.546	23592
877.674	23429
877.802	23334
877.93	23490
878.058	23402
878.185	23349
878.313	23337
878.441	23299
878.568	23315
878.696	23288
878.824	23448
878.951	23478
879.079	23558
879.206	23745
879.333	23627
879.461	23478
879.588	23570
879.715	23604
879.842	23676
879.97	23471
880.097	23254
880.224	23170
880.351	23353
880.478	23178
880.605	23170
880.732	23280
880.859	23490
880.986	23216
881.112	23227
881.239	23010
881.366	22873
881.493	22862
881.619	22801
881.746	22839
881.872	22748
881.999	22759
882.125	22656
882.252	22824
882.378	22729
882.505	22911
882.631	22710
882.757	22500
882.883	22691
883.01	22413
883.136	22459
883.262	22462
883.388	22344
883.514	22474
883.64	22470
883.766	22542
883.892	22352
884.018	22169
884.143	22348
884.269	22424
884.395	22135
884.52	22086
884.646	22097
884.772	22051
884.897	22074
885.023	22074
885.148	22325
885.274	22185
885.399	22204
885.524	22029
885.65	22139
885.775	22059
885.9	22036
886.025	22215
886.15	22196
886.275	22116
886.4	21998
886.525	22211
886.65	22051
886.775	21998
886.9	22116
887.025	22337
887.149	22093
887.274	21956
887.399	21937
887.523	21850
887.648	21816
887.773	21781
887.897	21964
888.021	21709
888.146	21762
888.27	21941
888.395	21865
888.519	21823
888.643	21751
888.767	21873
888.891	21953
889.015	21644
889.139	21720
889.263	21599
889.387	21637
889.511	21827
889.635	21751
889.759	21625
889.883	21545
890.006	21736
890.13	21671
890.254	21553
890.377	21583
890.501	21382
890.624	21397
890.748	21393
890.871	21218
890.995	21180
891.118	21154
891.241	21207
891.364	21252
891.488	21237
891.611	21226
891.734	21119
891.857	21218
891.98	21245
892.103	21131
892.226	21032
892.349	21146
892.471	20990
892.594	21020
892.717	21112
892.839	21051
892.962	21074
893.085	21268
893.207	21028
893.33	20986
893.452	20967
893.575	21104
893.697	21077
893.819	21256
893.941	21367
894.064	21131
894.186	21036
894.308	20963
894.43	21081
894.552	21367
894.674	21074
894.796	21036
894.918	21150
895.04	21173
895.161	21161
895.283	21173
895.405	20990
895.526	21062
895.648	21032
895.769	21096
895.891	21161
896.012	21123
896.134	21074
896.255	21039
896.376	21093
896.498	21070
896.619	21116
896.74	20960
896.861	21180
896.982	21291
897.103	21504
897.224	21264
897.345	21291
897.466	21272
897.587	21180
897.708	21454
897.828	21188
897.949	21218
898.07	21127
898.19	21173
898.311	21291
898.431	21222
898.552	21116
898.672	21367
898.792	21374
898.913	21249
899.033	21112
899.153	21043
899.273	21074
899.393	20956
899.513	21028
899.633	20948
899.753	21039
899.873	20830
899.993	21036
900.113	20937
900.232	20914
900.352	20902
900.472	20792
900.591	20727
900.711	20724
900.83	20686
900.95	20880
901.069	20925
901.189	20549
901.308	20370
901.427	20339
901.546	20355
901.665	20301
901.784	20278
901.904	20126
902.023	20134
902.141	19898
902.26	19814
902.379	19978
902.498	19883
902.617	19795
902.735	19932
902.854	19700
902.973	19643
903.091	19476
903.21	19491
903.328	19499
903.446	19419
903.565	19324
903.683	19362
903.801	19228
903.919	19126
904.038	19251
904.156	19122
904.274	19084
904.392	18962
904.51	18909
904.627	18909
904.745	19065
904.863	19110
904.981	18856
905.098	18639
905.216	18779
905.334	18787
905.451	18726
905.569	18601
905.686	18715
905.803	18726
905.921	18585
906.038	18658
906.155	18525
906.272	18380
906.389	18460
906.506	18254
906.623	18285
906.74	18239
906.857	18163
906.974	18152
907.091	18296
907.208	18304
907.324	18171
907.441	18140
907.557	17969
907.674	18030
907.79	17878
907.907	17942
908.023	17882
908.139	17984
908.256	17832
908.372	17817
908.488	17828
908.604	17726
908.72	17608
908.836	17657
908.952	17551
909.068	17661
909.184	17752
909.3	17657
909.415	17661
909.531	17729
909.647	17376
909.762	17391
909.878	17326
909.993	17383
910.108	17227
910.224	17284
910.339	17296
910.454	17254
910.57	17124
910.685	17071
910.8	17345
910.915	17368
911.03	17200
911.145	17079
911.259	16919
911.374	16930
911.489	16881
911.604	16847
911.718	16630
911.833	16626
911.947	16656
912.062	16489
912.176	16592
912.291	16645
912.405	16603
912.519	16881
912.633	16873
912.748	16660
912.862	16573
912.976	16405
913.09	16341
913.204	16542
913.318	16451
913.431	16626
913.545	16497
913.659	16577
913.772	16462
913.886	16261
914	16219
914.113	16379
914.226	16386
914.34	16310
914.453	16162
914.566	16379
914.68	16219
914.793	16040
914.906	15972
915.019	15873
915.132	15755
915.245	15903
915.358	15949
915.47	15812
915.583	15800
915.696	15842
915.809	15960
915.921	15895
916.034	15808
916.146	15671
916.259	15759
916.371	15831
916.483	15759
916.595	15690
916.708	15686
916.82	15629
916.932	15675
917.044	15644
917.156	15667
917.268	15454
917.38	15488
917.491	15382
917.603	15439
917.715	15549
917.826	15618
917.938	15473
918.049	15359
918.161	15435
918.272	15492
918.384	15553
918.495	15416
918.606	15245
918.717	15169
918.828	15287
918.939	15241
919.05	15112
919.161	15268
919.272	14925
919.383	15100
919.494	15302
919.604	15408
919.715	15226
919.826	15127
919.936	15207
920.047	15306
920.157	15268
920.267	15214
920.378	15230
920.488	15135
920.598	15214
920.708	15416
920.818	15302
920.928	15313
921.038	15450
921.148	15408
921.258	15180
921.368	15001
921.477	14952
921.587	14887
921.697	14689
921.806	14944
921.916	14838
922.025	14716
922.134	14469
922.244	14492
922.353	14454
922.462	14434
922.571	14377
922.68	14130
922.789	14149
922.898	14309
923.007	14187
923.116	14214
923.224	14115
923.333	14168
923.442	14115
923.55	13970
923.659	13989
923.767	14062
923.876	13970
923.984	14001
924.092	13917
924.201	13970
924.309	14008
924.417	13811
924.525	13875
924.633	13845
924.741	14556
924.849	13590
924.956	13780
925.064	13578
925.172	13441
925.279	13468
925.387	13514
925.494	13616
925.602	13575
925.709	13670
925.816	13430
925.924	13472
926.031	13567
926.138	13460
926.245	13457
926.352	13388
926.459	13544
926.566	13537
926.673	13464
926.779	13232
926.886	13346
926.993	13164
927.099	13122
927.206	13076
927.312	12996
927.419	13080
927.525	13057
927.631	13103
927.737	12958
927.843	13038
927.95	12760
928.056	12886
928.162	12981
928.267	12993
928.373	13521
928.479	12981
928.585	12734
928.69	12913
928.796	12897
928.901	12753
929.007	12593
929.112	12814
929.218	12719
929.323	12555
929.428	12665
929.533	12726
929.638	12616
929.743	12593
929.848	12677
929.953	12570
930.058	12422
930.163	12300
930.267	12308
930.372	12422
930.477	12228
930.581	12448
930.685	12342
930.79	12045
930.894	12190
930.998	12106
931.103	12209
931.207	11893
931.311	11893
931.415	11821
931.519	11516
931.623	11440
