Data from test_V78500241_764.txt Node
Date: Fri Mar 25 15:47:05 CST 2022
User: usil
Spectrometer: V785-0024
Trigger mode: 0
Integration Time (sec): 4.000000E-1
Scans to average: 1
Nonlinearity correction enabled: false
Boxcar width: 0
Storing dark spectrum: false
XAxis mode: Wavelengths
Number of Pixels in Spectrum: 1024
>>>>>Begin Spectral Data<<<<<
801.071	28013
801.214	27937
801.356	27614
801.499	27564
801.641	27496
801.783	27542
801.926	27538
802.068	27466
802.211	27370
802.353	27355
802.496	27264
802.638	27173
802.78	27081
802.923	27192
803.065	27070
803.208	27268
803.35	27218
803.492	27287
803.635	27329
803.777	27188
803.919	27454
804.061	27766
804.204	27416
804.346	27272
804.488	27180
804.63	27325
804.773	27378
804.915	27424
805.057	27545
805.199	27367
805.341	27344
805.483	27511
805.626	27504
805.768	27466
805.91	27618
806.052	27515
806.194	27488
806.336	27698
806.478	27561
806.62	27420
806.762	27549
806.904	27781
807.046	28029
807.188	27907
807.33	27937
807.472	28010
807.614	27880
807.756	27983
807.898	27804
808.04	27747
808.182	27812
808.324	27797
808.465	27812
808.607	27869
808.749	28219
808.891	28219
809.033	28280
809.174	28348
809.316	28257
809.458	28234
809.6	28211
809.741	28341
809.883	28485
810.025	28626
810.166	28497
810.308	28565
810.45	28268
810.591	28363
810.733	28112
810.875	28249
811.016	28181
811.158	28032
811.299	28268
811.441	28394
811.582	28489
811.724	28291
811.865	28196
812.007	28249
812.148	28166
812.29	28242
812.431	28314
812.573	28577
812.714	28691
812.855	28805
812.997	28706
813.138	28850
813.279	28862
813.421	28839
813.562	28702
813.703	28489
813.845	28390
813.986	28135
814.127	27956
814.268	27922
814.41	27964
814.551	27964
814.692	27892
814.833	27781
814.974	27831
815.115	27911
815.256	27599
815.397	27648
815.539	27641
815.68	27637
815.821	27526
815.962	27595
816.103	27656
816.244	27511
816.385	27454
816.526	27458
816.666	27435
816.807	27180
816.948	27386
817.089	27344
817.23	27272
817.371	27260
817.512	27264
817.653	27233
817.793	27146
817.934	27222
818.075	27374
818.216	27249
818.356	27203
818.497	27089
818.638	26788
818.778	26986
818.919	26956
819.06	26971
819.2	27085
819.341	27154
819.481	27230
819.622	27317
819.762	27488
819.903	27462
820.043	27344
820.184	27294
820.324	27192
820.465	27351
820.605	27218
820.746	27367
820.886	27233
821.026	27367
821.167	27154
821.307	27237
821.447	27313
821.588	27256
821.728	26948
821.868	26819
822.008	26716
822.149	26659
822.289	26720
822.429	26328
822.569	26408
822.709	26301
822.849	26229
822.99	26240
823.13	26092
823.27	26176
823.41	25860
823.55	25849
823.69	25982
823.83	25947
823.97	25780
824.11	25883
824.25	25753
824.389	25772
824.529	25906
824.669	25811
824.809	25966
824.949	25970
825.089	25974
825.228	25879
825.368	25674
825.508	25727
825.648	25613
825.787	25639
825.927	25723
826.067	25677
826.206	25594
826.346	25731
826.485	25723
826.625	25552
826.765	25849
826.904	25719
827.044	25472
827.183	25472
827.323	25339
827.462	25483
827.601	25327
827.741	25320
827.88	25358
828.02	25259
828.159	25403
828.298	25327
828.437	25613
828.577	25225
828.716	25468
828.855	25236
828.994	25088
829.134	25122
829.273	25190
829.412	25198
829.551	25194
829.69	25057
829.829	25080
829.968	25080
830.107	25179
830.246	25126
830.385	24905
830.524	24973
830.663	24901
830.802	24856
830.941	24798
831.08	24673
831.219	24795
831.357	24696
831.496	24852
831.635	24776
831.774	24642
831.913	24490
832.051	24559
832.19	24448
832.329	24464
832.467	24308
832.606	24224
832.744	24391
832.883	24407
833.022	24467
833.16	24357
833.299	24334
833.437	24391
833.576	24407
833.714	24509
833.852	24490
833.991	24483
834.129	24369
834.267	24502
834.406	24452
834.544	24445
834.682	24540
834.821	24414
834.959	24532
835.097	24380
835.235	24486
835.373	24365
835.511	24353
835.65	24315
835.788	24273
835.926	24110
836.064	24018
836.202	24110
836.34	24296
836.478	24471
836.615	24372
836.753	24292
836.891	24251
837.029	24376
837.167	24209
837.305	24213
837.443	24102
837.58	24228
837.718	24060
837.856	24102
837.993	24148
838.131	24091
838.269	23843
838.406	24087
838.544	23912
838.681	23726
838.819	23699
838.956	23703
839.094	23661
839.231	23608
839.369	23729
839.506	23901
839.643	23901
839.781	23687
839.918	23493
840.055	23566
840.193	23585
840.33	23547
840.467	23535
840.604	23531
840.742	23832
840.879	23436
841.016	23490
841.153	23379
841.29	23528
841.427	23395
841.564	23566
841.701	23452
841.838	23478
841.975	23395
842.112	23398
842.249	23296
842.385	23280
842.522	23406
842.659	23258
842.796	23044
842.933	23273
843.069	23185
843.206	23235
843.343	23231
843.479	23372
843.616	23220
843.752	23071
843.889	22900
844.025	23136
844.162	22976
844.298	23109
844.435	22915
844.571	22953
844.708	22957
844.844	23181
844.98	23204
845.117	23098
845.253	22934
845.389	22847
845.525	22892
845.661	22812
845.798	22679
845.934	22797
846.07	22721
846.206	22733
846.342	22831
846.478	22649
846.614	22531
846.75	22287
846.886	22455
847.022	22580
847.158	22356
847.294	22344
847.429	22542
847.565	22310
847.701	22653
847.837	22223
847.972	22101
848.108	22386
848.244	22325
848.379	22162
848.515	22101
848.65	22185
848.786	22169
848.921	22128
849.057	22086
849.192	22070
849.328	22051
849.463	22150
849.598	22032
849.734	22002
849.869	21903
850.004	21800
850.14	21800
850.275	21899
850.41	21728
850.545	21732
850.68	21785
850.815	21778
850.95	21823
851.085	22029
851.22	22074
851.355	21838
851.49	21679
851.625	21759
851.76	21759
851.895	21629
852.03	21759
852.165	21720
852.299	21831
852.434	21816
852.569	21808
852.703	21774
852.838	21846
852.973	21922
853.107	21972
853.242	21842
853.376	21682
853.511	21572
853.645	21603
853.78	21759
853.914	21557
854.048	21629
854.183	21591
854.317	21709
854.451	21846
854.585	21622
854.72	21622
854.854	21720
854.988	21557
855.122	21610
855.256	21564
855.39	21572
855.524	21793
855.658	21618
855.792	21576
855.926	21728
856.06	21743
856.194	21656
856.327	21545
856.461	21504
856.595	21618
856.729	21660
856.862	21797
856.996	21660
857.13	21778
857.263	21629
857.397	21698
857.53	21572
857.664	21637
857.797	21766
857.931	21717
858.064	21663
858.197	21660
858.331	21644
858.464	21587
858.597	21553
858.731	21564
858.864	21591
858.997	21618
859.13	21667
859.263	21599
859.396	21751
859.529	21583
859.662	21606
859.795	21580
859.928	21686
860.061	21709
860.194	21846
860.327	21728
860.46	21717
860.592	21717
860.725	21781
860.858	21907
860.99	21622
861.123	21504
861.256	21542
861.388	21648
861.521	22284
861.653	21382
861.786	21351
861.918	21439
862.05	21564
862.183	21637
862.315	21564
862.447	21625
862.58	21553
862.712	21450
862.844	21340
862.976	21389
863.108	21340
863.24	21937
863.372	21291
863.504	21169
863.636	21241
863.768	21393
863.9	21378
864.032	21298
864.164	21336
864.296	21450
864.428	21420
864.559	21321
864.691	21336
864.823	21298
864.954	21397
865.086	21344
865.217	21268
865.349	21058
865.48	21355
865.612	21264
865.743	21302
865.875	21287
866.006	21184
866.137	21332
866.269	21184
866.4	21100
866.531	21131
866.662	21150
866.793	21272
866.924	21119
867.055	21138
867.186	21203
867.317	21142
867.448	21081
867.579	21131
867.71	21161
867.841	21036
867.972	21214
868.103	21005
868.233	21211
868.364	21192
868.495	21268
868.625	21226
868.756	21580
868.886	21310
869.017	21321
869.147	21564
869.278	21561
869.408	21435
869.539	21279
869.669	21500
869.799	21481
869.929	21549
870.06	21538
870.19	21720
870.32	21629
870.45	21618
870.58	21800
870.71	21926
870.84	21797
870.97	21717
871.1	21819
871.23	21941
871.36	21987
871.489	21934
871.619	21968
871.749	22059
871.879	22013
872.008	22139
872.138	22059
872.267	22051
872.397	21975
872.526	21819
872.656	21827
872.785	21873
872.915	21987
873.044	22093
873.173	22154
873.303	22078
873.432	22192
873.561	22150
873.69	21994
873.819	22010
873.948	22040
874.077	22021
874.206	21953
874.335	21983
874.464	22093
874.593	22242
874.722	22166
874.851	22223
874.979	22246
875.108	22367
875.237	22230
875.365	21983
875.494	22211
875.623	22242
875.751	22242
875.88	22261
876.008	22333
876.136	22485
876.265	22668
876.393	22706
876.521	22622
876.65	22744
876.778	22500
876.906	22535
877.034	22596
877.162	22489
877.29	22546
877.418	22577
877.546	22713
877.674	22603
877.802	22637
877.93	22634
878.058	22675
878.185	22462
878.313	22462
878.441	22584
878.568	22470
878.696	22474
878.824	22660
878.951	22584
879.079	22816
879.206	22968
879.333	22786
879.461	22516
879.588	22694
879.715	22930
879.842	22843
879.97	22649
880.097	22352
880.224	22417
880.351	22421
880.478	22489
880.605	22348
880.732	22462
880.859	22611
880.986	22295
881.112	22382
881.239	22230
881.366	22086
881.493	22101
881.619	22051
881.746	22017
881.872	21903
881.999	21899
882.125	21953
882.252	22067
882.378	21991
882.505	22090
882.631	21854
882.757	21720
882.883	21781
883.01	21785
883.136	21694
883.262	21576
883.388	21466
883.514	21705
883.64	21679
883.766	21515
883.892	21500
884.018	21511
884.143	21614
884.269	21656
884.395	21332
884.52	21260
884.646	21283
884.772	21249
884.897	21207
885.023	21252
885.148	21439
885.274	21397
885.399	21329
885.524	21340
885.65	21363
885.775	21317
885.9	21359
886.025	21367
886.15	21431
886.275	21272
886.4	21332
886.525	21287
886.65	21188
886.775	21165
886.9	21374
887.025	21416
887.149	21222
887.274	21127
887.399	21116
887.523	21142
887.648	21104
887.773	21009
887.897	21104
888.021	21173
888.146	21093
888.27	21165
888.395	21127
888.519	21039
888.643	21051
888.767	21104
888.891	21066
889.015	20899
889.139	20982
889.263	20872
889.387	20979
889.511	21119
889.635	21100
889.759	20750
889.883	20823
890.006	20842
890.13	20762
890.254	20792
890.377	20693
890.501	20659
890.624	20503
890.748	20689
890.871	20480
890.995	20499
891.118	20267
891.241	20571
891.364	20434
891.488	20514
891.611	20366
891.734	20419
891.857	20419
891.98	20400
892.103	20438
892.226	20438
892.349	20400
892.471	20343
892.594	20389
892.717	20377
892.839	20256
892.962	20328
893.085	20400
893.207	20393
893.33	20176
893.452	20427
893.575	20366
893.697	20298
893.819	20552
893.941	20541
894.064	20465
894.186	20210
894.308	20240
894.43	20404
894.552	20446
894.674	20332
894.796	20191
894.918	20317
895.04	20202
895.161	20282
895.283	20396
895.405	20256
895.526	20275
895.648	20351
895.769	20324
895.891	20457
896.012	20423
896.134	20396
896.255	20221
896.376	20206
896.498	20347
896.619	20336
896.74	20282
896.861	20358
896.982	20636
897.103	20800
897.224	20583
897.345	20549
897.466	20522
897.587	20629
897.708	20670
897.828	20526
897.949	20465
898.07	20286
898.19	20549
898.311	20674
898.431	20503
898.552	20533
898.672	20552
898.792	20556
898.913	20602
899.033	20412
899.153	20355
899.273	20225
899.393	20248
899.513	20358
899.633	20351
899.753	20400
899.873	20347
899.993	20313
900.113	20202
900.232	20294
900.352	20275
900.472	20130
900.591	20054
900.711	20161
900.83	20050
900.95	20115
901.069	20202
901.189	20024
901.308	19693
901.427	19647
901.546	19750
901.665	19769
901.784	19666
901.904	19582
902.023	19453
902.141	19266
902.26	19263
902.379	19263
902.498	19209
902.617	19076
902.735	19270
902.854	19145
902.973	19099
903.091	18791
903.21	18875
903.328	18859
903.446	18829
903.565	18601
903.683	18711
903.801	18578
903.919	18547
904.038	18642
904.156	18486
904.274	18403
904.392	18418
904.51	18384
904.627	18403
904.745	18429
904.863	18330
904.981	18148
905.098	18026
905.216	18106
905.334	18087
905.451	18076
905.569	18060
905.686	18117
905.803	17996
905.921	17813
906.038	17973
906.155	17882
906.272	17661
906.389	17775
906.506	17558
906.623	17554
906.74	17672
906.857	17539
906.974	17539
907.091	17733
907.208	17802
907.324	17623
907.441	17509
907.557	17246
907.674	17360
907.79	17307
907.907	17326
908.023	17307
908.139	17345
908.256	17212
908.372	17166
908.488	17200
908.604	17071
908.72	17052
908.836	17003
908.952	17060
909.068	17090
909.184	17052
909.3	17090
909.415	17060
909.531	16923
909.647	16854
909.762	16729
909.878	16641
909.993	16706
910.108	16702
910.224	16782
910.339	16679
910.454	16630
910.57	16637
910.685	16466
910.8	16721
910.915	16656
911.03	16527
911.145	16272
911.259	16352
911.374	16177
911.489	16299
911.604	16105
911.718	16086
911.833	16074
911.947	15991
912.062	15937
912.176	16086
912.291	16166
912.405	16093
912.519	16204
912.633	16276
912.748	16112
912.862	16093
912.976	15819
913.09	15720
913.204	15884
913.318	15892
913.431	15949
913.545	15907
913.659	16006
913.772	15846
913.886	15747
914	15732
914.113	15857
914.226	15736
914.34	15705
914.453	15557
914.566	15610
914.68	15519
914.793	15538
914.906	15256
915.019	15195
915.132	15176
915.245	15306
915.358	15310
915.47	15245
915.583	15310
915.696	15260
915.809	15329
915.921	15485
916.034	15211
916.146	15157
916.259	15169
916.371	15321
916.483	15211
916.595	15135
916.708	15142
916.82	15108
916.932	15036
917.044	15081
917.156	15093
917.268	14960
917.38	14895
917.491	14914
917.603	14994
917.715	15089
917.826	15039
917.938	14963
918.049	14781
918.161	14960
918.272	15005
918.384	14937
918.495	14849
918.606	14720
918.717	14670
918.828	14746
918.939	14708
919.05	14606
919.161	14693
919.272	14499
919.383	14545
919.494	14594
919.604	14811
919.715	14697
919.826	14613
919.936	14556
920.047	14606
920.157	14693
920.267	14853
920.378	14655
920.488	14564
920.598	14804
920.708	14887
920.818	14640
920.928	14769
921.038	14910
921.148	14937
921.258	14667
921.368	14503
921.477	14465
921.587	14366
921.697	14332
921.806	14393
921.916	14248
922.025	14115
922.134	14096
922.244	13944
922.353	14027
922.462	13902
922.571	13845
922.68	13734
922.789	13696
922.898	13662
923.007	13594
923.116	13590
923.224	13662
923.333	13613
923.442	13514
923.55	13521
923.659	13419
923.767	13510
923.876	13438
923.984	13438
924.092	13339
924.201	13480
924.309	13327
924.417	13354
924.525	13324
924.633	13316
924.741	14313
924.849	13145
924.956	13316
925.064	13152
925.172	13072
925.279	13027
925.387	13198
925.494	13114
925.602	13137
925.709	13091
925.816	12894
925.924	13053
926.031	13023
926.138	13023
926.245	13061
926.352	12913
926.459	13046
926.566	13110
926.673	12951
926.779	12798
926.886	12798
926.993	12703
927.099	12734
927.206	12582
927.312	12620
927.419	12665
927.525	12604
927.631	12722
927.737	12578
927.843	12464
927.95	12410
928.056	12486
928.162	12502
928.267	12517
928.373	12989
928.479	12525
928.585	12251
928.69	12365
928.796	12384
928.901	12395
929.007	12129
929.112	12327
929.218	12194
929.323	12133
929.428	12175
929.533	12372
929.638	12110
929.743	12121
929.848	12159
929.953	12110
930.058	12011
930.163	11775
930.267	11805
930.372	11973
930.477	11733
930.581	12114
930.685	11908
930.79	11737
930.894	11775
930.998	11756
931.103	11859
931.207	11524
931.311	11402
931.415	11334
931.519	11147
931.623	11048
