Data from test_V78500241_1761.txt Node
Date: Fri Mar 25 15:54:00 CST 2022
User: usil
Spectrometer: V785-0024
Trigger mode: 0
Integration Time (sec): 4.000000E-1
Scans to average: 1
Nonlinearity correction enabled: false
Boxcar width: 0
Storing dark spectrum: false
XAxis mode: Wavelengths
Number of Pixels in Spectrum: 1024
>>>>>Begin Spectral Data<<<<<
801.071	28862
801.214	28755
801.356	28546
801.499	28489
801.641	28432
801.783	28474
801.926	28424
802.068	28375
802.211	28386
802.353	28394
802.496	28120
802.638	28010
802.78	28082
802.923	28055
803.065	27934
803.208	27994
803.35	28063
803.492	28284
803.635	28139
803.777	28128
803.919	28242
804.061	28596
804.204	28261
804.346	28375
804.488	28112
804.63	28325
804.773	28158
804.915	28371
805.057	28577
805.199	28379
805.341	28481
805.483	28596
805.626	28565
805.768	28504
805.91	28596
806.052	28596
806.194	28531
806.336	28801
806.478	28599
806.62	28596
806.762	28668
806.904	28809
807.046	28991
807.188	28854
807.33	28888
807.472	29060
807.614	28778
807.756	28885
807.898	28828
808.04	28774
808.182	28736
808.324	28706
808.465	28911
808.607	28995
808.749	29143
808.891	29296
809.033	29478
809.174	29193
809.316	29181
809.458	29200
809.6	29052
809.741	29200
809.883	29288
810.025	29528
810.166	29543
810.308	29585
810.45	29448
810.591	29368
810.733	29258
810.875	29083
811.016	29113
811.158	29086
811.299	29258
811.441	29471
811.582	29379
811.724	29303
811.865	29269
812.007	29178
812.148	29261
812.29	29254
812.431	29292
812.573	29512
812.714	29615
812.855	29695
812.997	29847
813.138	29992
813.279	29935
813.421	29752
813.562	29710
813.703	29512
813.845	29474
813.986	29227
814.127	29094
814.268	28908
814.41	28984
814.551	29006
814.692	28927
814.833	28911
814.974	28877
815.115	28965
815.256	28812
815.397	28820
815.539	28767
815.68	28702
815.821	28736
815.962	28805
816.103	28630
816.244	28565
816.385	28588
816.526	28497
816.666	28333
816.807	28177
816.948	28436
817.089	28405
817.23	28322
817.371	28219
817.512	28082
817.653	28093
817.793	28310
817.934	28196
818.075	28253
818.216	28363
818.356	28109
818.497	28188
818.638	27873
818.778	28090
818.919	28013
819.06	28116
819.2	28215
819.341	28371
819.481	28322
819.622	28409
819.762	28565
819.903	28584
820.043	28481
820.184	28455
820.324	28382
820.465	28394
820.605	28382
820.746	28306
820.886	28242
821.026	28341
821.167	28337
821.307	28436
821.447	28299
821.588	28143
821.728	28059
821.868	27873
822.008	27819
822.149	27679
822.289	27679
822.429	27485
822.569	27568
822.709	27359
822.849	27207
822.99	27329
823.13	27176
823.27	27218
823.41	26891
823.55	27062
823.69	27192
823.83	27024
823.97	27085
824.11	26868
824.25	26823
824.389	26906
824.529	26990
824.669	26849
824.809	26979
824.949	27024
825.089	26990
825.228	27009
825.368	26811
825.508	26773
825.648	26762
825.787	26804
825.927	26864
826.067	26769
826.206	26823
826.346	26773
826.485	26800
826.625	26868
826.765	26765
826.904	26883
827.044	26579
827.183	26431
827.323	26370
827.462	26526
827.601	26514
827.741	26514
827.88	26545
828.02	26309
828.159	26484
828.298	26514
828.437	26453
828.577	26355
828.716	26564
828.855	26271
828.994	26244
829.134	26309
829.273	26313
829.412	26130
829.551	26107
829.69	26142
829.829	26195
829.968	26225
830.107	26256
830.246	26218
830.385	26092
830.524	26039
830.663	25959
830.802	25997
830.941	25734
831.08	25670
831.219	25852
831.357	25814
831.496	25963
831.635	25902
831.774	25765
831.913	25662
832.051	25635
832.19	25620
832.329	25624
832.467	25495
832.606	25460
832.744	25415
832.883	25346
833.022	25297
833.16	25407
833.299	25362
833.437	25460
833.576	25449
833.714	25476
833.852	25628
833.991	25525
834.129	25575
834.267	25567
834.406	25563
834.544	25529
834.682	25441
834.821	25438
834.959	25575
835.097	25377
835.235	25510
835.373	25616
835.511	25544
835.65	25388
835.788	25266
835.926	25247
836.064	25179
836.202	24985
836.34	25312
836.478	25384
836.615	25236
836.753	25228
836.891	25289
837.029	25247
837.167	25293
837.305	25091
837.443	25175
837.58	25065
837.718	25122
837.856	25259
837.993	24951
838.131	25202
838.269	25065
838.406	25164
838.544	25027
838.681	24760
838.819	24719
838.956	24456
839.094	24703
839.231	24623
839.369	24711
839.506	25034
839.643	24852
839.781	24650
839.918	24521
840.055	24559
840.193	24547
840.33	24627
840.467	24547
840.604	24620
840.742	24821
840.879	24471
841.016	24380
841.153	24407
841.29	24582
841.427	24574
841.564	24513
841.701	24437
841.838	24456
841.975	24342
842.112	24384
842.249	24369
842.385	24334
842.522	24563
842.659	24270
842.796	24167
842.933	24239
843.069	24117
843.206	24167
843.343	24262
843.479	24247
843.616	24232
843.752	24041
843.889	24026
844.025	24205
844.162	24068
844.298	24106
844.435	24072
844.571	23988
844.708	24083
844.844	24277
844.98	24060
845.117	24076
845.253	24098
845.389	23923
845.525	23866
845.661	23950
845.798	23771
845.934	23843
846.07	23680
846.206	23840
846.342	23969
846.478	23718
846.614	23509
846.75	23493
846.886	23417
847.022	23482
847.158	23463
847.294	23509
847.429	23490
847.565	23509
847.701	23680
847.837	23220
847.972	23166
848.108	23223
848.244	23162
848.379	23159
848.515	23155
848.65	23079
848.786	23044
848.921	23109
849.057	23117
849.192	23212
849.328	23174
849.463	23071
849.598	22923
849.734	22816
849.869	22984
850.004	22927
850.14	22968
850.275	22694
850.41	22653
850.545	22797
850.68	22801
850.815	22911
850.95	22919
851.085	22995
851.22	22995
851.355	22824
851.49	22797
851.625	22793
851.76	22892
851.895	22584
852.03	22683
852.165	22949
852.299	22908
852.434	22835
852.569	22881
852.703	22740
852.838	22835
852.973	22949
853.107	22972
853.242	22748
853.376	22702
853.511	22519
853.645	22630
853.78	22805
853.914	22649
854.048	22653
854.183	22618
854.317	22645
854.451	22778
854.585	22755
854.72	22710
854.854	22782
854.988	22588
855.122	22580
855.256	22626
855.39	22641
855.524	22626
855.658	22698
855.792	22618
855.926	22637
856.06	22759
856.194	22683
856.327	22645
856.461	22698
856.595	22538
856.729	22603
856.862	22698
856.996	22698
857.13	22710
857.263	22721
857.397	22675
857.53	22596
857.664	22691
857.797	22733
857.931	22759
858.064	22698
858.197	22839
858.331	22641
858.464	22584
858.597	22561
858.731	22508
858.864	22592
858.997	22687
859.13	22607
859.263	22573
859.396	22668
859.529	22611
859.662	22538
859.795	22626
859.928	22630
860.061	22790
860.194	22824
860.327	22599
860.46	22736
860.592	22790
860.725	22896
860.858	22763
860.99	22683
861.123	22573
861.256	22637
861.388	22721
861.521	23311
861.653	22474
861.786	22413
861.918	22466
862.05	22588
862.183	22527
862.315	22611
862.447	22596
862.58	22561
862.712	22310
862.844	22341
862.976	22462
863.108	22447
863.24	22801
863.372	22230
863.504	22287
863.636	22371
863.768	22352
863.9	22447
864.032	22341
864.164	22295
864.296	22306
864.428	22447
864.559	22440
864.691	22459
864.823	22322
864.954	22352
865.086	22291
865.217	22257
865.349	22116
865.48	22192
865.612	22207
865.743	22257
865.875	22268
866.006	22147
866.137	22306
866.269	22207
866.4	22169
866.531	22150
866.662	22101
866.793	22257
866.924	22238
867.055	22131
867.186	22116
867.317	22010
867.448	22059
867.579	22143
867.71	22078
867.841	22021
867.972	22116
868.103	22086
868.233	22059
868.364	22124
868.495	22154
868.625	22344
868.756	22398
868.886	22181
869.017	22337
869.147	22470
869.278	22440
869.408	22405
869.539	22249
869.669	22436
869.799	22363
869.929	22504
870.06	22417
870.19	22531
870.32	22645
870.45	22672
870.58	22774
870.71	22885
870.84	22889
870.97	22687
871.1	22733
871.23	22824
871.36	22987
871.489	22831
871.619	22896
871.749	22896
871.879	23102
872.008	23025
872.138	23048
872.267	22949
872.397	22858
872.526	22786
872.656	22835
872.785	22896
872.915	23075
873.044	23117
873.173	22949
873.303	23018
873.432	22984
873.561	23006
873.69	23140
873.819	22999
873.948	23044
874.077	23174
874.206	22934
874.335	22927
874.464	23197
874.593	23197
874.722	23117
874.851	23315
874.979	23265
875.108	23193
875.237	23044
875.365	23231
875.494	23162
875.623	23258
875.751	23136
875.88	23223
876.008	23356
876.136	23326
876.265	23611
876.393	23756
876.521	23714
876.65	23619
876.778	23554
876.906	23516
877.034	23543
877.162	23554
877.29	23478
877.418	23493
877.546	23558
877.674	23429
877.802	23554
877.93	23558
878.058	23398
878.185	23402
878.313	23471
878.441	23528
878.568	23463
878.696	23539
878.824	23581
878.951	23668
879.079	23832
879.206	23851
879.333	23802
879.461	23570
879.588	23741
879.715	23786
879.842	23703
879.97	23592
880.097	23444
880.224	23288
880.351	23353
880.478	23326
880.605	23288
880.732	23547
880.859	23482
880.986	23299
881.112	23349
881.239	23311
881.366	23189
881.493	23094
881.619	22911
881.746	22881
881.872	22915
881.999	22904
882.125	22717
882.252	22900
882.378	22908
882.505	23033
882.631	22790
882.757	22691
882.883	22577
883.01	22679
883.136	22550
883.262	22535
883.388	22432
883.514	22485
883.64	22637
883.766	22641
883.892	22280
884.018	22440
884.143	22474
884.269	22706
884.395	22310
884.52	22390
884.646	22318
884.772	22128
884.897	22211
885.023	22219
885.148	22295
885.274	22379
885.399	22261
885.524	22196
885.65	22215
885.775	22413
885.9	22215
886.025	22386
886.15	22394
886.275	22154
886.4	22139
886.525	22124
886.65	22143
886.775	22082
886.9	22337
887.025	22284
887.149	22257
887.274	22143
887.399	21899
887.523	21972
887.648	21975
887.773	21869
887.897	22013
888.021	22044
888.146	21873
888.27	22013
888.395	22059
888.519	22036
888.643	22051
888.767	22074
888.891	21724
889.015	21804
889.139	21854
889.263	21603
889.387	21800
889.511	21987
889.635	21838
889.759	21614
889.883	21759
890.006	21682
890.13	21827
890.254	21660
890.377	21701
890.501	21564
890.624	21469
890.748	21435
890.871	21428
890.995	21294
891.118	21233
891.241	21329
891.364	21488
891.488	21485
891.611	21382
891.734	21405
891.857	21469
891.98	21336
892.103	21393
892.226	21321
892.349	21336
892.471	21096
892.594	21260
892.717	21249
892.839	21298
892.962	21169
893.085	21405
893.207	21161
893.33	21066
893.452	21192
893.575	21302
893.697	21146
893.819	21310
893.941	21378
894.064	21275
894.186	21127
894.308	21077
894.43	21260
894.552	21412
894.674	21268
894.796	21222
894.918	21112
895.04	21188
895.161	21355
895.283	21268
895.405	21150
895.526	21081
895.648	21214
895.769	21135
895.891	21176
896.012	21218
896.134	21351
896.255	21199
896.376	21230
896.498	21039
896.619	21184
896.74	21195
896.861	21214
896.982	21542
897.103	21553
897.224	21332
897.345	21351
897.466	21287
897.587	21283
897.708	21469
897.828	21477
897.949	21237
898.07	21302
898.19	21272
898.311	21389
898.431	21317
898.552	21378
898.672	21545
898.792	21386
898.913	21329
899.033	21268
899.153	21195
899.273	21036
899.393	21180
899.513	21119
899.633	21112
899.753	21184
899.873	20979
899.993	21142
900.113	21138
900.232	21009
900.352	21028
900.472	20891
900.591	20689
900.711	20880
900.83	20804
900.95	20975
901.069	20925
901.189	20891
901.308	20511
901.427	20317
901.546	20461
901.665	20480
901.784	20370
901.904	20237
902.023	20153
902.141	20016
902.26	19932
902.379	20096
902.498	20005
902.617	19871
902.735	19951
902.854	19925
902.973	19860
903.091	19632
903.21	19632
903.328	19518
903.446	19483
903.565	19472
903.683	19468
903.801	19213
903.919	19240
904.038	19289
904.156	19240
904.274	19255
904.392	19103
904.51	19209
904.627	19202
904.745	19107
904.863	19061
904.981	18897
905.098	18783
905.216	18882
905.334	18875
905.451	18863
905.569	18757
905.686	18886
905.803	18677
905.921	18547
906.038	18856
906.155	18726
906.272	18483
906.389	18608
906.506	18296
906.623	18407
906.74	18262
906.857	18228
906.974	18311
907.091	18346
907.208	18403
907.324	18292
907.441	18273
907.557	18216
907.674	18117
907.79	17984
907.907	18106
908.023	18068
908.139	18030
908.256	17939
908.372	17889
908.488	18003
908.604	17832
908.72	17710
908.836	17722
908.952	17611
909.068	17824
909.184	17832
909.3	17767
909.415	17794
909.531	17760
909.647	17425
909.762	17478
909.878	17406
909.993	17414
910.108	17356
910.224	17459
910.339	17417
910.454	17277
910.57	17265
910.685	17113
910.8	17455
910.915	17364
911.03	17166
911.145	17136
911.259	17014
911.374	17014
911.489	16984
911.604	16866
911.718	16816
911.833	16725
911.947	16752
912.062	16607
912.176	16717
912.291	16771
912.405	16835
912.519	17018
912.633	16809
912.748	16873
912.862	16786
912.976	16653
913.09	16493
913.204	16523
913.318	16607
913.431	16691
913.545	16599
913.659	16656
913.772	16512
913.886	16493
914	16386
914.113	16417
914.226	16481
914.34	16485
914.453	16242
914.566	16443
914.68	16090
914.793	16299
914.906	16006
915.019	15934
915.132	15926
915.245	15956
915.358	15998
915.47	15937
915.583	15869
915.696	15899
915.809	16097
915.921	16086
916.034	15949
916.146	15869
916.259	15934
916.371	15915
916.483	15846
916.595	15694
916.708	15781
916.82	15808
916.932	15819
917.044	15751
917.156	15686
917.268	15587
917.38	15641
917.491	15496
917.603	15625
917.715	15739
917.826	15671
917.938	15469
918.049	15466
918.161	15447
918.272	15610
918.384	15591
918.495	15439
918.606	15317
918.717	15199
918.828	15302
918.939	15310
919.05	15176
919.161	15310
919.272	15043
919.383	15097
919.494	15298
919.604	15603
919.715	15447
919.826	15218
919.936	15306
920.047	15332
920.157	15310
920.267	15439
920.378	15329
920.488	15233
920.598	15313
920.708	15580
920.818	15355
920.928	15363
921.038	15469
921.148	15447
921.258	15169
921.368	14963
921.477	14982
921.587	14990
921.697	14883
921.806	14982
921.916	14845
922.025	14621
922.134	14590
922.244	14476
922.353	14537
922.462	14393
922.571	14454
922.68	14332
922.789	14271
922.898	14244
923.007	14210
923.116	14263
923.224	14237
923.333	14142
923.442	14039
923.55	14096
923.659	14088
923.767	14153
923.876	14096
923.984	14123
924.092	13974
924.201	13978
924.309	13902
924.417	13955
924.525	13890
924.633	13913
924.741	14579
924.849	13666
924.956	13814
925.064	13616
925.172	13666
925.279	13613
925.387	13620
925.494	13620
925.602	13814
925.709	13616
925.816	13518
925.924	13537
926.031	13537
926.138	13521
926.245	13578
926.352	13487
926.459	13571
926.566	13590
926.673	13487
926.779	13396
926.886	13384
926.993	13244
927.099	13236
927.206	13133
927.312	13080
927.419	13217
927.525	13236
927.631	13091
927.737	13050
927.843	13053
927.95	12939
928.056	12920
928.162	12962
928.267	12977
928.373	13597
928.479	13084
928.585	12829
928.69	12875
928.796	12939
928.901	12844
929.007	12642
929.112	12829
929.218	12821
929.323	12677
929.428	12604
929.533	12810
929.638	12658
929.743	12623
929.848	12646
929.953	12665
930.058	12517
930.163	12403
930.267	12414
930.372	12513
930.477	12194
930.581	12540
930.685	12323
930.79	12239
930.894	12266
930.998	12117
931.103	12224
931.207	11942
931.311	11878
931.415	11821
931.519	11558
931.623	11490
