Data from test_V78500241_3199.txt Node
Date: Fri Mar 25 16:03:57 CST 2022
User: usil
Spectrometer: V785-0024
Trigger mode: 0
Integration Time (sec): 4.000000E-1
Scans to average: 1
Nonlinearity correction enabled: false
Boxcar width: 0
Storing dark spectrum: false
XAxis mode: Wavelengths
Number of Pixels in Spectrum: 1024
>>>>>Begin Spectral Data<<<<<
801.071	28694
801.214	28740
801.356	28405
801.499	28291
801.641	28238
801.783	28139
801.926	28382
802.068	28192
802.211	28185
802.353	28120
802.496	27956
802.638	27926
802.78	27854
802.923	27739
803.065	27854
803.208	27625
803.35	28051
803.492	28090
803.635	28105
803.777	28002
803.919	28169
804.061	28447
804.204	28204
804.346	28063
804.488	28063
804.63	28154
804.773	28063
804.915	28322
805.057	28226
805.199	28150
805.341	28223
805.483	28329
805.626	28276
805.768	28192
805.91	28379
806.052	28265
806.194	28276
806.336	28588
806.478	28382
806.62	28276
806.762	28489
806.904	28462
807.046	28843
807.188	28847
807.33	28828
807.472	28862
807.614	28771
807.756	28721
807.898	28599
808.04	28531
808.182	28554
808.324	28596
808.465	28607
808.607	28839
808.749	28984
808.891	29010
809.033	29128
809.174	29052
809.316	28942
809.458	28900
809.6	29079
809.741	28995
809.883	29098
810.025	29204
810.166	29315
810.308	29227
810.45	29132
810.591	29326
810.733	29014
810.875	29033
811.016	28892
811.158	28850
811.299	29048
811.441	29193
811.582	29121
811.724	28991
811.865	29006
812.007	29155
812.148	29090
812.29	29094
812.431	29261
812.573	29425
812.714	29387
812.855	29459
812.997	29600
813.138	29676
813.279	29680
813.421	29512
813.562	29433
813.703	29330
813.845	29136
813.986	28869
814.127	28877
814.268	28729
814.41	28748
814.551	28656
814.692	28752
814.833	28611
814.974	28664
815.115	28915
815.256	28493
815.397	28641
815.539	28771
815.68	28512
815.821	28436
815.962	28577
816.103	28710
816.244	28485
816.385	28390
816.526	28348
816.666	28067
816.807	28090
816.948	28192
817.089	28063
817.23	28105
817.371	28063
817.512	27964
817.653	28025
817.793	27926
817.934	28029
818.075	28070
818.216	28032
818.356	28078
818.497	27793
818.638	27793
818.778	27930
818.919	27819
819.06	27743
819.2	27937
819.341	27998
819.481	27994
819.622	28207
819.762	28310
819.903	28409
820.043	28154
820.184	28112
820.324	28078
820.465	28276
820.605	28284
820.746	28116
820.886	28036
821.026	28067
821.167	28097
821.307	28143
821.447	28128
821.588	27968
821.728	27812
821.868	27774
822.008	27279
822.149	27462
822.289	27496
822.429	27169
822.569	27123
822.709	27066
822.849	27077
822.99	27066
823.13	27150
823.27	26857
823.41	26933
823.55	26682
823.69	26849
823.83	26686
823.97	26705
824.11	26651
824.25	26560
824.389	26739
824.529	26735
824.669	26769
824.809	26731
824.949	26724
825.089	26804
825.228	26773
825.368	26476
825.508	26476
825.648	26564
825.787	26655
825.927	26708
826.067	26564
826.206	26484
826.346	26632
826.485	26541
826.625	26590
826.765	26678
826.904	26594
827.044	26442
827.183	26355
827.323	26332
827.462	26355
827.601	26294
827.741	26229
827.88	26218
828.02	26130
828.159	26347
828.298	26282
828.437	26240
828.577	26122
828.716	26263
828.855	26172
828.994	26084
829.134	25894
829.273	25986
829.412	25841
829.551	25951
829.69	25883
829.829	25989
829.968	26001
830.107	26058
830.246	25955
830.385	25719
830.524	25928
830.663	25757
830.802	25704
830.941	25559
831.08	25510
831.219	25700
831.357	25590
831.496	25852
831.635	25578
831.774	25521
831.913	25544
832.051	25304
832.19	25255
832.329	25274
832.467	25209
832.606	25183
832.744	25308
832.883	25209
833.022	25247
833.16	25274
833.299	25365
833.437	25247
833.576	25282
833.714	25209
833.852	25316
833.991	25278
834.129	25381
834.267	25449
834.406	25346
834.544	25327
834.682	25388
834.821	25293
834.959	25381
835.097	25339
835.235	25293
835.373	25324
835.511	25362
835.65	25110
835.788	25198
835.926	24977
836.064	25004
836.202	24833
836.34	25126
836.478	25141
836.615	25076
836.753	25213
836.891	25297
837.029	25141
837.167	25015
837.305	25023
837.443	25179
837.58	25004
837.718	25027
837.856	25050
837.993	24844
838.131	24924
838.269	24722
838.406	24890
838.544	24798
838.681	24639
838.819	24513
838.956	24346
839.094	24380
839.231	24528
839.369	24730
839.506	24894
839.643	24688
839.781	24407
839.918	24323
840.055	24346
840.193	24433
840.33	24281
840.467	24197
840.604	24547
840.742	24521
840.879	24174
841.016	24174
841.153	24171
841.29	24311
841.427	24266
841.564	24426
841.701	24277
841.838	24372
841.975	24247
842.112	24319
842.249	24076
842.385	24087
842.522	24315
842.659	24213
842.796	24038
842.933	24152
843.069	24121
843.206	23942
843.343	24140
843.479	24015
843.616	24007
843.752	23889
843.889	23863
844.025	23920
844.162	23832
844.298	24045
844.435	23859
844.571	23980
844.708	23824
844.844	24079
844.98	23958
845.117	23996
845.253	23855
845.389	23802
845.525	23729
845.661	23691
845.798	23695
845.934	23649
846.07	23657
846.206	23695
846.342	23703
846.478	23531
846.614	23349
846.75	23315
846.886	23379
847.022	23395
847.158	23364
847.294	23349
847.429	23284
847.565	23254
847.701	23516
847.837	23075
847.972	23018
848.108	23048
848.244	23117
848.379	23003
848.515	22900
848.65	22850
848.786	22957
848.921	22885
849.057	23010
849.192	22953
849.328	22961
849.463	23010
849.598	22911
849.734	22774
849.869	22843
850.004	22504
850.14	22740
850.275	22691
850.41	22615
850.545	22500
850.68	22622
850.815	22797
850.95	22675
851.085	22854
851.22	22828
851.355	22649
851.49	22778
851.625	22702
851.76	22596
851.895	22626
852.03	22596
852.165	22763
852.299	22656
852.434	22820
852.569	22717
852.703	22504
852.838	22782
852.973	22691
853.107	22717
853.242	22634
853.376	22516
853.511	22363
853.645	22478
853.78	22497
853.914	22607
854.048	22394
854.183	22615
854.317	22577
854.451	22717
854.585	22603
854.72	22535
854.854	22493
854.988	22440
855.122	22497
855.256	22398
855.39	22379
855.524	22542
855.658	22466
855.792	22508
855.926	22523
856.06	22569
856.194	22603
856.327	22455
856.461	22481
856.595	22557
856.729	22481
856.862	22645
856.996	22577
857.13	22653
857.263	22588
857.397	22512
857.53	22527
857.664	22413
857.797	22622
857.931	22645
858.064	22618
858.197	22550
858.331	22493
858.464	22424
858.597	22519
858.731	22542
858.864	22432
858.997	22535
859.13	22451
859.263	22546
859.396	22653
859.529	22382
859.662	22489
859.795	22367
859.928	22512
860.061	22736
860.194	22641
860.327	22557
860.46	22531
860.592	22675
860.725	22755
860.858	22630
860.99	22527
861.123	22455
861.256	22527
861.388	22516
861.521	23117
861.653	22322
861.786	22306
861.918	22371
862.05	22523
862.183	22329
862.315	22466
862.447	22622
862.58	22394
862.712	22230
862.844	22196
862.976	22310
863.108	22223
863.24	22459
863.372	22067
863.504	22169
863.636	22188
863.768	22314
863.9	22192
864.032	22211
864.164	22234
864.296	22314
864.428	22371
864.559	22257
864.691	22268
864.823	22238
864.954	22169
865.086	22078
865.217	22147
865.349	22120
865.48	22048
865.612	22185
865.743	22169
865.875	22181
866.006	22017
866.137	22109
866.269	22036
866.4	22162
866.531	22097
866.662	21922
866.793	21930
866.924	22055
867.055	22070
867.186	22036
867.317	22090
867.448	21888
867.579	22010
867.71	21873
867.841	21918
867.972	22036
868.103	22059
868.233	22029
868.364	21998
868.495	22067
868.625	22363
868.756	22268
868.886	22226
869.017	22257
869.147	22363
869.278	22356
869.408	22344
869.539	22363
869.669	22185
869.799	22280
869.929	22424
870.06	22455
870.19	22618
870.32	22588
870.45	22592
870.58	22626
870.71	22538
870.84	22778
870.97	22630
871.1	22675
871.23	22881
871.36	22942
871.489	22793
871.619	22839
871.749	22987
871.879	22889
872.008	22984
872.138	22927
872.267	22866
872.397	22786
872.526	22611
872.656	22710
872.785	22729
872.915	22801
873.044	22930
873.173	22968
873.303	22987
873.432	22972
873.561	23025
873.69	22801
873.819	22763
873.948	22892
874.077	22900
874.206	22835
874.335	22908
874.464	22991
874.593	23098
874.722	23037
874.851	23132
874.979	23162
875.108	23174
875.237	22915
875.365	22942
875.494	23098
875.623	23079
875.751	23124
875.88	23208
876.008	23242
876.136	23296
876.265	23528
876.393	23566
876.521	23581
876.65	23672
876.778	23467
876.906	23558
877.034	23395
877.162	23395
877.29	23337
877.418	23505
877.546	23410
877.674	23433
877.802	23528
877.93	23376
878.058	23402
878.185	23360
878.313	23429
878.441	23402
878.568	23273
878.696	23520
878.824	23471
878.951	23589
879.079	23585
879.206	23657
879.333	23581
879.461	23459
879.588	23478
879.715	23604
879.842	23695
879.97	23554
880.097	23337
880.224	23227
880.351	23402
880.478	23269
880.605	23284
880.732	23303
880.859	23535
880.986	23246
881.112	23292
881.239	23075
881.366	22972
881.493	22908
881.619	22957
881.746	22873
881.872	22767
881.999	22820
882.125	22622
882.252	22786
882.378	22721
882.505	22869
882.631	22675
882.757	22516
882.883	22596
883.01	22485
883.136	22508
883.262	22238
883.388	22226
883.514	22497
883.64	22447
883.766	22329
883.892	22204
884.018	22162
884.143	22554
884.269	22512
884.395	22226
884.52	22032
884.646	22120
884.772	22109
884.897	21968
885.023	22124
885.148	22196
885.274	22287
885.399	22223
885.524	22177
885.65	22185
885.775	22097
885.9	22006
886.025	22196
886.15	22177
886.275	22090
886.4	21998
886.525	22105
886.65	22048
886.775	22063
886.9	22101
887.025	22314
887.149	22169
887.274	21857
887.399	21964
887.523	21793
887.648	21915
887.773	21755
887.897	21876
888.021	21865
888.146	21778
888.27	21850
888.395	21949
888.519	21873
888.643	21873
888.767	21934
888.891	21686
889.015	21671
889.139	21747
889.263	21701
889.387	21713
889.511	21762
889.635	21736
889.759	21743
889.883	21622
890.006	21694
890.13	21778
890.254	21545
890.377	21641
890.501	21492
890.624	21310
890.748	21435
890.871	21313
890.995	21249
891.118	21214
891.241	21199
891.364	21283
891.488	21443
891.611	21310
891.734	21157
891.857	21283
891.98	21188
892.103	21173
892.226	21218
892.349	21123
892.471	21089
892.594	21127
892.717	21062
892.839	21108
892.962	21104
893.085	21165
893.207	21104
893.33	20990
893.452	20986
893.575	21112
893.697	21039
893.819	21329
893.941	21306
894.064	21154
894.186	21028
894.308	21058
894.43	21116
894.552	21157
894.674	21192
894.796	20986
894.918	21108
895.04	21104
895.161	21051
895.283	21142
895.405	20986
895.526	21062
895.648	20986
895.769	21180
895.891	21150
896.012	21096
896.134	21077
896.255	21108
896.376	21005
896.498	21070
896.619	21055
896.74	21135
896.861	21245
896.982	21458
897.103	21511
897.224	21313
897.345	21332
897.466	21256
897.587	21264
897.708	21481
897.828	21291
897.949	21192
898.07	21138
898.19	21218
898.311	21291
898.431	21252
898.552	21123
898.672	21355
898.792	21329
898.913	21241
899.033	21230
899.153	21089
899.273	20944
899.393	21020
899.513	21138
899.633	20967
899.753	21058
899.873	21001
899.993	20948
900.113	20914
900.232	21028
900.352	20979
900.472	20826
900.591	20743
900.711	20925
900.83	20857
900.95	20910
901.069	20864
901.189	20716
901.308	20309
901.427	20351
901.546	20476
901.665	20351
901.784	20328
901.904	20233
902.023	20111
902.141	20039
902.26	19913
902.379	19986
902.498	19883
902.617	19822
902.735	19845
902.854	19849
902.973	19750
903.091	19616
903.21	19616
903.328	19411
903.446	19449
903.565	19308
903.683	19316
903.801	19209
903.919	19331
904.038	19274
904.156	19114
904.274	19038
904.392	18996
904.51	19069
904.627	18958
904.745	19213
904.863	19118
904.981	18916
905.098	18760
905.216	18726
905.334	18745
905.451	18798
905.569	18673
905.686	18738
905.803	18783
905.921	18574
906.038	18608
906.155	18490
906.272	18490
906.389	18563
906.506	18311
906.623	18346
906.74	18330
906.857	18038
906.974	18076
907.091	18213
907.208	18342
907.324	18353
907.441	18155
907.557	17942
907.674	18034
907.79	17874
907.907	17965
908.023	18049
908.139	18011
908.256	17935
908.372	17882
908.488	17790
908.604	17668
908.72	17596
908.836	17737
908.952	17710
909.068	17684
909.184	17851
909.3	17672
909.415	17653
909.531	17623
909.647	17577
909.762	17315
909.878	17368
909.993	17471
910.108	17414
910.224	17269
910.339	17356
910.454	17220
910.57	17090
910.685	17086
910.8	17410
910.915	17326
911.03	17212
911.145	17022
911.259	16968
911.374	16987
911.489	16835
911.604	16816
911.718	16630
911.833	16668
911.947	16653
912.062	16550
912.176	16672
912.291	16790
912.405	16717
912.519	16881
912.633	16904
912.748	16664
912.862	16645
912.976	16493
913.09	16337
913.204	16470
913.318	16367
913.431	16542
913.545	16637
913.659	16508
913.772	16455
913.886	16375
914	16356
914.113	16375
914.226	16455
914.34	16329
914.453	16253
914.566	16363
914.68	16166
914.793	16078
914.906	15960
915.019	15926
915.132	15800
915.245	15903
915.358	15785
915.47	15778
915.583	15781
915.696	15819
915.809	15975
915.921	15972
916.034	15785
916.146	15709
916.259	15774
916.371	15812
916.483	15808
916.595	15652
916.708	15614
916.82	15694
916.932	15698
917.044	15679
917.156	15587
917.268	15500
917.38	15488
917.491	15507
917.603	15458
917.715	15553
917.826	15564
917.938	15439
918.049	15336
918.161	15526
918.272	15515
918.384	15561
918.495	15435
918.606	15317
918.717	15268
918.828	15336
918.939	15344
919.05	15112
919.161	15161
919.272	15001
919.383	14998
919.494	15283
919.604	15401
919.715	15241
919.826	15119
919.936	15157
920.047	15211
920.157	15169
920.267	15408
920.378	15146
920.488	15123
920.598	15378
920.708	15462
920.818	15294
920.928	15374
921.038	15526
921.148	15370
921.258	15146
921.368	14956
921.477	14895
921.587	14899
921.697	14838
921.806	14899
921.916	14804
922.025	14552
922.134	14484
922.244	14598
922.353	14533
922.462	14438
922.571	14328
922.68	14138
922.789	14119
922.898	14225
923.007	14107
923.116	14229
923.224	14263
923.333	14157
923.442	14054
923.55	13970
923.659	14088
923.767	14115
923.876	14046
923.984	14005
924.092	13856
924.201	13894
924.309	13883
924.417	13803
924.525	13807
924.633	13818
924.741	14632
924.849	13537
924.956	13784
925.064	13605
925.172	13495
925.279	13472
925.387	13613
925.494	13578
925.602	13704
925.709	13597
925.816	13403
925.924	13559
926.031	13571
926.138	13514
926.245	13559
926.352	13259
926.459	13510
926.566	13563
926.673	13480
926.779	13327
926.886	13343
926.993	13126
927.099	13088
927.206	13038
927.312	13057
927.419	13225
927.525	13012
927.631	13187
927.737	13019
927.843	12970
927.95	12848
928.056	12878
928.162	12837
928.267	12962
928.373	13480
928.479	12920
928.585	12772
928.69	12859
928.796	12901
928.901	12749
929.007	12555
929.112	12768
929.218	12703
929.323	12616
929.428	12563
929.533	12681
929.638	12612
929.743	12574
929.848	12616
929.953	12513
930.058	12475
930.163	12399
930.267	12319
930.372	12437
930.477	12232
930.581	12452
930.685	12334
930.79	12201
930.894	12266
930.998	12136
931.103	12266
931.207	11973
931.311	11855
931.415	11745
931.519	11596
931.623	11535
