Data from test_V78500241_2288.txt Node
Date: Fri Mar 25 15:57:39 CST 2022
User: usil
Spectrometer: V785-0024
Trigger mode: 0
Integration Time (sec): 4.000000E-1
Scans to average: 1
Nonlinearity correction enabled: false
Boxcar width: 0
Storing dark spectrum: false
XAxis mode: Wavelengths
Number of Pixels in Spectrum: 1024
>>>>>Begin Spectral Data<<<<<
801.071	28729
801.214	28812
801.356	28599
801.499	28398
801.641	28287
801.783	28352
801.926	28367
802.068	28322
802.211	28352
802.353	28299
802.496	28173
802.638	28025
802.78	28059
802.923	27945
803.065	27911
803.208	28017
803.35	27934
803.492	28131
803.635	28234
803.777	28147
803.919	28360
804.061	28592
804.204	28341
804.346	28128
804.488	28329
804.63	28265
804.773	28234
804.915	28363
805.057	28375
805.199	28196
805.341	28424
805.483	28497
805.626	28478
805.768	28291
805.91	28474
806.052	28440
806.194	28299
806.336	28561
806.478	28432
806.62	28459
806.762	28478
806.904	28778
807.046	29003
807.188	28942
807.33	28919
807.472	28873
807.614	28752
807.756	28869
807.898	28725
808.04	28542
808.182	28713
808.324	28797
808.465	28786
808.607	29003
808.749	28949
808.891	28999
809.033	29242
809.174	29288
809.316	29022
809.458	29037
809.6	29033
809.741	29258
809.883	29235
810.025	29288
810.166	29398
810.308	29509
810.45	29467
810.591	29326
810.733	29132
810.875	29025
811.016	29132
811.158	29037
811.299	29128
811.441	29307
811.582	29360
811.724	29151
811.865	29121
812.007	28961
812.148	29113
812.29	29189
812.431	29391
812.573	29429
812.714	29558
812.855	29680
812.997	29798
813.138	29794
813.279	29676
813.421	29745
813.562	29505
813.703	29516
813.845	29277
813.986	29079
814.127	28938
814.268	28896
814.41	28843
814.551	28805
814.692	28987
814.833	28885
814.974	28793
815.115	28885
815.256	28752
815.397	28725
815.539	28771
815.68	28656
815.821	28561
815.962	28557
816.103	28694
816.244	28500
816.385	28455
816.526	28310
816.666	28299
816.807	28238
816.948	28147
817.089	28413
817.23	28215
817.371	28143
817.512	28086
817.653	28093
817.793	28025
817.934	28211
818.075	28025
818.216	28135
818.356	28124
818.497	28029
818.638	27770
818.778	27884
818.919	27823
819.06	27937
819.2	27991
819.341	28131
819.481	28116
819.622	28280
819.762	28417
819.903	28440
820.043	28325
820.184	28379
820.324	28143
820.465	28394
820.605	28310
820.746	28238
820.886	28097
821.026	28230
821.167	28268
821.307	28238
821.447	28169
821.588	28101
821.728	27884
821.868	27789
822.008	27736
822.149	27473
822.289	27625
822.429	27351
822.569	27351
822.709	27249
822.849	27245
822.99	27154
823.13	27009
823.27	27058
823.41	27020
823.55	26887
823.69	27001
823.83	27001
823.97	27104
824.11	26876
824.25	26826
824.389	26788
824.529	26982
824.669	26853
824.809	26986
824.949	26857
825.089	26811
825.228	26861
825.368	26632
825.508	26667
825.648	26785
825.787	26617
825.927	26682
826.067	26644
826.206	26705
826.346	26686
826.485	26731
826.625	26613
826.765	26727
826.904	26629
827.044	26469
827.183	26419
827.323	26370
827.462	26568
827.601	26358
827.741	26396
827.88	26404
828.02	26438
828.159	26218
828.298	26282
828.437	26461
828.577	26355
828.716	26511
828.855	26370
828.994	26263
829.134	26005
829.273	26050
829.412	26058
829.551	26039
829.69	26157
829.829	26069
829.968	26130
830.107	26065
830.246	26142
830.385	25959
830.524	25951
830.663	25894
830.802	25887
830.941	25780
831.08	25628
831.219	25719
831.357	25780
831.496	25913
831.635	25750
831.774	25506
831.913	25616
832.051	25331
832.19	25491
832.329	25548
832.467	25407
832.606	25278
832.744	25430
832.883	25274
833.022	25377
833.16	25327
833.299	25476
833.437	25434
833.576	25464
833.714	25430
833.852	25537
833.991	25415
834.129	25556
834.267	25396
834.406	25388
834.544	25499
834.682	25400
834.821	25350
834.959	25556
835.097	25278
835.235	25464
835.373	25396
835.511	25343
835.65	25339
835.788	25202
835.926	25282
836.064	25076
836.202	25103
836.34	25247
836.478	25350
836.615	25099
836.753	25175
836.891	25324
837.029	25232
837.167	25183
837.305	25209
837.443	25057
837.58	25095
837.718	25240
837.856	25122
837.993	25080
838.131	24943
838.269	24890
838.406	25019
838.544	24897
838.681	24787
838.819	24783
838.956	24620
839.094	24540
839.231	24669
839.369	24631
839.506	24787
839.643	24719
839.781	24429
839.918	24437
840.055	24395
840.193	24517
840.33	24414
840.467	24574
840.604	24498
840.742	24814
840.879	24319
841.016	24304
841.153	24422
841.29	24467
841.427	24525
841.564	24505
841.701	24407
841.838	24346
841.975	24319
842.112	24330
842.249	24232
842.385	24342
842.522	24460
842.659	24285
842.796	24216
842.933	24106
843.069	24102
843.206	24079
843.343	24334
843.479	24186
843.616	24125
843.752	23901
843.889	23916
844.025	24155
844.162	23961
844.298	24152
844.435	23927
844.571	23882
844.708	24026
844.844	24182
844.98	24091
845.117	23999
845.253	23870
845.389	23836
845.525	23859
845.661	23836
845.798	23649
845.934	23638
846.07	23573
846.206	23722
846.342	23859
846.478	23668
846.614	23440
846.75	23368
846.886	23421
847.022	23455
847.158	23391
847.294	23406
847.429	23212
847.565	23410
847.701	23703
847.837	23216
847.972	23094
848.108	23246
848.244	23223
848.379	23090
848.515	23086
848.65	22927
848.786	22995
848.921	23025
849.057	23109
849.192	23071
849.328	23033
849.463	22942
849.598	22801
849.734	22915
849.869	22816
850.004	22687
850.14	22702
850.275	22835
850.41	22694
850.545	22721
850.68	22691
850.815	22790
850.95	22683
851.085	22820
851.22	22850
851.355	22790
851.49	22725
851.625	22698
851.76	22786
851.895	22691
852.03	22687
852.165	22790
852.299	22873
852.434	22740
852.569	22759
852.703	22736
852.838	22896
852.973	22767
853.107	22771
853.242	22641
853.376	22584
853.511	22455
853.645	22641
853.78	22626
853.914	22573
854.048	22447
854.183	22542
854.317	22596
854.451	22793
854.585	22565
854.72	22672
854.854	22656
854.988	22512
855.122	22527
855.256	22394
855.39	22447
855.524	22580
855.658	22497
855.792	22584
855.926	22584
856.06	22573
856.194	22656
856.327	22497
856.461	22443
856.595	22527
856.729	22531
856.862	22607
856.996	22588
857.13	22641
857.263	22554
857.397	22668
857.53	22622
857.664	22569
857.797	22573
857.931	22702
858.064	22607
858.197	22630
858.331	22561
858.464	22428
858.597	22451
858.731	22599
858.864	22561
858.997	22622
859.13	22679
859.263	22641
859.396	22622
859.529	22394
859.662	22569
859.795	22466
859.928	22519
860.061	22596
860.194	22831
860.327	22634
860.46	22531
860.592	22611
860.725	22656
860.858	22656
860.99	22538
861.123	22508
861.256	22584
861.388	22615
861.521	23261
861.653	22432
861.786	22314
861.918	22394
862.05	22512
862.183	22493
862.315	22447
862.447	22516
862.58	22428
862.712	22280
862.844	22226
862.976	22341
863.108	22284
863.24	22858
863.372	22185
863.504	22280
863.636	22322
863.768	22272
863.9	22230
864.032	22329
864.164	22257
864.296	22318
864.428	22333
864.559	22242
864.691	22238
864.823	22257
864.954	22257
865.086	22246
865.217	22276
865.349	22169
865.48	22181
865.612	22074
865.743	22291
865.875	22150
866.006	22131
866.137	22112
866.269	22067
866.4	22074
866.531	22128
866.662	22078
866.793	22093
866.924	22105
867.055	22120
867.186	21987
867.317	22040
867.448	21987
867.579	22059
867.71	22021
867.841	21975
867.972	22166
868.103	22067
868.233	22067
868.364	22116
868.495	22173
868.625	22295
868.756	22356
868.886	22291
869.017	22417
869.147	22291
869.278	22565
869.408	22306
869.539	22390
869.669	22402
869.799	22455
869.929	22462
870.06	22379
870.19	22618
870.32	22455
870.45	22653
870.58	22569
870.71	22831
870.84	22858
870.97	22733
871.1	22736
871.23	22847
871.36	22889
871.489	22736
871.619	22759
871.749	22847
871.879	22930
872.008	23124
872.138	22999
872.267	22892
872.397	22831
872.526	22637
872.656	22649
872.785	22687
872.915	22915
873.044	23014
873.173	22881
873.303	23044
873.432	22949
873.561	23113
873.69	22869
873.819	22972
873.948	23014
874.077	22904
874.206	22771
874.335	22904
874.464	23094
874.593	23204
874.722	22987
874.851	23162
874.979	23231
875.108	23143
875.237	22995
875.365	23064
875.494	23136
875.623	23189
875.751	23075
875.88	23006
876.008	23083
876.136	23356
876.265	23459
876.393	23634
876.521	23653
876.65	23627
876.778	23520
876.906	23520
877.034	23402
877.162	23547
877.29	23284
877.418	23433
877.546	23372
877.674	23490
877.802	23444
877.93	23524
878.058	23414
878.185	23330
878.313	23341
878.441	23425
878.568	23193
878.696	23459
878.824	23528
878.951	23581
879.079	23661
879.206	23775
879.333	23649
879.461	23474
879.588	23581
879.715	23634
879.842	23729
879.97	23509
880.097	23353
880.224	23322
880.351	23322
880.478	23337
880.605	23258
880.732	23307
880.859	23604
880.986	23311
881.112	23330
881.239	23147
881.366	23044
881.493	22892
881.619	22942
881.746	22980
881.872	22980
881.999	22790
882.125	22713
882.252	22839
882.378	22900
882.505	22934
882.631	22691
882.757	22653
882.883	22546
883.01	22565
883.136	22413
883.262	22375
883.388	22249
883.514	22580
883.64	22535
883.766	22485
883.892	22322
884.018	22440
884.143	22428
884.269	22573
884.395	22169
884.52	22063
884.646	22185
884.772	21918
884.897	22158
885.023	22177
885.148	22226
885.274	22257
885.399	22219
885.524	22059
885.65	22173
885.775	22204
885.9	22082
886.025	22265
886.15	22219
886.275	22090
886.4	22021
886.525	22082
886.65	22090
886.775	22055
886.9	22280
887.025	22348
887.149	22048
887.274	22032
887.399	21918
887.523	21945
887.648	21827
887.773	21831
887.897	22017
888.021	21945
888.146	21873
888.27	21972
888.395	22063
888.519	21956
888.643	21911
888.767	21888
888.891	21842
889.015	21686
889.139	21747
889.263	21660
889.387	21728
889.511	21880
889.635	21774
889.759	21705
889.883	21690
890.006	21812
890.13	21816
890.254	21705
890.377	21709
890.501	21481
890.624	21420
890.748	21355
890.871	21340
890.995	21249
891.118	21150
891.241	21336
891.364	21321
891.488	21279
891.611	21252
891.734	21199
891.857	21336
891.98	21291
892.103	21298
892.226	21214
892.349	21104
892.471	21017
892.594	21157
892.717	21268
892.839	21188
892.962	21150
893.085	21150
893.207	21135
893.33	20994
893.452	21028
893.575	21150
893.697	21039
893.819	21237
893.941	21344
894.064	21230
894.186	21112
894.308	21013
894.43	21127
894.552	21192
894.674	21157
894.796	20967
894.918	21112
895.04	20998
895.161	21249
895.283	21135
895.405	21055
895.526	21218
895.648	21135
895.769	21268
895.891	21192
896.012	21233
896.134	21081
896.255	21055
896.376	21127
896.498	21070
896.619	21230
896.74	21058
896.861	21116
896.982	21317
897.103	21564
897.224	21355
897.345	21207
897.466	21283
897.587	21291
897.708	21344
897.828	21420
897.949	21237
898.07	21138
898.19	21256
898.311	21283
898.431	21344
898.552	21237
898.672	21462
898.792	21439
898.913	21389
899.033	21165
899.153	21176
899.273	20937
899.393	21116
899.513	21058
899.633	21009
899.753	21169
899.873	21043
899.993	21108
900.113	20937
900.232	21001
900.352	21039
900.472	20891
900.591	20743
900.711	20925
900.83	20777
900.95	20918
901.069	20891
901.189	20678
901.308	20465
901.427	20404
901.546	20298
901.665	20355
901.784	20431
901.904	20248
902.023	20187
902.141	20069
902.26	19951
902.379	20020
902.498	19871
902.617	19849
902.735	19928
902.854	19807
902.973	19814
903.091	19674
903.21	19472
903.328	19563
903.446	19411
903.565	19324
903.683	19263
903.801	19312
903.919	19232
904.038	19270
904.156	19088
904.274	19190
904.392	19084
904.51	19091
904.627	19061
904.745	19156
904.863	19103
904.981	18856
905.098	18814
905.216	18837
905.334	18829
905.451	18791
905.569	18726
905.686	18776
905.803	18776
905.921	18563
906.038	18726
906.155	18536
906.272	18456
906.389	18323
906.506	18357
906.623	18418
906.74	18273
906.857	18224
906.974	18243
907.091	18369
907.208	18479
907.324	18308
907.441	18190
907.557	18019
907.674	18045
907.79	17961
907.907	17954
908.023	18038
908.139	17942
908.256	17939
908.372	17931
908.488	17809
908.604	17703
908.72	17684
908.836	17672
908.952	17646
909.068	17722
909.184	17859
909.3	17649
909.415	17710
909.531	17672
909.647	17474
909.762	17421
909.878	17410
909.993	17391
910.108	17368
910.224	17364
910.339	17376
910.454	17231
910.57	17147
910.685	17102
910.8	17376
910.915	17402
911.03	17277
911.145	17071
911.259	16923
911.374	16953
911.489	16915
911.604	16839
911.718	16744
911.833	16687
911.947	16649
912.062	16546
912.176	16767
912.291	16733
912.405	16694
912.519	16881
912.633	16980
912.748	16744
912.862	16687
912.976	16535
913.09	16470
913.204	16542
913.318	16577
913.431	16649
913.545	16618
913.659	16630
913.772	16504
913.886	16333
914	16226
914.113	16409
914.226	16405
914.34	16386
914.453	16166
914.566	16363
914.68	16101
914.793	16242
914.906	15991
915.019	15956
915.132	15964
915.245	15937
915.358	15964
915.47	15838
915.583	15941
915.696	15934
915.809	15998
915.921	16071
916.034	15899
916.146	15804
916.259	15770
916.371	15819
916.483	15850
916.595	15720
916.708	15698
916.82	15747
916.932	15637
917.044	15603
917.156	15641
917.268	15507
917.38	15568
917.491	15511
917.603	15614
917.715	15641
917.826	15603
917.938	15401
918.049	15344
918.161	15450
918.272	15587
918.384	15507
918.495	15469
918.606	15325
918.717	15249
918.828	15279
918.939	15298
919.05	15211
919.161	15260
919.272	15119
919.383	15195
919.494	15294
919.604	15450
919.715	15302
919.826	15154
919.936	15237
920.047	15245
920.157	15272
920.267	15469
920.378	15256
920.488	15119
920.598	15359
920.708	15450
920.818	15367
920.928	15389
921.038	15450
921.148	15439
921.258	15089
921.368	15074
921.477	15036
921.587	14815
921.697	14754
921.806	14944
921.916	14849
922.025	14594
922.134	14533
922.244	14549
922.353	14583
922.462	14374
922.571	14305
922.68	14195
922.789	14168
922.898	14218
923.007	14221
923.116	14202
923.224	14164
923.333	14119
923.442	13974
923.55	14077
923.659	13902
923.767	14119
923.876	13871
923.984	14012
924.092	13898
924.201	14077
924.309	13913
924.417	13898
924.525	13947
924.633	13860
924.741	14804
924.849	13674
924.956	13765
925.064	13601
925.172	13563
925.279	13491
925.387	13525
925.494	13525
925.602	13655
925.709	13567
925.816	13548
925.924	13434
926.031	13567
926.138	13525
926.245	13556
926.352	13441
926.459	13529
926.566	13616
926.673	13491
926.779	13327
926.886	13293
926.993	13156
927.099	13217
927.206	13179
927.312	13012
927.419	13156
927.525	13126
927.631	13088
927.737	12993
927.843	13004
927.95	12901
928.056	12943
928.162	12962
928.267	12958
928.373	13578
928.479	13031
928.585	12806
928.69	12916
928.796	12951
928.901	12810
929.007	12722
929.112	12730
929.218	12802
929.323	12620
929.428	12639
929.533	12665
929.638	12551
929.743	12601
929.848	12601
929.953	12604
930.058	12547
930.163	12281
930.267	12300
930.372	12475
930.477	12232
930.581	12563
930.685	12285
930.79	12205
930.894	12201
930.998	12197
931.103	12266
931.207	11973
931.311	11893
931.415	11703
931.519	11585
931.623	11532
