Data from test_V78500241_3432.txt Node
Date: Fri Mar 25 16:05:34 CST 2022
User: usil
Spectrometer: V785-0024
Trigger mode: 0
Integration Time (sec): 4.000000E-1
Scans to average: 1
Nonlinearity correction enabled: false
Boxcar width: 0
Storing dark spectrum: false
XAxis mode: Wavelengths
Number of Pixels in Spectrum: 1024
>>>>>Begin Spectral Data<<<<<
801.071	28641
801.214	28550
801.356	28542
801.499	28375
801.641	28226
801.783	28234
801.926	28325
802.068	28246
802.211	28128
802.353	28173
802.496	28105
802.638	27937
802.78	27934
802.923	27892
803.065	27785
803.208	27846
803.35	27827
803.492	28078
803.635	28109
803.777	28055
803.919	28166
804.061	28580
804.204	28291
804.346	28029
804.488	28139
804.63	28006
804.773	28181
804.915	28242
805.057	28348
805.199	28188
805.341	28188
805.483	28219
805.626	28147
805.768	28154
805.91	28287
806.052	28329
806.194	28291
806.336	28375
806.478	28329
806.62	28493
806.762	28432
806.904	28580
807.046	28858
807.188	28664
807.33	28660
807.472	28812
807.614	28805
807.756	28820
807.898	28774
808.04	28573
808.182	28561
808.324	28687
808.465	28687
808.607	28824
808.749	29083
808.891	29204
809.033	29261
809.174	29048
809.316	28949
809.458	28923
809.6	29029
809.741	29060
809.883	29193
810.025	29337
810.166	29277
810.308	29433
810.45	29193
810.591	29170
810.733	29010
810.875	29102
811.016	29029
811.158	29006
811.299	29166
811.441	29132
811.582	29071
811.724	29022
811.865	29025
812.007	29132
812.148	29033
812.29	29022
812.431	29292
812.573	29360
812.714	29463
812.855	29497
812.997	29566
813.138	29722
813.279	29642
813.421	29566
813.562	29493
813.703	29375
813.845	29315
813.986	29010
814.127	28847
814.268	28721
814.41	28744
814.551	28793
814.692	28831
814.833	28618
814.974	28656
815.115	28645
815.256	28634
815.397	28592
815.539	28557
815.68	28447
815.821	28546
815.962	28622
816.103	28512
816.244	28424
816.385	28230
816.526	28363
816.666	28097
816.807	27979
816.948	28207
817.089	28101
817.23	28086
817.371	28021
817.512	27945
817.653	28048
817.793	27960
817.934	28086
818.075	28082
818.216	27975
818.356	27926
818.497	27979
818.638	27850
818.778	27766
818.919	27759
819.06	27911
819.2	27987
819.341	28063
819.481	28010
819.622	28246
819.762	28497
819.903	28337
820.043	28303
820.184	28356
820.324	28192
820.465	28200
820.605	28192
820.746	28166
820.886	28158
821.026	28188
821.167	28078
821.307	28204
821.447	28166
821.588	28101
821.728	27743
821.868	27679
822.008	27545
822.149	27542
822.289	27576
822.429	27329
822.569	27077
822.709	27180
822.849	27127
822.99	26956
823.13	27017
823.27	26994
823.41	26883
823.55	26975
823.69	26887
823.83	26933
823.97	26777
824.11	26663
824.25	26632
824.389	26674
824.529	26781
824.669	26765
824.809	26746
824.949	26670
825.089	26906
825.228	26739
825.368	26537
825.508	26571
825.648	26492
825.787	26560
825.927	26587
826.067	26526
826.206	26503
826.346	26636
826.485	26648
826.625	26503
826.765	26800
826.904	26693
827.044	26282
827.183	26282
827.323	26347
827.462	26381
827.601	26225
827.741	26233
827.88	26374
828.02	26176
828.159	26282
828.298	26210
828.437	26199
828.577	26229
828.716	26332
828.855	26065
828.994	25940
829.134	25955
829.273	26005
829.412	25875
829.551	25993
829.69	26005
829.829	25928
829.968	26035
830.107	26027
830.246	26050
830.385	26027
830.524	25883
830.663	25871
830.802	25776
830.941	25590
831.08	25605
831.219	25635
831.357	25761
831.496	25837
831.635	25571
831.774	25537
831.913	25396
832.051	25468
832.19	25369
832.329	25403
832.467	25255
832.606	25118
832.744	25304
832.883	25362
833.022	25209
833.16	25270
833.299	25236
833.437	25183
833.576	25316
833.714	25354
833.852	25358
833.991	25327
834.129	25415
834.267	25301
834.406	25430
834.544	25373
834.682	25285
834.821	25339
834.959	25426
835.097	25209
835.235	25285
835.373	25282
835.511	25293
835.65	25168
835.788	25156
835.926	25076
836.064	24958
836.202	25031
836.34	25213
836.478	25152
836.615	25183
836.753	25236
836.891	25308
837.029	25228
837.167	25126
837.305	25129
837.443	25015
837.58	24901
837.718	24920
837.856	25187
837.993	25012
838.131	24856
838.269	24764
838.406	24894
838.544	24837
838.681	24665
838.819	24654
838.956	24334
839.094	24460
839.231	24395
839.369	24479
839.506	24779
839.643	24646
839.781	24437
839.918	24407
840.055	24471
840.193	24528
840.33	24311
840.467	24433
840.604	24300
840.742	24471
840.879	24258
841.016	24254
841.153	24228
841.29	24330
841.427	24338
841.564	24262
841.701	24407
841.838	24213
841.975	24190
842.112	24311
842.249	24311
842.385	24045
842.522	24327
842.659	24057
842.796	24053
842.933	23992
843.069	23988
843.206	23984
843.343	24178
843.479	24091
843.616	24095
843.752	23942
843.889	23813
844.025	24003
844.162	23798
844.298	24003
844.435	23824
844.571	23908
844.708	23824
844.844	23874
844.98	24030
845.117	24018
845.253	23695
845.389	23741
845.525	23786
845.661	23813
845.798	23668
845.934	23611
846.07	23661
846.206	23608
846.342	23760
846.478	23558
846.614	23337
846.75	23322
846.886	23242
847.022	23379
847.158	23334
847.294	23326
847.429	23395
847.565	23265
847.701	23596
847.837	23079
847.972	22999
848.108	23174
848.244	23128
848.379	23033
848.515	23048
848.65	22850
848.786	22889
848.921	22911
849.057	23102
849.192	22949
849.328	23018
849.463	22797
849.598	22858
849.734	22824
849.869	22748
850.004	22774
850.14	22675
850.275	22675
850.41	22577
850.545	22641
850.68	22687
850.815	22641
850.95	22599
851.085	22797
851.22	22736
851.355	22729
851.49	22637
851.625	22679
851.76	22660
851.895	22519
852.03	22634
852.165	22740
852.299	22679
852.434	22736
852.569	22717
852.703	22675
852.838	22729
852.973	22835
853.107	22729
853.242	22641
853.376	22519
853.511	22447
853.645	22333
853.78	22603
853.914	22611
854.048	22417
854.183	22462
854.317	22569
854.451	22660
854.585	22531
854.72	22504
854.854	22592
854.988	22436
855.122	22443
855.256	22352
855.39	22432
855.524	22561
855.658	22565
855.792	22538
855.926	22493
856.06	22569
856.194	22592
856.327	22516
856.461	22428
856.595	22493
856.729	22379
856.862	22580
856.996	22493
857.13	22523
857.263	22500
857.397	22637
857.53	22413
857.664	22596
857.797	22459
857.931	22580
858.064	22451
858.197	22656
858.331	22527
858.464	22516
858.597	22367
858.731	22443
858.864	22417
858.997	22421
859.13	22470
859.263	22535
859.396	22615
859.529	22512
859.662	22554
859.795	22504
859.928	22675
860.061	22618
860.194	22744
860.327	22531
860.46	22569
860.592	22748
860.725	22672
860.858	22683
860.99	22573
861.123	22333
861.256	22394
861.388	22508
861.521	23254
861.653	22402
861.786	22318
861.918	22379
862.05	22360
862.183	22428
862.315	22504
862.447	22580
862.58	22405
862.712	22143
862.844	22181
862.976	22230
863.108	22185
863.24	22596
863.372	22185
863.504	22219
863.636	22135
863.768	22207
863.9	22173
864.032	22006
864.164	22261
864.296	22238
864.428	22325
864.559	22314
864.691	22246
864.823	22097
864.954	22150
865.086	22036
865.217	22021
865.349	22169
865.48	22025
865.612	22124
865.743	22173
865.875	22154
866.006	22051
866.137	22074
866.269	22082
866.4	22063
866.531	21937
866.662	22006
866.793	21907
866.924	22086
867.055	22036
867.186	22029
867.317	22002
867.448	21945
867.579	21956
867.71	22006
867.841	21972
867.972	21922
868.103	22131
868.233	21998
868.364	21991
868.495	22223
868.625	22284
868.756	22382
868.886	22177
869.017	22405
869.147	22402
869.278	22390
869.408	22272
869.539	22207
869.669	22375
869.799	22166
869.929	22261
870.06	22306
870.19	22592
870.32	22531
870.45	22645
870.58	22706
870.71	22748
870.84	22717
870.97	22664
871.1	22645
871.23	22999
871.36	22911
871.489	22828
871.619	22816
871.749	22892
871.879	22942
872.008	23071
872.138	22824
872.267	22828
872.397	22733
872.526	22702
872.656	22710
872.785	22557
872.915	22923
873.044	22984
873.173	22805
873.303	23003
873.432	22927
873.561	23124
873.69	22965
873.819	22946
873.948	22995
874.077	22919
874.206	22828
874.335	22847
874.464	23037
874.593	23124
874.722	23033
874.851	23159
874.979	23128
875.108	23250
875.237	23124
875.365	22965
875.494	23083
875.623	23117
875.751	23022
875.88	23143
876.008	23292
876.136	23315
876.265	23471
876.393	23623
876.521	23585
876.65	23581
876.778	23680
876.906	23497
877.034	23410
877.162	23516
877.29	23467
877.418	23604
877.546	23551
877.674	23448
877.802	23566
877.93	23429
878.058	23493
878.185	23242
878.313	23406
878.441	23486
878.568	23318
878.696	23326
878.824	23429
878.951	23551
879.079	23592
879.206	23756
879.333	23516
879.461	23623
879.588	23619
879.715	23577
879.842	23699
879.97	23471
880.097	23239
880.224	23330
880.351	23360
880.478	23265
880.605	23254
880.732	23200
880.859	23406
880.986	23345
881.112	23197
881.239	23265
881.366	23064
881.493	22843
881.619	22858
881.746	22946
881.872	22771
881.999	22816
882.125	22729
882.252	22866
882.378	22767
882.505	22908
882.631	22622
882.757	22565
882.883	22542
883.01	22478
883.136	22603
883.262	22409
883.388	22360
883.514	22474
883.64	22519
883.766	22398
883.892	22246
884.018	22344
884.143	22382
884.269	22565
884.395	22325
884.52	21956
884.646	22188
884.772	22101
884.897	22109
885.023	22101
885.148	22287
885.274	22284
885.399	22230
885.524	22139
885.65	22154
885.775	22230
885.9	22093
886.025	22219
886.15	22192
886.275	22078
886.4	21892
886.525	22158
886.65	22150
886.775	21968
886.9	22238
887.025	22382
887.149	21991
887.274	21949
887.399	22036
887.523	21823
887.648	21800
887.773	21819
887.897	22002
888.021	21991
888.146	21694
888.27	21850
888.395	21991
888.519	21850
888.643	21975
888.767	21998
888.891	21736
889.015	21770
889.139	21819
889.263	21698
889.387	21778
889.511	21846
889.635	21800
889.759	21705
889.883	21694
890.006	21751
890.13	21603
890.254	21587
890.377	21492
890.501	21561
890.624	21488
890.748	21625
890.871	21408
890.995	21230
891.118	21218
891.241	21287
891.364	21340
891.488	21458
891.611	21374
891.734	21272
891.857	21294
891.98	21306
892.103	21272
892.226	21260
892.349	21275
892.471	21127
892.594	21039
892.717	21203
892.839	21157
892.962	21154
893.085	21138
893.207	21188
893.33	21036
893.452	21055
893.575	21233
893.697	20990
893.819	21249
893.941	21325
894.064	21150
894.186	21112
894.308	20994
894.43	21203
894.552	21237
894.674	21226
894.796	21066
894.918	21009
895.04	21157
895.161	21237
895.283	21096
895.405	20956
895.526	21165
895.648	20998
895.769	21188
895.891	21154
896.012	21214
896.134	21195
896.255	21123
896.376	21085
896.498	21176
896.619	21272
896.74	21112
896.861	21188
896.982	21519
897.103	21549
897.224	21477
897.345	21367
897.466	21302
897.587	21313
897.708	21561
897.828	21313
897.949	21226
898.07	21207
898.19	21222
898.311	21272
898.431	21268
898.552	21294
898.672	21378
898.792	21340
898.913	21336
899.033	21279
899.153	21112
899.273	20998
899.393	21127
899.513	21138
899.633	21165
899.753	21100
899.873	21009
899.993	21001
900.113	21013
900.232	20895
900.352	20982
900.472	20815
900.591	20883
900.711	20739
900.83	20777
900.95	20845
901.069	20979
901.189	20716
901.308	20423
901.427	20347
901.546	20415
901.665	20328
901.784	20385
901.904	20259
902.023	20202
902.141	20031
902.26	19951
902.379	19944
902.498	19856
902.617	19822
902.735	19913
902.854	19860
902.973	19833
903.091	19491
903.21	19556
903.328	19567
903.446	19419
903.565	19350
903.683	19373
903.801	19232
903.919	19331
904.038	19331
904.156	19126
904.274	19053
904.392	19114
904.51	19114
904.627	19034
904.745	19202
904.863	19198
904.981	18863
905.098	18795
905.216	18810
905.334	18875
905.451	18757
905.569	18703
905.686	18814
905.803	18894
905.921	18532
906.038	18730
906.155	18559
906.272	18464
906.389	18525
906.506	18350
906.623	18239
906.74	18277
906.857	18308
906.974	18186
907.091	18353
907.208	18490
907.324	18342
907.441	18186
907.557	17973
907.674	18015
907.79	17901
907.907	17992
908.023	17931
908.139	18053
908.256	17961
908.372	17885
908.488	17779
908.604	17775
908.72	17722
908.836	17627
908.952	17592
909.068	17783
909.184	17771
909.3	17691
909.415	17710
909.531	17722
909.647	17425
909.762	17395
909.878	17376
909.993	17398
910.108	17337
910.224	17345
910.339	17452
910.454	17250
910.57	17250
910.685	16999
910.8	17425
910.915	17265
911.03	17239
911.145	17052
911.259	16995
911.374	16972
911.489	16991
911.604	17014
911.718	16691
911.833	16721
911.947	16615
912.062	16561
912.176	16725
912.291	16698
912.405	16748
912.519	16839
912.633	16850
912.748	16755
912.862	16774
912.976	16497
913.09	16424
913.204	16527
913.318	16618
913.431	16653
913.545	16569
913.659	16645
913.772	16451
913.886	16390
914	16344
914.113	16360
914.226	16489
914.34	16405
914.453	16337
914.566	16299
914.68	16249
914.793	16234
914.906	15918
915.019	15907
915.132	15857
915.245	15823
915.358	15911
915.47	15861
915.583	15861
915.696	15926
915.809	15998
915.921	15968
916.034	15785
916.146	15827
916.259	15816
916.371	16036
916.483	15819
916.595	15720
916.708	15717
916.82	15705
916.932	15648
917.044	15637
917.156	15599
917.268	15542
917.38	15614
917.491	15580
917.603	15477
917.715	15633
917.826	15564
917.938	15458
918.049	15279
918.161	15473
918.272	15637
918.384	15561
918.495	15397
918.606	15279
918.717	15203
918.828	15264
918.939	15279
919.05	15218
919.161	15313
919.272	15032
919.383	15089
919.494	15302
919.604	15447
919.715	15325
919.826	15009
919.936	15131
920.047	15351
920.157	15302
920.267	15416
920.378	15173
920.488	15203
920.598	15321
920.708	15496
920.818	15298
920.928	15378
921.038	15466
921.148	15428
921.258	15176
921.368	15066
921.477	14986
921.587	14941
921.697	14765
921.806	14929
921.916	14720
922.025	14640
922.134	14492
922.244	14594
922.353	14617
922.462	14454
922.571	14423
922.68	14259
922.789	14161
922.898	14168
923.007	14157
923.116	14195
923.224	14119
923.333	14225
923.442	14039
923.55	14046
923.659	14180
923.767	14107
923.876	13947
923.984	13978
924.092	13883
924.201	13894
924.309	13932
924.417	13925
924.525	13860
924.633	13864
924.741	14743
924.849	13693
924.956	13784
925.064	13685
925.172	13616
925.279	13571
925.387	13582
925.494	13514
925.602	13757
925.709	13548
925.816	13426
925.924	13499
926.031	13537
926.138	13540
926.245	13575
926.352	13415
926.459	13502
926.566	13636
926.673	13335
926.779	13350
926.886	13301
926.993	13194
927.099	13179
927.206	13034
927.312	13084
927.419	13206
927.525	13076
927.631	13194
927.737	13012
927.843	12973
927.95	12973
928.056	12935
928.162	12947
928.267	13042
928.373	13620
928.479	13019
928.585	12772
928.69	12932
928.796	12962
928.901	12719
929.007	12681
929.112	12825
929.218	12772
929.323	12681
929.428	12578
929.533	12829
929.638	12475
929.743	12604
929.848	12753
929.953	12547
930.058	12464
930.163	12228
930.267	12426
930.372	12479
930.477	12319
930.581	12399
930.685	12334
930.79	12194
930.894	12148
930.998	12136
931.103	12281
931.207	11977
931.311	11901
931.415	11809
931.519	11547
931.623	11520
