Data from test_V78500241_1334.txt Node
Date: Fri Mar 25 15:51:02 CST 2022
User: usil
Spectrometer: V785-0024
Trigger mode: 0
Integration Time (sec): 4.000000E-1
Scans to average: 1
Nonlinearity correction enabled: false
Boxcar width: 0
Storing dark spectrum: false
XAxis mode: Wavelengths
Number of Pixels in Spectrum: 1024
>>>>>Begin Spectral Data<<<<<
801.071	27994
801.214	28002
801.356	27827
801.499	27633
801.641	27530
801.783	27485
801.926	27576
802.068	27644
802.211	27344
802.353	27473
802.496	27188
802.638	27230
802.78	27245
802.923	27176
803.065	27142
803.208	27104
803.35	27165
803.492	27275
803.635	27370
803.777	27291
803.919	27348
804.061	27732
804.204	27530
804.346	27260
804.488	27157
804.63	27462
804.773	27264
804.915	27519
805.057	27473
805.199	27443
805.341	27526
805.483	27469
805.626	27591
805.768	27435
805.91	27492
806.052	27622
806.194	27526
806.336	27644
806.478	27568
806.62	27523
806.762	27591
806.904	27888
807.046	28032
807.188	28051
807.33	27960
807.472	28135
807.614	27934
807.756	27880
807.898	27956
808.04	27914
808.182	27827
808.324	27998
808.465	27888
808.607	28120
808.749	28234
808.891	28242
809.033	28421
809.174	28299
809.316	28173
809.458	28268
809.6	28082
809.741	28177
809.883	28481
810.025	28497
810.166	28462
810.308	28428
810.45	28474
810.591	28363
810.733	28147
810.875	28314
811.016	28078
811.158	27960
811.299	28337
811.441	28497
811.582	28329
811.724	28246
811.865	28109
812.007	28147
812.148	28280
812.29	28303
812.431	28211
812.573	28512
812.714	28698
812.855	28645
812.997	28782
813.138	29003
813.279	28881
813.421	28656
813.562	28691
813.703	28538
813.845	28318
813.986	28200
814.127	27899
814.268	27884
814.41	27831
814.551	27869
814.692	27949
814.833	27766
814.974	27861
815.115	27899
815.256	27766
815.397	27743
815.539	27736
815.68	27614
815.821	27656
815.962	27698
816.103	27701
816.244	27587
816.385	27564
816.526	27416
816.666	27275
816.807	27173
816.948	27374
817.089	27367
817.23	27233
817.371	27195
817.512	27260
817.653	27184
817.793	27104
817.934	27192
818.075	27279
818.216	27017
818.356	27192
818.497	27066
818.638	26918
818.778	26906
818.919	26948
819.06	26918
819.2	27017
819.341	27249
819.481	27119
819.622	27348
819.762	27454
819.903	27492
820.043	27454
820.184	27252
820.324	27283
820.465	27351
820.605	27306
820.746	27302
820.886	27188
821.026	27214
821.167	27275
821.307	27291
821.447	27249
821.588	27180
821.728	27024
821.868	26838
822.008	26545
822.149	26609
822.289	26575
822.429	26415
822.569	26351
822.709	26206
822.849	26107
822.99	26278
823.13	26077
823.27	26115
823.41	25932
823.55	25788
823.69	26016
823.83	26065
823.97	25871
824.11	25784
824.25	25871
824.389	25807
824.529	25925
824.669	25776
824.809	25966
824.949	25955
825.089	25989
825.228	25944
825.368	25670
825.508	25624
825.648	25559
825.787	25731
825.927	25769
826.067	25681
826.206	25594
826.346	25742
826.485	25715
826.625	25708
826.765	25757
826.904	25811
827.044	25514
827.183	25472
827.323	25403
827.462	25460
827.601	25377
827.741	25369
827.88	25373
828.02	25297
828.159	25320
828.298	25449
828.437	25430
828.577	25282
828.716	25369
828.855	25316
828.994	25247
829.134	25152
829.273	25190
829.412	25156
829.551	24897
829.69	25076
829.829	24966
829.968	25251
830.107	25110
830.246	25145
830.385	25027
830.524	25110
830.663	24996
830.802	24806
830.941	24741
831.08	24673
831.219	24837
831.357	24669
831.496	24962
831.635	24551
831.774	24544
831.913	24532
832.051	24513
832.19	24578
832.329	24536
832.467	24342
832.606	24361
832.744	24319
832.883	24410
833.022	24273
833.16	24403
833.299	24460
833.437	24384
833.576	24388
833.714	24353
833.852	24429
833.991	24395
834.129	24582
834.267	24536
834.406	24357
834.544	24479
834.682	24391
834.821	24479
834.959	24551
835.097	24247
835.235	24342
835.373	24502
835.511	24464
835.65	24323
835.788	24270
835.926	24095
836.064	23992
836.202	24087
836.34	24224
836.478	24292
836.615	24235
836.753	24243
836.891	24323
837.029	24152
837.167	24296
837.305	24068
837.443	24110
837.58	24133
837.718	24038
837.856	24098
837.993	24030
838.131	24098
838.269	23870
838.406	23942
838.544	23935
838.681	23760
838.819	23760
838.956	23600
839.094	23634
839.231	23623
839.369	23676
839.506	23973
839.643	23771
839.781	23493
839.918	23493
840.055	23539
840.193	23406
840.33	23368
840.467	23463
840.604	23486
840.742	23859
840.879	23356
841.016	23482
841.153	23288
841.29	23577
841.427	23376
841.564	23471
841.701	23531
841.838	23349
841.975	23318
842.112	23273
842.249	23330
842.385	23136
842.522	23315
842.659	23318
842.796	23189
842.933	23337
843.069	23204
843.206	23178
843.343	23250
843.479	23162
843.616	23242
843.752	22961
843.889	23086
844.025	23178
844.162	22991
844.298	22987
844.435	23140
844.571	22904
844.708	23014
844.844	23250
844.98	23083
845.117	23071
845.253	22938
845.389	22892
845.525	22968
845.661	22938
845.798	22683
845.934	22790
846.07	22653
846.206	22793
846.342	22915
846.478	22752
846.614	22557
846.75	22481
846.886	22341
847.022	22523
847.158	22447
847.294	22462
847.429	22508
847.565	22428
847.701	22584
847.837	22063
847.972	22185
848.108	22166
848.244	22192
848.379	22154
848.515	22044
848.65	22051
848.786	22131
848.921	22162
849.057	22078
849.192	22257
849.328	22021
849.463	22078
849.598	21964
849.734	21956
849.869	22002
850.004	21808
850.14	21804
850.275	21873
850.41	21671
850.545	21968
850.68	21816
850.815	21865
850.95	21778
851.085	22010
851.22	21888
851.355	21739
851.49	21656
851.625	21739
851.76	21762
851.895	21656
852.03	21694
852.165	21785
852.299	21857
852.434	21800
852.569	21797
852.703	21739
852.838	21766
852.973	21934
853.107	21956
853.242	21701
853.376	21583
853.511	21603
853.645	21618
853.78	21770
853.914	21583
854.048	21545
854.183	21641
854.317	21606
854.451	21774
854.585	21549
854.72	21667
854.854	21816
854.988	21580
855.122	21675
855.256	21473
855.39	21637
855.524	21698
855.658	21660
855.792	21667
855.926	21629
856.06	21637
856.194	21846
856.327	21580
856.461	21587
856.595	21557
856.729	21530
856.862	21781
856.996	21564
857.13	21629
857.263	21743
857.397	21717
857.53	21652
857.664	21675
857.797	21679
857.931	21827
858.064	21679
858.197	21736
858.331	21694
858.464	21542
858.597	21389
858.731	21519
858.864	21568
858.997	21591
859.13	21595
859.263	21583
859.396	21724
859.529	21557
859.662	21618
859.795	21633
859.928	21652
860.061	21876
860.194	21762
860.327	21587
860.46	21656
860.592	21675
860.725	21778
860.858	21774
860.99	21572
861.123	21492
861.256	21576
861.388	21485
861.521	22363
861.653	21515
861.786	21374
861.918	21477
862.05	21458
862.183	21496
862.315	21568
862.447	21576
862.58	21515
862.712	21325
862.844	21252
862.976	21310
863.108	21302
863.24	21698
863.372	21275
863.504	21332
863.636	21332
863.768	21504
863.9	21264
864.032	21249
864.164	21245
864.296	21256
864.428	21317
864.559	21344
864.691	21370
864.823	21359
864.954	21294
865.086	21321
865.217	21393
865.349	21146
865.48	21192
865.612	21165
865.743	21348
865.875	21367
866.006	21142
866.137	21264
866.269	21218
866.4	21211
866.531	21214
866.662	21013
866.793	21241
866.924	21150
867.055	21123
867.186	21096
867.317	21233
867.448	21157
867.579	21112
867.71	21089
867.841	21085
867.972	21237
868.103	21138
868.233	21245
868.364	21116
868.495	21157
868.625	21424
868.756	21557
868.886	21420
869.017	21393
869.147	21591
869.278	21561
869.408	21389
869.539	21485
869.669	21378
869.799	21454
869.929	21473
870.06	21458
870.19	21599
870.32	21865
870.45	21728
870.58	21945
870.71	21884
870.84	21907
870.97	21743
871.1	21865
871.23	21937
871.36	21991
871.489	21876
871.619	21956
871.749	21987
871.879	22029
872.008	22105
872.138	22021
872.267	21892
872.397	21854
872.526	21797
872.656	21835
872.785	21789
872.915	21956
873.044	22147
873.173	22051
873.303	22078
873.432	21972
873.561	22200
873.69	22010
873.819	22048
873.948	22074
874.077	22025
874.206	22029
874.335	22021
874.464	22192
874.593	22242
874.722	22314
874.851	22192
874.979	22284
875.108	22177
875.237	22226
875.365	22082
875.494	22067
875.623	22337
875.751	22200
875.88	22306
876.008	22246
876.136	22516
876.265	22592
876.393	22675
876.521	22649
876.65	22519
876.778	22694
876.906	22573
877.034	22478
877.162	22615
877.29	22596
877.418	22603
877.546	22637
877.674	22512
877.802	22603
877.93	22599
878.058	22569
878.185	22516
878.313	22527
878.441	22592
878.568	22390
878.696	22618
878.824	22592
878.951	22744
879.079	22763
879.206	22957
879.333	22717
879.461	22679
879.588	22592
879.715	22831
879.842	22900
879.97	22542
880.097	22375
880.224	22455
880.351	22542
880.478	22573
880.605	22295
880.732	22386
880.859	22596
880.986	22462
881.112	22398
881.239	22363
881.366	22173
881.493	22093
881.619	22021
881.746	22078
881.872	22063
881.999	21899
882.125	21861
882.252	22013
882.378	21895
882.505	22120
882.631	21850
882.757	21739
882.883	21800
883.01	21675
883.136	21629
883.262	21462
883.388	21458
883.514	21671
883.64	21576
883.766	21523
883.892	21416
884.018	21401
884.143	21652
884.269	21774
884.395	21351
884.52	21268
884.646	21378
884.772	21325
884.897	21252
885.023	21313
885.148	21348
885.274	21492
885.399	21500
885.524	21332
885.65	21252
885.775	21351
885.9	21389
886.025	21370
886.15	21450
886.275	21222
886.4	21116
886.525	21252
886.65	21230
886.775	21256
886.9	21382
887.025	21488
887.149	21336
887.274	21070
887.399	21123
887.523	21100
887.648	20880
887.773	20979
887.897	21074
888.021	21100
888.146	21043
888.27	21207
888.395	21199
888.519	21077
888.643	21116
888.767	21039
888.891	21028
889.015	20853
889.139	20960
889.263	20883
889.387	20914
889.511	21112
889.635	21009
889.759	20914
889.883	20819
890.006	20807
890.13	20895
890.254	20731
890.377	20792
890.501	20640
890.624	20552
890.748	20724
890.871	20408
890.995	20450
891.118	20465
891.241	20457
891.364	20499
891.488	20484
891.611	20507
891.734	20381
891.857	20598
891.98	20393
892.103	20377
892.226	20404
892.349	20377
892.471	20252
892.594	20358
892.717	20476
892.839	20385
892.962	20366
893.085	20404
893.207	20381
893.33	20233
893.452	20240
893.575	20412
893.697	20362
893.819	20473
893.941	20431
894.064	20393
894.186	20328
894.308	20317
894.43	20374
894.552	20404
894.674	20377
894.796	20229
894.918	20172
895.04	20256
895.161	20366
895.283	20355
895.405	20221
895.526	20298
895.648	20324
895.769	20286
895.891	20324
896.012	20332
896.134	20294
896.255	20419
896.376	20282
896.498	20358
896.619	20362
896.74	20202
896.861	20408
896.982	20667
897.103	20716
897.224	20590
897.345	20495
897.466	20377
897.587	20602
897.708	20667
897.828	20575
897.949	20545
898.07	20374
898.19	20541
898.311	20590
898.431	20533
898.552	20499
898.672	20682
898.792	20629
898.913	20564
899.033	20355
899.153	20366
899.273	20237
899.393	20347
899.513	20408
899.633	20343
899.753	20347
899.873	20267
899.993	20313
900.113	20298
900.232	20317
900.352	20210
900.472	20142
900.591	20054
900.711	20088
900.83	20058
900.95	20218
901.069	20142
901.189	19947
901.308	19776
901.427	19647
901.546	19738
901.665	19666
901.784	19685
901.904	19476
902.023	19499
902.141	19327
902.26	19247
902.379	19274
902.498	19198
902.617	19198
902.735	19206
902.854	19084
902.973	19118
903.091	18878
903.21	18939
903.328	18856
903.446	18829
903.565	18620
903.683	18673
903.801	18574
903.919	18658
904.038	18601
904.156	18403
904.274	18540
904.392	18418
904.51	18483
904.627	18448
904.745	18540
904.863	18426
904.981	18216
905.098	18125
905.216	18079
905.334	18121
905.451	18117
905.569	18064
905.686	18186
905.803	18197
905.921	17901
906.038	18007
906.155	17984
906.272	17927
906.389	17805
906.506	17649
906.623	17596
906.74	17691
906.857	17577
906.974	17547
907.091	17657
907.208	17798
907.324	17710
907.441	17474
907.557	17296
907.674	17364
907.79	17250
907.907	17349
908.023	17414
908.139	17395
908.256	17269
908.372	17200
908.488	17185
908.604	17075
908.72	17090
908.836	17140
908.952	17140
909.068	17132
909.184	17121
909.3	17029
909.415	17113
909.531	17117
909.647	16752
909.762	16771
909.878	16816
909.993	16889
910.108	16793
910.224	16691
910.339	16675
910.454	16641
910.57	16573
910.685	16497
910.8	16786
910.915	16626
911.03	16596
911.145	16382
911.259	16375
911.374	16360
911.489	16329
911.604	16234
911.718	16207
911.833	16154
911.947	16002
912.062	16006
912.176	16158
912.291	16124
912.405	16128
912.519	16337
912.633	16249
912.748	16143
912.862	16055
912.976	15854
913.09	15857
913.204	15956
913.318	15873
913.431	15968
913.545	15937
913.659	16063
913.772	15876
913.886	15797
914	15637
914.113	15743
914.226	15819
914.34	15747
914.453	15644
914.566	15671
914.68	15622
914.793	15561
914.906	15412
915.019	15313
915.132	15237
915.245	15313
915.358	15222
915.47	15298
915.583	15287
915.696	15359
915.809	15389
915.921	15355
916.034	15298
916.146	15207
916.259	15207
916.371	15332
916.483	15287
916.595	15184
916.708	15116
916.82	15207
916.932	15169
917.044	15058
917.156	15108
917.268	15005
917.38	14948
917.491	14963
917.603	15009
917.715	15036
917.826	15062
917.938	14933
918.049	14823
918.161	14872
918.272	15062
918.384	14971
918.495	14925
918.606	14689
918.717	14796
918.828	14746
918.939	14629
919.05	14522
919.161	14693
919.272	14552
919.383	14575
919.494	14720
919.604	14883
919.715	14644
919.826	14579
919.936	14678
920.047	14686
920.157	14712
920.267	14830
920.378	14705
920.488	14602
920.598	14769
920.708	14941
920.818	14845
920.928	14807
921.038	14990
921.148	14864
921.258	14552
921.368	14575
921.477	14499
921.587	14355
921.697	14240
921.806	14336
921.916	14275
922.025	14130
922.134	14077
922.244	13940
922.353	14046
922.462	13959
922.571	13852
922.68	13715
922.789	13636
922.898	13738
923.007	13655
923.116	13776
923.224	13723
923.333	13651
923.442	13533
923.55	13556
923.659	13537
923.767	13685
923.876	13468
923.984	13594
924.092	13510
924.201	13449
924.309	13438
924.417	13438
924.525	13362
924.633	13396
924.741	14210
924.849	13179
924.956	13259
925.064	13095
925.172	12970
925.279	13152
925.387	13156
925.494	13091
925.602	13221
925.709	13217
925.816	13034
925.924	13080
926.031	13168
926.138	13042
926.245	13080
926.352	12981
926.459	12985
926.566	13145
926.673	12985
926.779	12878
926.886	12856
926.993	12688
927.099	12768
927.206	12612
927.312	12597
927.419	12688
927.525	12703
927.631	12715
927.737	12566
927.843	12441
927.95	12388
928.056	12475
928.162	12475
928.267	12585
928.373	13099
928.479	12589
928.585	12315
928.69	12460
928.796	12452
928.901	12380
929.007	12254
929.112	12342
929.218	12327
929.323	12292
929.428	12216
929.533	12350
929.638	12159
929.743	12220
929.848	12220
929.953	12095
930.058	12068
930.163	11973
930.267	11863
930.372	11996
930.477	11878
930.581	11996
930.685	11946
930.79	11733
930.894	11764
930.998	11676
931.103	11866
931.207	11520
931.311	11516
931.415	11379
931.519	11250
931.623	11193
