Data from test_V78500241_906.txt Node
Date: Fri Mar 25 15:48:04 CST 2022
User: usil
Spectrometer: V785-0024
Trigger mode: 0
Integration Time (sec): 4.000000E-1
Scans to average: 1
Nonlinearity correction enabled: false
Boxcar width: 0
Storing dark spectrum: false
XAxis mode: Wavelengths
Number of Pixels in Spectrum: 1024
>>>>>Begin Spectral Data<<<<<
801.071	27975
801.214	27899
801.356	27713
801.499	27603
801.641	27488
801.783	27412
801.926	27580
802.068	27325
802.211	27386
802.353	27412
802.496	27226
802.638	27138
802.78	27005
802.923	26956
803.065	27142
803.208	27051
803.35	27017
803.492	27150
803.635	27245
803.777	27313
803.919	27359
804.061	27561
804.204	27450
804.346	27203
804.488	27100
804.63	27336
804.773	27070
804.915	27249
805.057	27374
805.199	27340
805.341	27393
805.483	27439
805.626	27370
805.768	27363
805.91	27431
806.052	27492
806.194	27466
806.336	27648
806.478	27599
806.62	27370
806.762	27549
806.904	27793
807.046	27911
807.188	27793
807.33	27907
807.472	28086
807.614	27869
807.756	27937
807.898	27766
808.04	27660
808.182	27827
808.324	27762
808.465	27835
808.607	28124
808.749	28059
808.891	28257
809.033	28261
809.174	28150
809.316	28063
809.458	28090
809.6	27960
809.741	28192
809.883	28303
810.025	28455
810.166	28390
810.308	28329
810.45	28284
810.591	28272
810.733	28158
810.875	28086
811.016	28082
811.158	28002
811.299	28280
811.441	28147
811.582	28230
811.724	28055
811.865	27998
812.007	28017
812.148	28074
812.29	28177
812.431	28421
812.573	28485
812.714	28611
812.855	28607
812.997	28805
813.138	28938
813.279	28801
813.421	28634
813.562	28611
813.703	28497
813.845	28421
813.986	28090
814.127	27823
814.268	27751
814.41	27831
814.551	27747
814.692	27823
814.833	27633
814.974	27876
815.115	27854
815.256	27762
815.397	27648
815.539	27519
815.68	27694
815.821	27610
815.962	27652
816.103	27656
816.244	27530
816.385	27355
816.526	27355
816.666	27317
816.807	27001
816.948	27150
817.089	27226
817.23	27024
817.371	27062
817.512	27142
817.653	27043
817.793	27066
817.934	27169
818.075	27184
818.216	27180
818.356	27142
818.497	27047
818.638	26815
818.778	26834
818.919	26815
819.06	26982
819.2	26940
819.341	27176
819.481	27195
819.622	27157
819.762	27382
819.903	27386
820.043	27363
820.184	27233
820.324	27378
820.465	27344
820.605	27245
820.746	27233
820.886	27005
821.026	27306
821.167	26998
821.307	27249
821.447	27085
821.588	26891
821.728	27001
821.868	26648
822.008	26663
822.149	26640
822.289	26514
822.429	26377
822.569	26267
822.709	26195
822.849	26142
822.99	26058
823.13	26172
823.27	26161
823.41	25765
823.55	25795
823.69	25921
823.83	25871
823.97	25902
824.11	25662
824.25	25761
824.389	25734
824.529	25871
824.669	25868
824.809	25849
824.949	25788
825.089	25727
825.228	25845
825.368	25567
825.508	25586
825.648	25662
825.787	25590
825.927	25704
826.067	25616
826.206	25605
826.346	25712
826.485	25510
826.625	25578
826.765	25826
826.904	25548
827.044	25297
827.183	25312
827.323	25236
827.462	25343
827.601	25377
827.741	25304
827.88	25194
828.02	25365
828.159	25377
828.298	25232
828.437	25400
828.577	25251
828.716	25533
828.855	25244
828.994	24947
829.134	25034
829.273	25046
829.412	25027
829.551	25118
829.69	24943
829.829	25031
829.968	25099
830.107	25179
830.246	24966
830.385	24954
830.524	24970
830.663	24875
830.802	24726
830.941	24627
831.08	24582
831.219	24764
831.357	24601
831.496	24798
831.635	24642
831.774	24631
831.913	24395
832.051	24448
832.19	24521
832.329	24391
832.467	24300
832.606	24270
832.744	24277
832.883	24247
833.022	24289
833.16	24266
833.299	24285
833.437	24281
833.576	24308
833.714	24323
833.852	24330
833.991	24285
834.129	24494
834.267	24403
834.406	24342
834.544	24395
834.682	24464
834.821	24414
834.959	24654
835.097	24239
835.235	24445
835.373	24319
835.511	24285
835.65	24186
835.788	24178
835.926	24087
836.064	24072
836.202	24114
836.34	24277
836.478	24232
836.615	24121
836.753	24072
836.891	24197
837.029	24140
837.167	23999
837.305	24136
837.443	24038
837.58	24011
837.718	24117
837.856	24057
837.993	23984
838.131	24038
838.269	23771
838.406	23992
838.544	23798
838.681	23672
838.819	23737
838.956	23482
839.094	23528
839.231	23474
839.369	23577
839.506	23840
839.643	23726
839.781	23570
839.918	23459
840.055	23562
840.193	23353
840.33	23486
840.467	23452
840.604	23448
840.742	23642
840.879	23284
841.016	23261
841.153	23299
841.29	23429
841.427	23474
841.564	23436
841.701	23414
841.838	23402
841.975	23288
842.112	23356
842.249	23280
842.385	23132
842.522	23402
842.659	23200
842.796	23044
842.933	23185
843.069	23056
843.206	23037
843.343	23216
843.479	23216
843.616	23121
843.752	22915
843.889	22934
844.025	23010
844.162	22873
844.298	23083
844.435	22900
844.571	22942
844.708	22866
844.844	23132
844.98	23102
845.117	23029
845.253	22706
845.389	22683
845.525	22831
845.661	22847
845.798	22641
845.934	22843
846.07	22550
846.206	22641
846.342	22790
846.478	22538
846.614	22424
846.75	22287
846.886	22348
847.022	22470
847.158	22561
847.294	22375
847.429	22459
847.565	22432
847.701	22599
847.837	22036
847.972	21945
848.108	22234
848.244	22303
848.379	21945
848.515	21926
848.65	21930
848.786	21922
848.921	22006
849.057	22082
849.192	22029
849.328	22029
849.463	21964
849.598	21987
849.734	21827
849.869	21899
850.004	21713
850.14	21823
850.275	21865
850.41	21728
850.545	21717
850.68	21755
850.815	21755
850.95	21793
851.085	21960
851.22	21778
851.355	21770
851.49	21789
851.625	21876
851.76	21644
851.895	21587
852.03	21625
852.165	21823
852.299	21804
852.434	21766
852.569	21667
852.703	21823
852.838	21827
852.973	21911
853.107	21873
853.242	21701
853.376	21751
853.511	21450
853.645	21481
853.78	21736
853.914	21485
854.048	21564
854.183	21504
854.317	21519
854.451	21838
854.585	21526
854.72	21534
854.854	21603
854.988	21458
855.122	21591
855.256	21431
855.39	21511
855.524	21606
855.658	21572
855.792	21500
855.926	21641
856.06	21671
856.194	21679
856.327	21488
856.461	21557
856.595	21553
856.729	21473
856.862	21739
856.996	21443
857.13	21538
857.263	21591
857.397	21656
857.53	21568
857.664	21663
857.797	21557
857.931	21633
858.064	21679
858.197	21739
858.331	21481
858.464	21473
858.597	21530
858.731	21576
858.864	21485
858.997	21530
859.13	21504
859.263	21534
859.396	21686
859.529	21545
859.662	21542
859.795	21507
859.928	21526
860.061	21770
860.194	21774
860.327	21561
860.46	21557
860.592	21599
860.725	21625
860.858	21614
860.99	21583
861.123	21408
861.256	21473
861.388	21553
861.521	22207
861.653	21439
861.786	21256
861.918	21408
862.05	21458
862.183	21485
862.315	21469
862.447	21568
862.58	21530
862.712	21306
862.844	21211
862.976	21302
863.108	21382
863.24	21705
863.372	21241
863.504	21272
863.636	21252
863.768	21374
863.9	21249
864.032	21154
864.164	21222
864.296	21310
864.428	21355
864.559	21298
864.691	21275
864.823	21340
864.954	21294
865.086	21207
865.217	21093
865.349	21135
865.48	21119
865.612	21176
865.743	21367
865.875	21188
866.006	21241
866.137	21146
866.269	21131
866.4	21055
866.531	21138
866.662	21108
866.793	21028
866.924	21024
867.055	21146
867.186	21150
867.317	21089
867.448	21024
867.579	21074
867.71	20956
867.841	20990
867.972	21146
868.103	21180
868.233	21036
868.364	21108
868.495	21104
868.625	21367
868.756	21397
868.886	21268
869.017	21264
869.147	21549
869.278	21519
869.408	21378
869.539	21348
869.669	21507
869.799	21507
869.929	21485
870.06	21378
870.19	21614
870.32	21652
870.45	21720
870.58	21770
870.71	21823
870.84	21762
870.97	21671
871.1	21713
871.23	21941
871.36	21899
871.489	21812
871.619	21903
871.749	21915
871.879	22006
872.008	21968
872.138	22025
872.267	21869
872.397	21770
872.526	21728
872.656	21762
872.785	21720
872.915	21987
873.044	22143
873.173	21930
873.303	22025
873.432	22086
873.561	22093
873.69	22013
873.819	21812
873.948	22002
874.077	21994
874.206	21762
874.335	21930
874.464	22006
874.593	22325
874.722	22150
874.851	22219
874.979	22306
875.108	22268
875.237	22128
875.365	22002
875.494	22177
875.623	22276
875.751	22185
875.88	22154
876.008	22318
876.136	22310
876.265	22542
876.393	22698
876.521	22615
876.65	22668
876.778	22607
876.906	22755
877.034	22611
877.162	22535
877.29	22451
877.418	22687
877.546	22546
877.674	22436
877.802	22489
877.93	22519
878.058	22443
878.185	22299
878.313	22508
878.441	22584
878.568	22375
878.696	22413
878.824	22607
878.951	22626
879.079	22740
879.206	22919
879.333	22691
879.461	22516
879.588	22683
879.715	22675
879.842	22908
879.97	22641
880.097	22360
880.224	22272
880.351	22459
880.478	22451
880.605	22310
880.732	22375
880.859	22664
880.986	22447
881.112	22379
881.239	22295
881.366	22090
881.493	21994
881.619	21934
881.746	21918
881.872	21922
881.999	21797
882.125	21998
882.252	22010
882.378	21873
882.505	21911
882.631	21892
882.757	21599
882.883	21747
883.01	21534
883.136	21618
883.262	21504
883.388	21351
883.514	21606
883.64	21656
883.766	21648
883.892	21523
884.018	21412
884.143	21576
884.269	21648
884.395	21382
884.52	21241
884.646	21226
884.772	21218
884.897	21214
885.023	21283
885.148	21176
885.274	21348
885.399	21488
885.524	21173
885.65	21340
885.775	21256
885.9	21123
886.025	21374
886.15	21412
886.275	21283
886.4	21222
886.525	21291
886.65	21291
886.775	21230
886.9	21370
887.025	21435
887.149	21348
887.274	20990
887.399	21062
887.523	21036
887.648	20971
887.773	20929
887.897	21051
888.021	21070
888.146	21020
888.27	21146
888.395	21066
888.519	21070
888.643	21032
888.767	21032
888.891	20921
889.015	20758
889.139	20853
889.263	20796
889.387	20979
889.511	21024
889.635	20861
889.759	20769
889.883	20773
890.006	20743
890.13	20929
890.254	20811
890.377	20754
890.501	20564
890.624	20590
890.748	20552
890.871	20484
890.995	20434
891.118	20278
891.241	20389
891.364	20355
891.488	20446
891.611	20381
891.734	20248
891.857	20537
891.98	20408
892.103	20412
892.226	20385
892.349	20309
892.471	20157
892.594	20309
892.717	20362
892.839	20157
892.962	20286
893.085	20358
893.207	20343
893.33	20161
893.452	20202
893.575	20263
893.697	20256
893.819	20404
893.941	20526
894.064	20427
894.186	20233
894.308	20149
894.43	20355
894.552	20461
894.674	20298
894.796	20248
894.918	20225
895.04	20298
895.161	20290
895.283	20195
895.405	20168
895.526	20294
895.648	20202
895.769	20358
895.891	20385
896.012	20396
896.134	20317
896.255	20237
896.376	20191
896.498	20267
896.619	20218
896.74	20278
896.861	20343
896.982	20522
897.103	20712
897.224	20564
897.345	20545
897.466	20473
897.587	20492
897.708	20636
897.828	20507
897.949	20393
898.07	20366
898.19	20385
898.311	20598
898.431	20396
898.552	20541
898.672	20583
898.792	20556
898.913	20541
899.033	20461
899.153	20256
899.273	20225
899.393	20305
899.513	20248
899.633	20225
899.753	20252
899.873	20183
899.993	20214
900.113	20199
900.232	20187
900.352	19989
900.472	20039
900.591	20039
900.711	20096
900.83	19986
900.95	20183
901.069	20084
901.189	19940
901.308	19734
901.427	19670
901.546	19559
901.665	19567
901.784	19529
901.904	19476
902.023	19251
902.141	19274
902.26	19031
902.379	19179
902.498	19152
902.617	19015
902.735	19190
902.854	19160
902.973	18958
903.091	18840
903.21	18814
903.328	18806
903.446	18673
903.565	18665
903.683	18601
903.801	18395
903.919	18570
904.038	18566
904.156	18418
904.274	18464
904.392	18471
904.51	18338
904.627	18266
904.745	18448
904.863	18441
904.981	18251
905.098	18076
905.216	18057
905.334	18022
905.451	18083
905.569	17912
905.686	18076
905.803	18087
905.921	17821
906.038	17828
906.155	17874
906.272	17748
906.389	17722
906.506	17646
906.623	17512
906.74	17497
906.857	17471
906.974	17482
907.091	17600
907.208	17737
907.324	17566
907.441	17402
907.557	17303
907.674	17296
907.79	17208
907.907	17181
908.023	17261
908.139	17307
908.256	17208
908.372	17280
908.488	17208
908.604	16995
908.72	17052
908.836	17086
908.952	17033
909.068	16934
909.184	17052
909.3	16972
909.415	17052
909.531	16930
909.647	16706
909.762	16755
909.878	16733
909.993	16744
910.108	16694
910.224	16653
910.339	16649
910.454	16698
910.57	16500
910.685	16478
910.8	16672
910.915	16645
911.03	16447
911.145	16390
911.259	16333
911.374	16284
911.489	16177
911.604	16116
911.718	16059
911.833	16021
911.947	15991
912.062	15743
912.176	16017
912.291	16093
912.405	16048
912.519	16329
912.633	16284
912.748	16150
912.862	15983
912.976	15823
913.09	15675
913.204	15888
913.318	15880
913.431	15846
913.545	15895
913.659	15831
913.772	15838
913.886	15648
914	15618
914.113	15656
914.226	15564
914.34	15709
914.453	15534
914.566	15720
914.68	15553
914.793	15466
914.906	15298
915.019	15150
915.132	15157
915.245	15184
915.358	15340
915.47	15264
915.583	15237
915.696	15245
915.809	15355
915.921	15378
916.034	15142
916.146	15135
916.259	15188
916.371	15203
916.483	15135
916.595	15081
916.708	15077
916.82	14963
916.932	15051
917.044	14971
917.156	15028
917.268	14986
917.38	14853
917.491	14876
917.603	14899
917.715	15001
917.826	14975
917.938	14925
918.049	14762
918.161	14872
918.272	15005
918.384	15047
918.495	14792
918.606	14640
918.717	14613
918.828	14663
918.939	14674
919.05	14549
919.161	14598
919.272	14476
919.383	14484
919.494	14686
919.604	14861
919.715	14587
919.826	14552
919.936	14583
920.047	14708
920.157	14644
920.267	14857
920.378	14594
920.488	14663
920.598	14762
920.708	14807
920.818	14819
920.928	14765
921.038	14891
921.148	14891
921.258	14575
921.368	14469
921.477	14324
921.587	14336
921.697	14191
921.806	14358
921.916	14180
922.025	14058
922.134	14107
922.244	13940
922.353	14062
922.462	13837
922.571	13761
922.68	13666
922.789	13601
922.898	13632
923.007	13548
923.116	13624
923.224	13639
923.333	13525
923.442	13548
923.55	13510
923.659	13548
923.767	13563
923.876	13346
923.984	13422
924.092	13346
924.201	13464
924.309	13350
924.417	13346
924.525	13289
924.633	13358
924.741	14130
924.849	13145
924.956	13145
925.064	13099
925.172	13000
925.279	12977
925.387	13015
925.494	13088
925.602	13168
925.709	13080
925.816	12954
925.924	13050
926.031	13053
926.138	13076
926.245	13069
926.352	12852
926.459	13012
926.566	13023
926.673	12939
926.779	12787
926.886	12772
926.993	12574
927.099	12669
927.206	12608
927.312	12502
927.419	12623
927.525	12604
927.631	12616
927.737	12582
927.843	12464
927.95	12346
928.056	12456
928.162	12369
928.267	12407
928.373	12996
928.479	12551
928.585	12254
928.69	12384
928.796	12388
928.901	12262
929.007	12114
929.112	12296
929.218	12228
929.323	12266
929.428	12190
929.533	12270
929.638	12114
929.743	12076
929.848	12167
929.953	12083
930.058	12045
930.163	11840
930.267	11870
930.372	11992
930.477	11779
930.581	12049
930.685	11885
930.79	11703
930.894	11794
930.998	11653
931.103	11836
931.207	11497
931.311	11421
931.415	11345
931.519	11204
931.623	11052
