Data from test_V78500241_172.txt Node
Date: Fri Mar 25 15:42:59 CST 2022
User: usil
Spectrometer: V785-0024
Trigger mode: 0
Integration Time (sec): 4.000000E-1
Scans to average: 1
Nonlinearity correction enabled: false
Boxcar width: 0
Storing dark spectrum: false
XAxis mode: Wavelengths
Number of Pixels in Spectrum: 1024
>>>>>Begin Spectral Data<<<<<
801.071	29406
801.214	29356
801.356	29037
801.499	29003
801.641	28797
801.783	28824
801.926	29003
802.068	28957
802.211	28843
802.353	28706
802.496	28675
802.638	28512
802.78	28504
802.923	28409
803.065	28371
803.208	28489
803.35	28462
803.492	28538
803.635	28596
803.777	28443
803.919	28554
804.061	28873
804.204	28782
804.346	28557
804.488	28580
804.63	28630
804.773	28405
804.915	28596
805.057	28763
805.199	28436
805.341	28672
805.483	28664
805.626	28904
805.768	28656
805.91	28637
806.052	28710
806.194	28569
806.336	28930
806.478	28660
806.62	28710
806.762	28900
806.904	29124
807.046	29090
807.188	29018
807.33	28987
807.472	29086
807.614	28854
807.756	28946
807.898	28896
808.04	28930
808.182	28881
808.324	28923
808.465	28953
808.607	28999
808.749	29311
808.891	29223
809.033	29429
809.174	29269
809.316	29197
809.458	29098
809.6	29208
809.741	29235
809.883	29402
810.025	29520
810.166	29512
810.308	29501
810.45	29471
810.591	29337
810.733	29109
810.875	29227
811.016	29117
811.158	29299
811.299	29322
811.441	29284
811.582	29277
811.724	29250
811.865	29181
812.007	29155
812.148	29102
812.29	29151
812.431	29395
812.573	29444
812.714	29554
812.855	29642
812.997	29786
813.138	29802
813.279	29684
813.421	29786
813.562	29566
813.703	29554
813.845	29414
813.986	29048
814.127	29025
814.268	28938
814.41	28828
814.551	28904
814.692	28858
814.833	28630
814.974	28790
815.115	28710
815.256	28687
815.397	28637
815.539	28634
815.68	28538
815.821	28580
815.962	28607
816.103	28535
816.244	28352
816.385	28344
816.526	28219
816.666	28051
816.807	28040
816.948	28124
817.089	28074
817.23	28002
817.371	27983
817.512	28051
817.653	28002
817.793	27945
817.934	27846
818.075	27937
818.216	27903
818.356	27934
818.497	27759
818.638	27614
818.778	27739
818.919	27614
819.06	27667
819.2	27831
819.341	27819
819.481	27884
819.622	27922
819.762	28242
819.903	28021
820.043	27983
820.184	27949
820.324	28002
820.465	27956
820.605	28051
820.746	27972
820.886	27819
821.026	27873
821.167	27838
821.307	27884
821.447	27869
821.588	27682
821.728	27564
821.868	27519
822.008	27386
822.149	27207
822.289	27176
822.429	26940
822.569	26979
822.709	26956
822.849	26906
822.99	26944
823.13	26670
823.27	26495
823.41	26503
823.55	26499
823.69	26625
823.83	26518
823.97	26476
824.11	26305
824.25	26339
824.389	26427
824.529	26438
824.669	26244
824.809	26415
824.949	26469
825.089	26423
825.228	26309
825.368	26244
825.508	26088
825.648	26142
825.787	26161
825.927	26199
826.067	26088
826.206	26191
826.346	26240
826.485	26202
826.625	25966
826.765	26294
826.904	26195
827.044	25940
827.183	25887
827.323	25738
827.462	25837
827.601	25902
827.741	25936
827.88	25803
828.02	25708
828.159	25845
828.298	25765
828.437	25803
828.577	25704
828.716	25765
828.855	25734
828.994	25514
829.134	25518
829.273	25521
829.412	25354
829.551	25441
829.69	25518
829.829	25476
829.968	25499
830.107	25506
830.246	25639
830.385	25377
830.524	25381
830.663	25293
830.802	25228
830.941	24943
831.08	25057
831.219	25088
831.357	25160
831.496	25266
831.635	25042
831.774	24992
831.913	24848
832.051	24810
832.19	24722
832.329	24856
832.467	24700
832.606	24673
832.744	24753
832.883	24650
833.022	24559
833.16	24608
833.299	24684
833.437	24673
833.576	24719
833.714	24722
833.852	24920
833.991	24715
834.129	24783
834.267	24722
834.406	24681
834.544	24696
834.682	24604
834.821	24681
834.959	24795
835.097	24536
835.235	24741
835.373	24597
835.511	24547
835.65	24502
835.788	24555
835.926	24395
836.064	24292
836.202	24228
836.34	24563
836.478	24570
836.615	24452
836.753	24330
836.891	24703
837.029	24445
837.167	24365
837.305	24429
837.443	24365
837.58	24220
837.718	24353
837.856	24365
837.993	24201
838.131	24346
838.269	24213
838.406	24235
838.544	24133
838.681	23935
838.819	23882
838.956	23832
839.094	23836
839.231	23836
839.369	23916
839.506	24114
839.643	23969
839.781	23752
839.918	23668
840.055	23539
840.193	23657
840.33	23604
840.467	23562
840.604	23687
840.742	23931
840.879	23486
841.016	23535
841.153	23444
841.29	23627
841.427	23512
841.564	23619
841.701	23676
841.838	23573
841.975	23528
842.112	23471
842.249	23322
842.385	23364
842.522	23642
842.659	23307
842.796	23322
842.933	23265
843.069	23227
843.206	23208
843.343	23197
843.479	23216
843.616	23235
843.752	23086
843.889	23029
844.025	23220
844.162	22968
844.298	23132
844.435	22961
844.571	22965
844.708	23162
844.844	23121
844.98	23105
845.117	23136
845.253	22904
845.389	22839
845.525	22877
845.661	22805
845.798	22702
845.934	22664
846.07	22733
846.206	22877
846.342	22801
846.478	22755
846.614	22523
846.75	22508
846.886	22466
847.022	22588
847.158	22459
847.294	22493
847.429	22546
847.565	22443
847.701	22660
847.837	22207
847.972	22059
848.108	22287
848.244	22280
848.379	22112
848.515	21956
848.65	22025
848.786	21960
848.921	22074
849.057	22177
849.192	22078
849.328	22032
849.463	21987
849.598	22044
849.734	21854
849.869	21869
850.004	21861
850.14	21835
850.275	21701
850.41	21652
850.545	21641
850.68	21736
850.815	21759
850.95	21652
851.085	21861
851.22	21804
851.355	21709
851.49	21701
851.625	21610
851.76	21747
851.895	21633
852.03	21660
852.165	21728
852.299	21625
852.434	21648
852.569	21637
852.703	21667
852.838	21781
852.973	21808
853.107	21816
853.242	21675
853.376	21553
853.511	21378
853.645	21416
853.78	21587
853.914	21500
854.048	21500
854.183	21504
854.317	21469
854.451	21671
854.585	21511
854.72	21587
854.854	21622
854.988	21405
855.122	21447
855.256	21450
855.39	21447
855.524	21603
855.658	21580
855.792	21576
855.926	21549
856.06	21538
856.194	21519
856.327	21408
856.461	21424
856.595	21492
856.729	21443
856.862	21629
856.996	21450
857.13	21576
857.263	21728
857.397	21473
857.53	21469
857.664	21534
857.797	21610
857.931	21523
858.064	21553
858.197	21614
858.331	21431
858.464	21408
858.597	21408
858.731	21378
858.864	21401
858.997	21477
859.13	21397
859.263	21443
859.396	21580
859.529	21370
859.662	21332
859.795	21382
859.928	21439
860.061	21576
860.194	21679
860.327	21424
860.46	21336
860.592	21530
860.725	21606
860.858	21462
860.99	21386
861.123	21317
861.256	21386
861.388	21416
861.521	22055
861.653	21214
861.786	21195
861.918	21329
862.05	21355
862.183	21424
862.315	21443
862.447	21553
862.58	21428
862.712	21203
862.844	21226
862.976	21325
863.108	21199
863.24	21523
863.372	21036
863.504	21165
863.636	21066
863.768	21161
863.9	21138
864.032	20990
864.164	21127
864.296	21127
864.428	21256
864.559	21188
864.691	21237
864.823	21173
864.954	21089
865.086	21036
865.217	21062
865.349	20994
865.48	21058
865.612	20994
865.743	21009
865.875	21070
866.006	21051
866.137	21039
866.269	20975
866.4	20975
866.531	21096
866.662	20914
866.793	20941
866.924	20899
867.055	20944
867.186	21017
867.317	20895
867.448	20834
867.579	20941
867.71	20883
867.841	20880
867.972	20967
868.103	20975
868.233	20899
868.364	20902
868.495	20994
868.625	21199
868.756	21302
868.886	21089
869.017	21085
869.147	21355
869.278	21317
869.408	21180
869.539	21108
869.669	21230
869.799	21268
869.929	21279
870.06	21302
870.19	21481
870.32	21492
870.45	21447
870.58	21644
870.71	21713
870.84	21610
870.97	21557
871.1	21591
871.23	21812
871.36	21682
871.489	21580
871.619	21808
871.749	21781
871.879	21762
872.008	21808
872.138	21713
872.267	21781
872.397	21701
872.526	21568
872.656	21561
872.785	21675
872.915	21842
873.044	21945
873.173	21781
873.303	21762
873.432	21930
873.561	21903
873.69	21854
873.819	21652
873.948	21774
874.077	21876
874.206	21747
874.335	21785
874.464	21903
874.593	22044
874.722	22010
874.851	22116
874.979	22120
875.108	22150
875.237	21949
875.365	21956
875.494	21945
875.623	22097
875.751	21968
875.88	22013
876.008	22067
876.136	22230
876.265	22371
876.393	22577
876.521	22519
876.65	22497
876.778	22367
876.906	22402
877.034	22375
877.162	22478
877.29	22310
877.418	22276
877.546	22344
877.674	22367
877.802	22436
877.93	22325
878.058	22280
878.185	22219
878.313	22329
878.441	22394
878.568	22261
878.696	22367
878.824	22443
878.951	22405
879.079	22508
879.206	22687
879.333	22538
879.461	22356
879.588	22402
879.715	22542
879.842	22660
879.97	22394
880.097	22265
880.224	22226
880.351	22150
880.478	22211
880.605	22131
880.732	22181
880.859	22462
880.986	22169
881.112	22204
881.239	22090
881.366	21846
881.493	21808
881.619	21739
881.746	21819
881.872	21789
881.999	21724
882.125	21774
882.252	21755
882.378	21766
882.505	21907
882.631	21701
882.757	21549
882.883	21698
883.01	21603
883.136	21534
883.262	21317
883.388	21325
883.514	21386
883.64	21462
883.766	21302
883.892	21214
884.018	21332
884.143	21545
884.269	21561
884.395	21173
884.52	21154
884.646	21157
884.772	20986
884.897	21017
885.023	21165
885.148	21268
885.274	21218
885.399	21146
885.524	21241
885.65	21039
885.775	21093
885.9	21138
886.025	21260
886.15	21112
886.275	20975
886.4	20982
886.525	21020
886.65	21055
886.775	21036
886.9	21237
887.025	21245
887.149	21017
887.274	20941
887.399	20849
887.523	20914
887.648	20796
887.773	20815
887.897	20986
888.021	20906
888.146	20716
888.27	20967
888.395	20902
888.519	20914
888.643	20777
888.767	20796
888.891	20864
889.015	20587
889.139	20735
889.263	20670
889.387	20796
889.511	20701
889.635	20682
889.759	20606
889.883	20716
890.006	20632
890.13	20792
890.254	20537
890.377	20488
890.501	20434
890.624	20427
890.748	20351
890.871	20271
890.995	20164
891.118	20157
891.241	20206
891.364	20237
891.488	20324
891.611	20259
891.734	20240
891.857	20244
891.98	20271
892.103	20218
892.226	20240
892.349	20119
892.471	20119
892.594	20062
892.717	20103
892.839	20119
892.962	20050
893.085	20142
893.207	20103
893.33	20024
893.452	20069
893.575	20096
893.697	20149
893.819	20332
893.941	20298
894.064	20153
894.186	20050
894.308	20050
894.43	20168
894.552	20202
894.674	20176
894.796	20054
894.918	20115
895.04	20183
895.161	20263
895.283	20081
895.405	20096
895.526	20149
895.648	20199
895.769	20168
895.891	20176
896.012	20355
896.134	20176
896.255	20286
896.376	20168
896.498	20096
896.619	20145
896.74	20145
896.861	20206
896.982	20556
897.103	20777
897.224	20545
897.345	20465
897.466	20336
897.587	20438
897.708	20613
897.828	20358
897.949	20385
898.07	20126
898.19	20267
898.311	20374
898.431	20301
898.552	20423
898.672	20427
898.792	20400
898.913	20301
899.033	20206
899.153	20183
899.273	19982
899.393	20107
899.513	20084
899.633	20031
899.753	20122
899.873	19959
899.993	20020
900.113	19947
900.232	20050
900.352	19967
900.472	19936
900.591	19772
900.711	19852
900.83	19723
900.95	19879
901.069	20058
901.189	19757
901.308	19544
901.427	19354
901.546	19445
901.665	19552
901.784	19457
901.904	19278
902.023	19107
902.141	19034
902.26	18989
902.379	19008
902.498	18920
902.617	18970
902.735	18985
902.854	18867
902.973	18757
903.091	18570
903.21	18646
903.328	18574
903.446	18410
903.565	18441
903.683	18296
903.801	18369
903.919	18327
904.038	18353
904.156	18232
904.274	18155
904.392	18057
904.51	18045
904.627	18129
904.745	18125
904.863	18281
904.981	17912
905.098	17885
905.216	17764
905.334	17889
905.451	17786
905.569	17691
905.686	17790
905.803	17866
905.921	17566
906.038	17638
906.155	17684
906.272	17417
906.389	17501
906.506	17326
906.623	17402
906.74	17417
906.857	17273
906.974	17174
907.091	17383
907.208	17406
907.324	17395
907.441	17242
907.557	17102
907.674	17064
907.79	16984
907.907	16946
908.023	17117
908.139	16949
908.256	16881
908.372	16778
908.488	16862
908.604	16729
908.72	16694
908.836	16763
908.952	16675
909.068	16660
909.184	16763
909.3	16752
909.415	16664
909.531	16717
909.647	16489
909.762	16424
909.878	16333
909.993	16398
910.108	16337
910.224	16363
910.339	16352
910.454	16284
910.57	16276
910.685	16135
910.8	16398
910.915	16318
911.03	16185
911.145	15972
911.259	15945
911.374	16036
911.489	15884
911.604	15819
911.718	15766
911.833	15660
911.947	15694
912.062	15644
912.176	15694
912.291	15728
912.405	15739
912.519	15888
912.633	15831
912.748	15755
912.862	15682
912.976	15488
913.09	15416
913.204	15477
913.318	15526
913.431	15553
913.545	15606
913.659	15587
913.772	15435
913.886	15382
914	15332
914.113	15405
914.226	15382
914.34	15359
914.453	15283
914.566	15313
914.68	15195
914.793	15192
914.906	15001
915.019	14918
915.132	14921
915.245	14861
915.358	14986
915.47	14994
915.583	15036
915.696	14899
915.809	15005
915.921	14967
916.034	14891
916.146	14834
916.259	14891
916.371	14914
916.483	14933
916.595	14895
916.708	14739
916.82	14796
916.932	14716
917.044	14651
917.156	14632
917.268	14541
917.38	14552
917.491	14610
917.603	14564
917.715	14560
917.826	14560
917.938	14590
918.049	14442
918.161	14598
918.272	14720
918.384	14644
918.495	14636
918.606	14495
918.717	14347
918.828	14377
918.939	14370
919.05	14233
919.161	14290
919.272	14031
919.383	14202
919.494	14389
919.604	14556
919.715	14275
919.826	14180
919.936	14305
920.047	14366
920.157	14381
920.267	14446
920.378	14328
920.488	14320
920.598	14396
920.708	14590
920.818	14377
920.928	14442
921.038	14518
921.148	14476
921.258	14225
921.368	14103
921.477	13989
921.587	13970
921.697	13978
921.806	13989
921.916	13883
922.025	13753
922.134	13613
922.244	13540
922.353	13769
922.462	13518
922.571	13529
922.68	13369
922.789	13247
922.898	13232
923.007	13316
923.116	13282
923.224	13297
923.333	13206
923.442	13194
923.55	13061
923.659	13091
923.767	13206
923.876	13076
923.984	13145
924.092	13065
924.201	13114
924.309	13061
924.417	13126
924.525	13023
924.633	12947
924.741	13765
924.849	12753
924.956	12863
925.064	12795
925.172	12654
925.279	12654
925.387	12734
925.494	12681
925.602	12856
925.709	12768
925.816	12601
925.924	12711
926.031	12764
926.138	12639
926.245	12734
926.352	12517
926.459	12646
926.566	12734
926.673	12677
926.779	12509
926.886	12460
926.993	12353
927.099	12232
927.206	12273
927.312	12155
927.419	12319
927.525	12277
927.631	12311
927.737	12152
927.843	12155
927.95	12079
928.056	12057
928.162	12068
928.267	12163
928.373	12768
928.479	12216
928.585	12003
928.69	12076
928.796	12057
928.901	11935
929.007	11832
929.112	11961
929.218	11897
929.323	11893
929.428	11832
929.533	11931
929.638	11714
929.743	11745
929.848	11813
929.953	11832
930.058	11634
930.163	11558
930.267	11539
930.372	11570
930.477	11493
930.581	11726
930.685	11535
930.79	11341
930.894	11448
930.998	11410
931.103	11463
931.207	11174
931.311	11075
931.415	10972
931.519	10717
931.623	10778
