Data from test_V78500241_2164.txt Node
Date: Fri Mar 25 15:56:47 CST 2022
User: usil
Spectrometer: V785-0024
Trigger mode: 0
Integration Time (sec): 4.000000E-1
Scans to average: 1
Nonlinearity correction enabled: false
Boxcar width: 0
Storing dark spectrum: false
XAxis mode: Wavelengths
Number of Pixels in Spectrum: 1024
>>>>>Begin Spectral Data<<<<<
801.071	29056
801.214	28892
801.356	28675
801.499	28645
801.641	28481
801.783	28519
801.926	28611
802.068	28519
802.211	28550
802.353	28542
802.496	28230
802.638	28249
802.78	28249
802.923	28040
803.065	28078
803.208	28234
803.35	28238
803.492	28455
803.635	28432
803.777	28432
803.919	28519
804.061	28733
804.204	28546
804.346	28455
804.488	28382
804.63	28386
804.773	28440
804.915	28489
805.057	28706
805.199	28424
805.341	28584
805.483	28561
805.626	28573
805.768	28626
805.91	28748
806.052	28691
806.194	28626
806.336	28812
806.478	28603
806.62	28672
806.762	28713
806.904	29010
807.046	29098
807.188	29003
807.33	29109
807.472	29102
807.614	29025
807.756	29075
807.898	29014
808.04	28839
808.182	28938
808.324	28900
808.465	29109
808.607	29239
808.749	29318
808.891	29573
809.033	29448
809.174	29353
809.316	29471
809.458	29334
809.6	29231
809.741	29433
809.883	29585
810.025	29680
810.166	29505
810.308	29585
810.45	29364
810.591	29649
810.733	29486
810.875	29318
811.016	29166
811.158	29429
811.299	29497
811.441	29448
811.582	29436
811.724	29368
811.865	29387
812.007	29299
812.148	29273
812.29	29558
812.431	29604
812.573	29676
812.714	29672
812.855	29950
812.997	29870
813.138	30076
813.279	29935
813.421	29897
813.562	29821
813.703	29741
813.845	29562
813.986	29235
814.127	29056
814.268	29174
814.41	29056
814.551	29022
814.692	29147
814.833	28999
814.974	29067
815.115	29098
815.256	28923
815.397	28949
815.539	29018
815.68	28869
815.821	28930
815.962	28938
816.103	28820
816.244	28740
816.385	28664
816.526	28596
816.666	28550
816.807	28375
816.948	28447
817.089	28478
817.23	28550
817.371	28489
817.512	28497
817.653	28421
817.793	28363
817.934	28344
818.075	28413
818.216	28356
818.356	28314
818.497	28303
818.638	28010
818.778	28128
818.919	28207
819.06	28116
819.2	28295
819.341	28310
819.481	28371
819.622	28615
819.762	28812
819.903	28546
820.043	28641
820.184	28565
820.324	28432
820.465	28618
820.605	28504
820.746	28607
820.886	28348
821.026	28440
821.167	28569
821.307	28481
821.447	28318
821.588	28299
821.728	28242
821.868	28063
822.008	27922
822.149	27876
822.289	27827
822.429	27622
822.569	27500
822.709	27679
822.849	27488
822.99	27348
823.13	27424
823.27	27420
823.41	27336
823.55	27017
823.69	27218
823.83	27203
823.97	27329
824.11	26960
824.25	26933
824.389	27005
824.529	27112
824.669	26982
824.809	27138
824.949	27135
825.089	27184
825.228	27135
825.368	26815
825.508	26811
825.648	26960
825.787	26944
825.927	26895
826.067	26796
826.206	26960
826.346	27135
826.485	27093
826.625	26830
826.765	27199
826.904	26906
827.044	26788
827.183	26739
827.323	26587
827.462	26849
827.601	26659
827.741	26552
827.88	26792
828.02	26579
828.159	26629
828.298	26609
828.437	26720
828.577	26389
828.716	26739
828.855	26629
828.994	26218
829.134	26339
829.273	26336
829.412	26320
829.551	26256
829.69	26404
829.829	26301
829.968	26377
830.107	26377
830.246	26393
830.385	26282
830.524	26301
830.663	26065
830.802	26096
830.941	25959
831.08	25925
831.219	25978
831.357	25936
831.496	26221
831.635	25902
831.774	25921
831.913	25757
832.051	25723
832.19	25765
832.329	25715
832.467	25552
832.606	25578
832.744	25548
832.883	25605
833.022	25529
833.16	25548
833.299	25655
833.437	25712
833.576	25628
833.714	25620
833.852	25719
833.991	25830
834.129	25898
834.267	25761
834.406	25658
834.544	25647
834.682	25620
834.821	25571
834.959	25860
835.097	25533
835.235	25635
835.373	25677
835.511	25765
835.65	25518
835.788	25422
835.926	25373
836.064	25381
836.202	25320
836.34	25533
836.478	25639
836.615	25392
836.753	25499
836.891	25548
837.029	25377
837.167	25415
837.305	25388
837.443	25419
837.58	25301
837.718	25373
837.856	25187
837.993	25327
838.131	25297
838.269	25202
838.406	25175
838.544	25080
838.681	25008
838.819	24833
838.956	24844
839.094	24947
839.231	24875
839.369	25000
839.506	25145
839.643	24996
839.781	24703
839.918	24700
840.055	24688
840.193	24726
840.33	24623
840.467	24635
840.604	24570
840.742	24928
840.879	24471
841.016	24673
841.153	24521
841.29	24589
841.427	24547
841.564	24673
841.701	24639
841.838	24513
841.975	24673
842.112	24646
842.249	24445
842.385	24486
842.522	24551
842.659	24414
842.796	24372
842.933	24426
843.069	24391
843.206	24452
843.343	24376
843.479	24304
843.616	24235
843.752	24213
843.889	24251
844.025	24388
844.162	24144
844.298	24281
844.435	24190
844.571	24167
844.708	24152
844.844	24323
844.98	24319
845.117	24258
845.253	24144
845.389	23958
845.525	24015
845.661	24152
845.798	23866
845.934	23958
846.07	23889
846.206	23912
846.342	23961
846.478	23752
846.614	23707
846.75	23558
846.886	23627
847.022	23646
847.158	23589
847.294	23684
847.429	23741
847.565	23676
847.701	23703
847.837	23368
847.972	23330
848.108	23531
848.244	23459
848.379	23296
848.515	23220
848.65	23121
848.786	23162
848.921	23303
849.057	23372
849.192	23227
849.328	23250
849.463	23189
849.598	23029
849.734	23083
849.869	23029
850.004	22987
850.14	23064
850.275	23018
850.41	22961
850.545	23048
850.68	23052
850.815	22889
850.95	22953
851.085	23220
851.22	23113
851.355	22896
851.49	23010
851.625	22911
851.76	22927
851.895	22904
852.03	22782
852.165	22881
852.299	23056
852.434	23033
852.569	22965
852.703	22961
852.838	22953
852.973	23094
853.107	23033
853.242	22953
853.376	22839
853.511	22557
853.645	22881
853.78	22980
853.914	22767
854.048	22805
854.183	22797
854.317	22862
854.451	22995
854.585	22755
854.72	22771
854.854	22740
854.988	22782
855.122	22801
855.256	22755
855.39	22713
855.524	22904
855.658	22847
855.792	22854
855.926	22755
856.06	22744
856.194	22812
856.327	22759
856.461	22675
856.595	22759
856.729	22702
856.862	22869
856.996	22809
857.13	22847
857.263	22911
857.397	22877
857.53	22862
857.664	22793
857.797	22904
857.931	22866
858.064	22805
858.197	22927
858.331	22831
858.464	22755
858.597	22725
858.731	22759
858.864	22679
858.997	22843
859.13	22797
859.263	22782
859.396	22904
859.529	22713
859.662	22755
859.795	22717
859.928	22721
860.061	22934
860.194	22854
860.327	22816
860.46	22790
860.592	22763
860.725	22976
860.858	22896
860.99	22721
861.123	22679
861.256	22603
861.388	22733
861.521	23501
861.653	22729
861.786	22611
861.918	22618
862.05	22603
862.183	22630
862.315	22626
862.447	22858
862.58	22763
862.712	22485
862.844	22440
862.976	22664
863.108	22580
863.24	22896
863.372	22443
863.504	22451
863.636	22443
863.768	22596
863.9	22523
864.032	22432
864.164	22428
864.296	22485
864.428	22637
864.559	22428
864.691	22500
864.823	22474
864.954	22519
865.086	22554
865.217	22466
865.349	22253
865.48	22405
865.612	22402
865.743	22546
865.875	22459
866.006	22306
866.137	22394
866.269	22424
866.4	22348
866.531	22398
866.662	22246
866.793	22265
866.924	22306
867.055	22272
867.186	22344
867.317	22223
867.448	22238
867.579	22204
867.71	22173
867.841	22169
867.972	22276
868.103	22234
868.233	22265
868.364	22246
868.495	22481
868.625	22599
868.756	22603
868.886	22436
869.017	22443
869.147	22580
869.278	22683
869.408	22542
869.539	22565
869.669	22592
869.799	22611
869.929	22630
870.06	22599
870.19	22805
870.32	22683
870.45	22972
870.58	22999
870.71	23044
870.84	22976
870.97	22889
871.1	22957
871.23	23155
871.36	23155
871.489	23079
871.619	23075
871.749	23159
871.879	23090
872.008	23288
872.138	23060
872.267	23239
872.397	22984
872.526	23006
872.656	22991
872.785	22965
872.915	23113
873.044	23197
873.173	23094
873.303	23303
873.432	23155
873.561	23223
873.69	23200
873.819	23174
873.948	23265
874.077	23204
874.206	23067
874.335	23280
874.464	23102
874.593	23459
874.722	23337
874.851	23402
874.979	23372
875.108	23204
875.237	23269
875.365	23376
875.494	23349
875.623	23471
875.751	23299
875.88	23337
876.008	23505
876.136	23417
876.265	23771
876.393	23893
876.521	23863
876.65	23809
876.778	23699
876.906	23592
877.034	23653
877.162	23786
877.29	23615
877.418	23722
877.546	23665
877.674	23729
877.802	23596
877.93	23764
878.058	23638
878.185	23486
878.313	23687
878.441	23684
878.568	23562
878.696	23566
878.824	23703
878.951	23699
879.079	23885
879.206	23999
879.333	23779
879.461	23718
879.588	23828
879.715	23809
879.842	23897
879.97	23790
880.097	23467
880.224	23520
880.351	23478
880.478	23600
880.605	23474
880.732	23627
880.859	23748
880.986	23501
881.112	23604
881.239	23322
881.366	23185
881.493	23143
881.619	23098
881.746	23109
881.872	23102
881.999	23056
882.125	22896
882.252	23075
882.378	22984
882.505	23060
882.631	22885
882.757	22771
882.883	22782
883.01	22717
883.136	22710
883.262	22603
883.388	22588
883.514	22736
883.64	22653
883.766	22596
883.892	22527
884.018	22565
884.143	22679
884.269	22767
884.395	22485
884.52	22382
884.646	22405
884.772	22333
884.897	22325
885.023	22386
885.148	22455
885.274	22424
885.399	22588
885.524	22314
885.65	22390
885.775	22447
885.9	22276
886.025	22451
886.15	22310
886.275	22249
886.4	22238
886.525	22382
886.65	22253
886.775	22363
886.9	22382
887.025	22580
887.149	22253
887.274	22070
887.399	22215
887.523	22181
887.648	22067
887.773	22150
887.897	22173
888.021	22112
888.146	22040
888.27	22162
888.395	22101
888.519	22177
888.643	22093
888.767	22074
888.891	22074
889.015	21930
889.139	22006
889.263	21842
889.387	22067
889.511	22147
889.635	22025
889.759	21835
889.883	21911
890.006	21797
890.13	21915
890.254	21755
890.377	21816
890.501	21595
890.624	21603
890.748	21705
890.871	21530
890.995	21545
891.118	21355
891.241	21378
891.364	21473
891.488	21618
891.611	21458
891.734	21431
891.857	21557
891.98	21431
892.103	21454
892.226	21481
892.349	21393
892.471	21283
892.594	21355
892.717	21401
892.839	21367
892.962	21363
893.085	21363
893.207	21424
893.33	21256
893.452	21230
893.575	21393
893.697	21367
893.819	21408
893.941	21389
894.064	21435
894.186	21264
894.308	21207
894.43	21393
894.552	21428
894.674	21397
894.796	21176
894.918	21355
895.04	21302
895.161	21439
895.283	21367
895.405	21188
895.526	21321
895.648	21252
895.769	21355
895.891	21348
896.012	21321
896.134	21313
896.255	21291
896.376	21226
896.498	21310
896.619	21401
896.74	21275
896.861	21485
896.982	21542
897.103	21709
897.224	21538
897.345	21511
897.466	21447
897.587	21507
897.708	21637
897.828	21583
897.949	21507
898.07	21302
898.19	21500
898.311	21542
898.431	21473
898.552	21477
898.672	21530
898.792	21660
898.913	21477
899.033	21378
899.153	21336
899.273	21249
899.393	21192
899.513	21420
899.633	21157
899.753	21279
899.873	21161
899.993	21226
900.113	21207
900.232	21207
900.352	21138
900.472	20998
900.591	20986
900.711	20918
900.83	21036
900.95	21108
901.069	21165
901.189	20883
901.308	20644
901.427	20594
901.546	20621
901.665	20579
901.784	20571
901.904	20465
902.023	20278
902.141	20149
902.26	20077
902.379	20233
902.498	20206
902.617	20069
902.735	20122
902.854	20016
902.973	20012
903.091	19780
903.21	19674
903.328	19734
903.446	19620
903.565	19578
903.683	19480
903.801	19476
903.919	19502
904.038	19419
904.156	19324
904.274	19491
904.392	19324
904.51	19320
904.627	19187
904.745	19251
904.863	19259
904.981	19091
905.098	18943
905.216	18973
905.334	18962
905.451	18924
905.569	19034
905.686	18935
905.803	18924
905.921	18692
906.038	18859
906.155	18772
906.272	18608
906.389	18673
906.506	18388
906.623	18509
906.74	18486
906.857	18369
906.974	18266
907.091	18521
907.208	18597
907.324	18551
907.441	18292
907.557	18285
907.674	18194
907.79	18034
907.907	18152
908.023	18243
908.139	18209
908.256	18045
908.372	18030
908.488	18190
908.604	17813
908.72	17836
908.836	17863
908.952	17889
909.068	17813
909.184	17889
909.3	17870
909.415	17863
909.531	17870
909.647	17611
909.762	17558
909.878	17543
909.993	17493
910.108	17566
910.224	17478
910.339	17490
910.454	17486
910.57	17429
910.685	17265
910.8	17589
910.915	17543
911.03	17303
911.145	17128
911.259	17128
911.374	17136
911.489	17018
911.604	17048
911.718	16908
911.833	16930
911.947	16767
912.062	16733
912.176	16923
912.291	16911
912.405	16885
912.519	17162
912.633	17041
912.748	16877
912.862	16850
912.976	16698
913.09	16531
913.204	16668
913.318	16713
913.431	16812
913.545	16729
913.659	16797
913.772	16584
913.886	16500
914	16622
914.113	16508
914.226	16660
914.34	16607
914.453	16341
914.566	16386
914.68	16402
914.793	16276
914.906	16173
915.019	16071
915.132	16017
915.245	16032
915.358	16013
915.47	15960
915.583	16124
915.696	16128
915.809	16109
915.921	16196
916.034	16150
916.146	15991
916.259	15934
916.371	15998
916.483	15926
916.595	15884
916.708	15812
916.82	15945
916.932	15808
917.044	15880
917.156	15850
917.268	15648
917.38	15747
917.491	15599
917.603	15656
917.715	15724
917.826	15705
917.938	15500
918.049	15469
918.161	15576
918.272	15781
918.384	15713
918.495	15557
918.606	15507
918.717	15363
918.828	15424
918.939	15488
919.05	15332
919.161	15389
919.272	15291
919.383	15256
919.494	15458
919.604	15648
919.715	15443
919.826	15298
919.936	15443
920.047	15447
920.157	15325
920.267	15580
920.378	15386
920.488	15450
920.598	15564
920.708	15641
920.818	15511
920.928	15584
921.038	15629
921.148	15553
921.258	15298
921.368	15207
921.477	15104
921.587	15039
921.697	14975
921.806	15131
921.916	14921
922.025	14777
922.134	14727
922.244	14686
922.353	14659
922.462	14697
922.571	14590
922.68	14347
922.789	14431
922.898	14381
923.007	14332
923.116	14377
923.224	14328
923.333	14305
923.442	14199
923.55	14168
923.659	14206
923.767	14221
923.876	14069
923.984	14142
924.092	14027
924.201	14077
924.309	14103
924.417	14092
924.525	13967
924.633	13970
924.741	14735
924.849	13750
924.956	13959
925.064	13750
925.172	13700
925.279	13708
925.387	13677
925.494	13655
925.602	13864
925.709	13841
925.816	13609
925.924	13601
926.031	13742
926.138	13616
926.245	13700
926.352	13510
926.459	13651
926.566	13731
926.673	13559
926.779	13460
926.886	13419
926.993	13350
927.099	13297
927.206	13221
927.312	13251
927.419	13301
927.525	13255
927.631	13308
927.737	13160
927.843	13168
927.95	12966
928.056	13065
928.162	13042
928.267	13072
928.373	13731
928.479	13069
928.585	12977
928.69	12973
928.796	13012
928.901	12890
929.007	12798
929.112	12890
929.218	12840
929.323	12745
929.428	12726
929.533	12875
929.638	12715
929.743	12734
929.848	12696
929.953	12730
930.058	12555
930.163	12414
930.267	12502
930.372	12597
930.477	12369
930.581	12547
930.685	12513
930.79	12254
930.894	12350
930.998	12323
931.103	12407
931.207	12045
931.311	11977
931.415	11916
931.519	11752
931.623	11676
