Data from test_V78500241_1362.txt Node
Date: Fri Mar 25 15:51:14 CST 2022
User: usil
Spectrometer: V785-0024
Trigger mode: 0
Integration Time (sec): 4.000000E-1
Scans to average: 1
Nonlinearity correction enabled: false
Boxcar width: 0
Storing dark spectrum: false
XAxis mode: Wavelengths
Number of Pixels in Spectrum: 1024
>>>>>Begin Spectral Data<<<<<
801.071	28211
801.214	28207
801.356	27949
801.499	27724
801.641	27812
801.783	27709
801.926	27941
802.068	27823
802.211	27724
802.353	27614
802.496	27511
802.638	27523
802.78	27420
802.923	27363
803.065	27325
803.208	27351
803.35	27500
803.492	27420
803.635	27644
803.777	27534
803.919	27720
804.061	27899
804.204	27759
804.346	27622
804.488	27568
804.63	27747
804.773	27656
804.915	27629
805.057	27656
805.199	27656
805.341	27797
805.483	27880
805.626	27907
805.768	27732
805.91	27789
806.052	27789
806.194	27766
806.336	28101
806.478	27835
806.62	27884
806.762	27907
806.904	28090
807.046	28265
807.188	28284
807.33	28280
807.472	28333
807.614	28329
807.756	28223
807.898	28139
808.04	28036
808.182	27960
808.324	28109
808.465	28200
808.607	28204
808.749	28565
808.891	28580
809.033	28573
809.174	28455
809.316	28451
809.458	28344
809.6	28466
809.741	28630
809.883	28596
810.025	28782
810.166	28744
810.308	28736
810.45	28618
810.591	28569
810.733	28523
810.875	28436
811.016	28295
811.158	28318
811.299	28603
811.441	28645
811.582	28527
811.724	28413
811.865	28371
812.007	28382
812.148	28356
812.29	28462
812.431	28790
812.573	28736
812.714	28869
812.855	28923
812.997	29098
813.138	29033
813.279	29033
813.421	29128
813.562	28778
813.703	28866
813.845	28599
813.986	28337
814.127	28337
814.268	28177
814.41	28276
814.551	28188
814.692	28158
814.833	28036
814.974	28112
815.115	28261
815.256	28093
815.397	27987
815.539	27987
815.68	28059
815.821	27956
815.962	27953
816.103	28040
816.244	27876
816.385	27728
816.526	27743
816.666	27568
816.807	27519
816.948	27557
817.089	27447
817.23	27622
817.371	27424
817.512	27492
817.653	27458
817.793	27393
817.934	27408
818.075	27462
818.216	27500
818.356	27310
818.497	27325
818.638	27226
818.778	27131
818.919	27226
819.06	27214
819.2	27427
819.341	27500
819.481	27462
819.622	27690
819.762	27736
819.903	27755
820.043	27606
820.184	27610
820.324	27401
820.465	27686
820.605	27583
820.746	27576
820.886	27443
821.026	27572
821.167	27488
821.307	27629
821.447	27504
821.588	27466
821.728	27169
821.868	27058
822.008	27020
822.149	26815
822.289	27009
822.429	26617
822.569	26606
822.709	26625
822.849	26438
822.99	26457
823.13	26339
823.27	26366
823.41	26168
823.55	26126
823.69	26210
823.83	26320
823.97	26240
824.11	26024
824.25	26058
824.389	26005
824.529	26149
824.669	26031
824.809	26298
824.949	26161
825.089	26100
825.228	26065
825.368	26005
825.508	25868
825.648	25986
825.787	25875
825.927	25986
826.067	25921
826.206	25902
826.346	25986
826.485	26077
826.625	25982
826.765	26202
826.904	26069
827.044	25860
827.183	25757
827.323	25658
827.462	25609
827.601	25674
827.741	25803
827.88	25639
828.02	25575
828.159	25578
828.298	25571
828.437	25677
828.577	25708
828.716	25845
828.855	25575
828.994	25400
829.134	25346
829.273	25293
829.412	25377
829.551	25354
829.69	25460
829.829	25403
829.968	25457
830.107	25384
830.246	25464
830.385	25251
830.524	25285
830.663	25225
830.802	24992
830.941	25061
831.08	25019
831.219	25012
831.357	25019
831.496	25202
831.635	24977
831.774	24852
831.913	24837
832.051	24730
832.19	24768
832.329	24814
832.467	24661
832.606	24490
832.744	24631
832.883	24635
833.022	24540
833.16	24707
833.299	24677
833.437	24563
833.576	24798
833.714	24825
833.852	24798
833.991	24772
834.129	24894
834.267	24703
834.406	24681
834.544	24779
834.682	24608
834.821	24612
834.959	24897
835.097	24661
835.235	24821
835.373	24623
835.511	24661
835.65	24661
835.788	24467
835.926	24483
836.064	24388
836.202	24388
836.34	24494
836.478	24566
836.615	24376
836.753	24521
836.891	24471
837.029	24608
837.167	24490
837.305	24365
837.443	24460
837.58	24357
837.718	24388
837.856	24289
837.993	24426
838.131	24292
838.269	24213
838.406	24243
838.544	24239
838.681	24045
838.819	23965
838.956	23802
839.094	23786
839.231	23923
839.369	24068
839.506	24163
839.643	24186
839.781	23741
839.918	23813
840.055	23847
840.193	23874
840.33	23767
840.467	23733
840.604	23874
840.742	24106
840.879	23577
841.016	23684
841.153	23653
841.29	23912
841.427	23676
841.564	23729
841.701	23722
841.838	23638
841.975	23615
842.112	23726
842.249	23619
842.385	23486
842.522	23668
842.659	23566
842.796	23531
842.933	23570
843.069	23490
843.206	23410
843.343	23478
843.479	23589
843.616	23535
843.752	23292
843.889	23315
844.025	23471
844.162	23208
844.298	23379
844.435	23193
844.571	23284
844.708	23239
844.844	23364
844.98	23505
845.117	23406
845.253	23216
845.389	23227
845.525	23231
845.661	23109
845.798	23048
845.934	22987
846.07	23014
846.206	23128
846.342	23239
846.478	23014
846.614	22729
846.75	22706
846.886	22752
847.022	22748
847.158	22687
847.294	22782
847.429	22752
847.565	22736
847.701	22877
847.837	22542
847.972	22485
848.108	22611
848.244	22531
848.379	22356
848.515	22382
848.65	22192
848.786	22390
848.921	22291
849.057	22310
849.192	22489
849.328	22318
849.463	22310
849.598	22253
849.734	22181
849.869	22090
850.004	22086
850.14	22143
850.275	22074
850.41	22036
850.545	22105
850.68	22048
850.815	21972
850.95	22048
851.085	22318
851.22	22150
851.355	22192
851.49	21987
851.625	22120
851.76	21937
851.895	22006
852.03	21968
852.165	22067
852.299	22044
852.434	22120
852.569	22078
852.703	22150
852.838	22074
852.973	22135
853.107	22162
853.242	22109
853.376	21903
853.511	21705
853.645	21800
853.78	22013
853.914	22021
854.048	21865
854.183	21907
854.317	21941
854.451	21972
854.585	21926
854.72	21899
854.854	22025
854.988	21766
855.122	21975
855.256	21747
855.39	21968
855.524	21983
855.658	22044
855.792	21873
855.926	21953
856.06	21835
856.194	22021
856.327	21793
856.461	21797
856.595	21945
856.729	21865
856.862	21903
856.996	21983
857.13	21854
857.263	21998
857.397	21972
857.53	21975
857.664	21945
857.797	22040
857.931	22048
858.064	22048
858.197	22105
858.331	21804
858.464	21892
858.597	21751
858.731	21816
858.864	21816
858.997	21861
859.13	21842
859.263	21945
859.396	21911
859.529	21983
859.662	21766
859.795	21819
859.928	21994
860.061	21983
860.194	22143
860.327	22032
860.46	21926
860.592	22067
860.725	21964
860.858	22090
860.99	22067
861.123	21812
861.256	21838
861.388	21869
861.521	22588
861.653	21816
861.786	21656
861.918	21656
862.05	21774
862.183	21789
862.315	21827
862.447	21926
862.58	21800
862.712	21549
862.844	21496
862.976	21682
863.108	21614
863.24	21972
863.372	21488
863.504	21637
863.636	21530
863.768	21644
863.9	21637
864.032	21439
864.164	21587
864.296	21648
864.428	21724
864.559	21603
864.691	21656
864.823	21618
864.954	21603
865.086	21564
865.217	21507
865.349	21374
865.48	21439
865.612	21469
865.743	21534
865.875	21526
866.006	21485
866.137	21572
866.269	21500
866.4	21496
866.531	21370
866.662	21329
866.793	21416
866.924	21443
867.055	21348
867.186	21500
867.317	21466
867.448	21370
867.579	21374
867.71	21332
867.841	21306
867.972	21447
868.103	21439
868.233	21450
868.364	21458
868.495	21511
868.625	21637
868.756	21675
868.886	21561
869.017	21739
869.147	21766
869.278	21781
869.408	21701
869.539	21614
869.669	21671
869.799	21701
869.929	21800
870.06	21778
870.19	21972
870.32	21975
870.45	21968
870.58	22032
870.71	22078
870.84	22116
870.97	22150
871.1	22048
871.23	22238
871.36	22314
871.489	22128
871.619	22192
871.749	22219
871.879	22207
872.008	22257
872.138	22253
872.267	22219
872.397	22196
872.526	22147
872.656	22109
872.785	22097
872.915	22230
873.044	22390
873.173	22329
873.303	22268
873.432	22485
873.561	22356
873.69	22249
873.819	22215
873.948	22367
874.077	22386
874.206	22234
874.335	22310
874.464	22325
874.593	22592
874.722	22390
874.851	22519
874.979	22523
875.108	22550
875.237	22466
875.365	22287
875.494	22455
875.623	22626
875.751	22432
875.88	22550
876.008	22569
876.136	22729
876.265	22786
876.393	23083
876.521	22938
876.65	22957
876.778	22987
876.906	22824
877.034	22828
877.162	22854
877.29	22812
877.418	22850
877.546	22942
877.674	22698
877.802	22774
877.93	22767
878.058	22733
878.185	22675
878.313	22748
878.441	22847
878.568	22672
878.696	22725
878.824	22812
878.951	22873
879.079	23083
879.206	23075
879.333	22999
879.461	22698
879.588	23033
879.715	23155
879.842	23159
879.97	22885
880.097	22797
880.224	22698
880.351	22626
880.478	22801
880.605	22596
880.732	22637
880.859	22733
880.986	22664
881.112	22721
881.239	22618
881.366	22599
881.493	22424
881.619	22451
881.746	22519
881.872	22394
881.999	22204
882.125	22154
882.252	22348
882.378	22352
882.505	22200
882.631	22124
882.757	21854
882.883	21892
883.01	21884
883.136	21968
883.262	21770
883.388	21720
883.514	21953
883.64	21956
883.766	21884
883.892	21766
884.018	21778
884.143	21816
884.269	21903
884.395	21675
884.52	21622
884.646	21466
884.772	21450
884.897	21473
885.023	21553
885.148	21766
885.274	21747
885.399	21667
885.524	21568
885.65	21492
885.775	21511
885.9	21481
886.025	21648
886.15	21625
886.275	21504
886.4	21424
886.525	21610
886.65	21416
886.775	21359
886.9	21583
887.025	21641
887.149	21473
887.274	21359
887.399	21222
887.523	21279
887.648	21131
887.773	21291
887.897	21443
888.021	21302
888.146	21256
888.27	21344
888.395	21397
888.519	21344
888.643	21424
888.767	21389
888.891	21241
889.015	21051
889.139	21291
889.263	21123
889.387	21214
889.511	21252
889.635	21283
889.759	21135
889.883	20979
890.006	21165
890.13	21184
890.254	21009
890.377	21085
890.501	20777
890.624	20864
890.748	20849
890.871	20724
890.995	20693
891.118	20598
891.241	20754
891.364	20625
891.488	20777
891.611	20659
891.734	20735
891.857	20708
891.98	20583
892.103	20670
892.226	20697
892.349	20552
892.471	20606
892.594	20568
892.717	20571
892.839	20526
892.962	20583
893.085	20602
893.207	20651
893.33	20358
893.452	20492
893.575	20590
893.697	20556
893.819	20674
893.941	20750
894.064	20701
894.186	20587
894.308	20503
894.43	20636
894.552	20716
894.674	20644
894.796	20514
894.918	20514
895.04	20579
895.161	20640
895.283	20598
895.405	20358
895.526	20541
895.648	20507
895.769	20495
895.891	20495
896.012	20655
896.134	20686
896.255	20727
896.376	20522
896.498	20556
896.619	20560
896.74	20583
896.861	20571
896.982	20887
897.103	21017
897.224	20792
897.345	20826
897.466	20697
897.587	20796
897.708	21028
897.828	20739
897.949	20769
898.07	20777
898.19	20617
898.311	20925
898.431	20663
898.552	20796
898.672	20872
898.792	20815
898.913	20796
899.033	20697
899.153	20564
899.273	20446
899.393	20533
899.513	20587
899.633	20473
899.753	20457
899.873	20415
899.993	20503
900.113	20598
900.232	20541
900.352	20389
900.472	20336
900.591	20244
900.711	20339
900.83	20237
900.95	20275
901.069	20393
901.189	20191
901.308	19826
901.427	19944
901.546	19970
901.665	19852
901.784	19860
901.904	19677
902.023	19616
902.141	19571
902.26	19480
902.379	19384
902.498	19232
902.617	19365
902.735	19453
902.854	19346
902.973	19225
903.091	19084
903.21	19038
903.328	18916
903.446	19008
903.565	18749
903.683	18871
903.801	18578
903.919	18829
904.038	18779
904.156	18578
904.274	18658
904.392	18741
904.51	18646
904.627	18544
904.745	18627
904.863	18688
904.981	18388
905.098	18357
905.216	18342
905.334	18304
905.451	18357
905.569	18232
905.686	18369
905.803	18296
905.921	18011
906.038	18144
906.155	18038
906.272	17889
906.389	17973
906.506	17760
906.623	17790
906.74	17824
906.857	17646
906.974	17760
907.091	17958
907.208	17893
907.324	17832
907.441	17649
907.557	17585
907.674	17532
907.79	17455
907.907	17486
908.023	17600
908.139	17501
908.256	17440
908.372	17421
908.488	17410
908.604	17197
908.72	17280
908.836	17258
908.952	17117
909.068	17223
909.184	17345
909.3	17235
909.415	17265
909.531	17208
909.647	17010
909.762	16889
909.878	16927
909.993	16892
910.108	16919
910.224	16839
910.339	16831
910.454	16725
910.57	16725
910.685	16637
910.8	16946
910.915	16862
911.03	16752
911.145	16577
911.259	16504
911.374	16478
911.489	16478
911.604	16493
911.718	16341
911.833	16325
911.947	16188
912.062	16207
912.176	16371
912.291	16261
912.405	16348
912.519	16474
912.633	16421
912.748	16276
912.862	16276
912.976	16143
913.09	15934
913.204	16021
913.318	16055
913.431	16055
913.545	16226
913.659	16234
913.772	16120
913.886	15850
914	15854
914.113	15979
914.226	15918
914.34	15865
914.453	15774
914.566	15808
914.68	15766
914.793	15713
914.906	15534
915.019	15401
915.132	15336
915.245	15496
915.358	15488
915.47	15477
915.583	15443
915.696	15488
915.809	15591
915.921	15576
916.034	15359
916.146	15325
916.259	15329
916.371	15443
916.483	15389
916.595	15332
916.708	15428
916.82	15214
916.932	15249
917.044	15283
917.156	15249
917.268	15081
917.38	15188
917.491	15070
917.603	15089
917.715	15154
917.826	15199
917.938	14948
918.049	14994
918.161	15150
918.272	15116
918.384	15154
918.495	15032
918.606	14902
918.717	14777
918.828	14834
918.939	14918
919.05	14800
919.161	14819
919.272	14663
919.383	14697
919.494	14918
919.604	15055
919.715	14899
919.826	14705
919.936	14769
920.047	14872
920.157	14864
920.267	14956
920.378	14819
920.488	14849
920.598	14902
920.708	15051
920.818	14849
920.928	14868
921.038	15176
921.148	15039
921.258	14640
921.368	14670
921.477	14594
921.587	14484
921.697	14415
921.806	14556
921.916	14282
922.025	14172
922.134	14233
922.244	14027
922.353	14309
922.462	14096
922.571	13925
922.68	13807
922.789	13818
922.898	13795
923.007	13826
923.116	13784
923.224	13769
923.333	13799
923.442	13734
923.55	13647
923.659	13651
923.767	13772
923.876	13548
923.984	13639
924.092	13571
924.201	13628
924.309	13586
924.417	13491
924.525	13533
924.633	13457
924.741	14381
924.849	13247
924.956	13400
925.064	13247
925.172	13133
925.279	13187
925.387	13156
925.494	13190
925.602	13339
925.709	13274
925.816	13099
925.924	13168
926.031	13247
926.138	13236
926.245	13221
926.352	13080
926.459	13156
926.566	13232
926.673	13080
926.779	12993
926.886	12962
926.993	12848
927.099	12871
927.206	12738
927.312	12734
927.419	12787
927.525	12753
927.631	12878
927.737	12776
927.843	12517
927.95	12429
928.056	12616
928.162	12662
928.267	12589
928.373	13270
928.479	12658
928.585	12456
928.69	12536
928.796	12551
928.901	12448
929.007	12285
929.112	12467
929.218	12426
929.323	12361
929.428	12407
929.533	12395
929.638	12292
929.743	12277
929.848	12270
929.953	12315
930.058	12163
930.163	11950
930.267	12026
930.372	12163
930.477	11885
930.581	12213
930.685	11980
930.79	11897
930.894	11950
930.998	11809
931.103	12026
931.207	11638
931.311	11604
931.415	11406
931.519	11277
931.623	11216
