Data from test_V78500241_17.txt Node
Date: Fri Mar 25 15:41:55 CST 2022
User: usil
Spectrometer: V785-0024
Trigger mode: 0
Integration Time (sec): 4.000000E-1
Scans to average: 1
Nonlinearity correction enabled: false
Boxcar width: 0
Storing dark spectrum: false
XAxis mode: Wavelengths
Number of Pixels in Spectrum: 1024
>>>>>Begin Spectral Data<<<<<
801.071	27089
801.214	26986
801.356	26735
801.499	26587
801.641	26377
801.783	26347
801.926	26511
802.068	26358
802.211	26271
802.353	26355
802.496	26084
802.638	25959
802.78	26005
802.923	25982
803.065	25772
803.208	25928
803.35	25978
803.492	26043
803.635	25986
803.777	25970
803.919	26050
804.061	26415
804.204	25947
804.346	25944
804.488	25890
804.63	25879
804.773	25575
804.915	25921
805.057	26043
805.199	25906
805.341	25921
805.483	26054
805.626	25989
805.768	25963
805.91	25993
806.052	26039
806.194	25780
806.336	26069
806.478	25944
806.62	25894
806.762	25978
806.904	26126
807.046	26404
807.188	26294
807.33	26240
807.472	26218
807.614	26366
807.756	26100
807.898	26031
808.04	26054
808.182	26027
808.324	26058
808.465	25940
808.607	26157
808.749	26210
808.891	26419
809.033	26355
809.174	26320
809.316	26381
809.458	26275
809.6	26278
809.741	26286
809.883	26453
810.025	26484
810.166	26533
810.308	26556
810.45	26465
810.591	26480
810.733	26290
810.875	26111
811.016	26126
811.158	26168
811.299	26328
811.441	26461
811.582	26362
811.724	26259
811.865	26157
812.007	26172
812.148	26153
812.29	26282
812.431	26370
812.573	26495
812.714	26693
812.855	26670
812.997	26712
813.138	26906
813.279	26815
813.421	26613
813.562	26609
813.703	26511
813.845	26286
813.986	26092
814.127	25932
814.268	25769
814.41	25753
814.551	25784
814.692	25807
814.833	25662
814.974	25757
815.115	25670
815.256	25582
815.397	25624
815.539	25491
815.68	25476
815.821	25365
815.962	25453
816.103	25453
816.244	25308
816.385	25118
816.526	25171
816.666	24989
816.807	24745
816.948	24825
817.089	24928
817.23	24829
817.371	24791
817.512	24669
817.653	24753
817.793	24802
817.934	24795
818.075	24817
818.216	24749
818.356	24673
818.497	24608
818.638	24464
818.778	24502
818.919	24513
819.06	24467
819.2	24578
819.341	24544
819.481	24692
819.622	24707
819.762	24905
819.903	24977
820.043	24798
820.184	24745
820.324	24654
820.465	24646
820.605	24795
820.746	24658
820.886	24517
821.026	24661
821.167	24730
821.307	24817
821.447	24582
821.588	24498
821.728	24346
821.868	24205
822.008	24003
822.149	24038
822.289	24174
822.429	23901
822.569	23775
822.709	23805
822.849	23562
822.99	23490
823.13	23448
823.27	23570
823.41	23345
823.55	23193
823.69	23334
823.83	23151
823.97	23212
824.11	23025
824.25	23044
824.389	23067
824.529	23117
824.669	22930
824.809	23151
824.949	23075
825.089	22968
825.228	23075
825.368	22831
825.508	22793
825.648	22873
825.787	22885
825.927	22828
826.067	22740
826.206	22816
826.346	22862
826.485	22904
826.625	22927
826.765	22904
826.904	22653
827.044	22713
827.183	22428
827.323	22417
827.462	22489
827.601	22417
827.741	22352
827.88	22371
828.02	22291
828.159	22451
828.298	22489
828.437	22634
828.577	22417
828.716	22459
828.855	22421
828.994	22257
829.134	22185
829.273	22188
829.412	22074
829.551	21991
829.69	22059
829.829	22150
829.968	22143
830.107	22196
830.246	22116
830.385	22044
830.524	22059
830.663	21930
830.802	21774
830.941	21660
831.08	21644
831.219	21819
831.357	21629
831.496	21812
831.635	21667
831.774	21599
831.913	21576
832.051	21355
832.19	21443
832.329	21355
832.467	21291
832.606	21252
832.744	21317
832.883	21195
833.022	21268
833.16	21306
833.299	21355
833.437	21252
833.576	21348
833.714	21386
833.852	21355
833.991	21332
834.129	21351
834.267	21355
834.406	21336
834.544	21447
834.682	21291
834.821	21355
834.959	21370
835.097	21344
835.235	21336
835.373	21317
835.511	21256
835.65	21180
835.788	21055
835.926	21055
836.064	20975
836.202	21009
836.34	21173
836.478	21249
836.615	21135
836.753	21074
836.891	21195
837.029	21146
837.167	21180
837.305	21104
837.443	21108
837.58	20899
837.718	21062
837.856	21028
837.993	20876
838.131	20971
838.269	21020
838.406	20800
838.544	20849
838.681	20743
838.819	20568
838.956	20415
839.094	20362
839.231	20473
839.369	20575
839.506	20739
839.643	20598
839.781	20412
839.918	20381
840.055	20480
840.193	20347
840.33	20244
840.467	20320
840.604	20336
840.742	20716
840.879	20145
841.016	20343
841.153	20282
841.29	20362
841.427	20305
841.564	20324
841.701	20317
841.838	20218
841.975	20244
842.112	20122
842.249	20218
842.385	20126
842.522	20309
842.659	20130
842.796	20081
842.933	20054
843.069	20008
843.206	19909
843.343	20020
843.479	20035
843.616	20073
843.752	19807
843.889	19750
844.025	19944
844.162	19830
844.298	19791
844.435	19727
844.571	19594
844.708	19868
844.844	19849
844.98	19803
845.117	19841
845.253	19795
845.389	19651
845.525	19609
845.661	19658
845.798	19464
845.934	19445
846.07	19362
846.206	19529
846.342	19658
846.478	19468
846.614	19278
846.75	19122
846.886	19247
847.022	19198
847.158	19164
847.294	19259
847.429	19198
847.565	19251
847.701	19430
847.837	18871
847.972	18886
848.108	19053
848.244	18996
848.379	18798
848.515	18810
848.65	18798
848.786	18829
848.921	18802
849.057	18852
849.192	18852
849.328	18833
849.463	18795
849.598	18707
849.734	18639
849.869	18677
850.004	18422
850.14	18570
850.275	18525
850.41	18380
850.545	18452
850.68	18460
850.815	18532
850.95	18388
851.085	18631
851.22	18578
851.355	18403
851.49	18464
851.625	18388
851.76	18437
851.895	18391
852.03	18391
852.165	18445
852.299	18418
852.434	18525
852.569	18540
852.703	18521
852.838	18502
852.973	18566
853.107	18597
853.242	18334
853.376	18262
853.511	18254
853.645	18365
853.78	18426
853.914	18395
854.048	18197
854.183	18304
854.317	18281
854.451	18445
854.585	18327
854.72	18319
854.854	18270
854.988	18155
855.122	18311
855.256	18129
855.39	18224
855.524	18365
855.658	18220
855.792	18330
855.926	18334
856.06	18380
856.194	18380
856.327	18304
856.461	18178
856.595	18182
856.729	18258
856.862	18273
856.996	18235
857.13	18262
857.263	18369
857.397	18479
857.53	18285
857.664	18330
857.797	18334
857.931	18365
858.064	18232
858.197	18376
858.331	18270
858.464	18083
858.597	18091
858.731	18144
858.864	18289
858.997	18232
859.13	18300
859.263	18239
859.396	18167
859.529	18110
859.662	18159
859.795	18205
859.928	18273
860.061	18388
860.194	18327
860.327	18334
860.46	18228
860.592	18308
860.725	18357
860.858	18247
860.99	18186
861.123	18079
861.256	18129
861.388	18235
861.521	18806
861.653	18022
861.786	18068
861.918	18038
862.05	18148
862.183	18304
862.315	18319
862.447	18365
862.58	18239
862.712	18053
862.844	17916
862.976	18034
863.108	17942
863.24	18353
863.372	17950
863.504	17935
863.636	18041
863.768	17988
863.9	17988
864.032	17874
864.164	17897
864.296	17931
864.428	17980
864.559	18057
864.691	17992
864.823	17973
864.954	17920
865.086	17984
865.217	17885
865.349	17703
865.48	17824
865.612	17889
865.743	18053
865.875	17874
866.006	17794
866.137	17999
866.269	17870
866.4	17843
866.531	17824
866.662	17760
866.793	17798
866.924	17794
867.055	17897
867.186	17843
867.317	17817
867.448	17684
867.579	17771
867.71	17752
867.841	17752
867.972	17798
868.103	17889
868.233	17779
868.364	17802
868.495	17821
868.625	18011
868.756	18098
868.886	17923
869.017	17973
869.147	18060
869.278	18136
869.408	18098
869.539	17908
869.669	18136
869.799	18117
869.929	18182
870.06	18152
870.19	18361
870.32	18384
870.45	18342
870.58	18486
870.71	18547
870.84	18566
870.97	18464
871.1	18369
871.23	18597
871.36	18719
871.489	18517
871.619	18757
871.749	18635
871.879	18696
872.008	18764
872.138	18650
872.267	18635
872.397	18513
872.526	18525
872.656	18399
872.785	18525
872.915	18738
873.044	18681
873.173	18673
873.303	18722
873.432	18696
873.561	18635
873.69	18677
873.819	18631
873.948	18658
874.077	18776
874.206	18635
874.335	18738
874.464	18810
874.593	18829
874.722	18817
874.851	18901
874.979	19000
875.108	19084
875.237	18905
875.365	18798
875.494	18897
875.623	19042
875.751	19034
875.88	19053
876.008	19107
876.136	19118
876.265	19422
876.393	19556
876.521	19445
876.65	19457
876.778	19460
876.906	19327
877.034	19365
877.162	19434
877.29	19285
877.418	19316
877.546	19289
877.674	19415
877.802	19263
877.93	19263
878.058	19198
878.185	19190
878.313	19301
878.441	19350
878.568	19183
878.696	19232
878.824	19365
878.951	19350
879.079	19487
879.206	19597
879.333	19567
879.461	19362
879.588	19559
879.715	19533
879.842	19594
879.97	19480
880.097	19232
880.224	19148
880.351	19228
880.478	19213
880.605	19240
880.732	19183
880.859	19400
880.986	19175
881.112	19362
881.239	19069
881.366	18981
881.493	18833
881.619	18711
881.746	18932
881.872	18779
881.999	18692
882.125	18711
882.252	18821
882.378	18798
882.505	18981
882.631	18776
882.757	18574
882.883	18696
883.01	18650
883.136	18559
883.262	18536
883.388	18528
883.514	18582
883.64	18627
883.766	18547
883.892	18513
884.018	18426
884.143	18532
884.269	18726
884.395	18365
884.52	18262
884.646	18285
884.772	18163
884.897	18155
885.023	18285
885.148	18407
885.274	18395
885.399	18247
885.524	18262
885.65	18262
885.775	18258
885.9	18247
886.025	18467
886.15	18395
886.275	18239
886.4	18152
886.525	18205
886.65	18098
886.775	18178
886.9	18327
887.025	18506
887.149	18194
887.274	17980
887.399	18026
887.523	18038
887.648	18007
887.773	17851
887.897	17988
888.021	18019
888.146	17984
888.27	18041
888.395	18174
888.519	17980
888.643	18079
888.767	17977
888.891	17969
889.015	17790
889.139	17946
889.263	17783
889.387	17980
889.511	18121
889.635	17821
889.759	17684
889.883	17771
890.006	17809
890.13	17843
890.254	17737
890.377	17752
890.501	17623
890.624	17581
890.748	17608
890.871	17558
890.995	17410
891.118	17391
891.241	17467
891.364	17406
891.488	17543
891.611	17478
891.734	17505
891.857	17459
891.98	17547
892.103	17532
892.226	17562
892.349	17387
892.471	17322
892.594	17395
892.717	17516
892.839	17486
892.962	17452
893.085	17611
893.207	17497
893.33	17318
893.452	17463
893.575	17379
893.697	17463
893.819	17512
893.941	17684
894.064	17592
894.186	17406
894.308	17410
894.43	17516
894.552	17627
894.674	17528
894.796	17349
894.918	17486
895.04	17471
895.161	17577
895.283	17452
895.405	17425
895.526	17444
895.648	17471
895.769	17493
895.891	17573
896.012	17543
896.134	17581
896.255	17596
896.376	17554
896.498	17482
896.619	17615
896.74	17562
896.861	17707
896.982	17996
897.103	18152
897.224	17847
897.345	17737
897.466	17589
897.587	17741
897.708	17901
897.828	17836
897.949	17786
898.07	17611
898.19	17741
898.311	17882
898.431	17684
898.552	17863
898.672	17794
898.792	17920
898.913	17794
899.033	17752
899.153	17634
899.273	17471
899.393	17566
899.513	17600
899.633	17551
899.753	17490
899.873	17467
899.993	17524
900.113	17512
900.232	17547
900.352	17600
900.472	17368
900.591	17288
900.711	17486
900.83	17337
900.95	17436
901.069	17444
901.189	17322
901.308	17140
901.427	16984
901.546	16942
901.665	17025
901.784	17079
901.904	16892
902.023	16767
902.141	16672
902.26	16531
902.379	16622
902.498	16550
902.617	16459
902.735	16656
902.854	16527
902.973	16493
903.091	16234
903.21	16169
903.328	16185
903.446	16150
903.565	16032
903.683	16044
903.801	15972
903.919	15979
904.038	16040
904.156	15831
904.274	15937
904.392	15793
904.51	15880
904.627	15842
904.745	15808
904.863	15778
904.981	15591
905.098	15504
905.216	15443
905.334	15462
905.451	15428
905.569	15485
905.686	15603
905.803	15526
905.921	15249
906.038	15447
906.155	15306
906.272	15161
906.389	15169
906.506	15074
906.623	15077
906.74	15047
906.857	15032
906.974	14925
907.091	15138
907.208	15123
907.324	15203
907.441	14891
907.557	14674
907.674	14701
907.79	14632
907.907	14610
908.023	14705
908.139	14678
908.256	14613
908.372	14682
908.488	14590
908.604	14431
908.72	14351
908.836	14412
908.952	14492
909.068	14438
909.184	14571
909.3	14412
909.415	14442
909.531	14454
909.647	14134
909.762	14111
909.878	14065
909.993	14214
910.108	14088
910.224	14092
910.339	14153
910.454	14081
910.57	13944
910.685	13849
910.8	14214
910.915	14107
911.03	13906
911.145	13776
911.259	13811
911.374	13708
911.489	13689
911.604	13662
911.718	13468
911.833	13590
911.947	13392
912.062	13396
912.176	13567
912.291	13658
912.405	13590
912.519	13742
912.633	13807
912.748	13525
912.862	13514
912.976	13400
913.09	13266
913.204	13259
913.318	13381
913.431	13495
913.545	13483
913.659	13578
913.772	13320
913.886	13236
914	13206
914.113	13320
914.226	13445
914.34	13152
914.453	13129
914.566	13339
914.68	13255
914.793	12993
914.906	12894
915.019	12947
915.132	12814
915.245	12852
915.358	12852
915.47	12977
915.583	12848
915.696	12932
915.809	12993
915.921	13000
916.034	12920
916.146	12795
916.259	12715
916.371	12897
916.483	12840
916.595	12798
916.708	12791
916.82	12738
916.932	12738
917.044	12753
917.156	12730
917.268	12536
917.38	12623
917.491	12631
917.603	12616
917.715	12658
917.826	12741
917.938	12528
918.049	12528
918.161	12578
918.272	12627
918.384	12738
918.495	12589
918.606	12448
918.717	12384
918.828	12460
918.939	12448
919.05	12296
919.161	12346
919.272	12148
919.383	12285
919.494	12426
919.604	12627
919.715	12350
919.826	12334
919.936	12407
920.047	12513
920.157	12422
920.267	12532
920.378	12330
920.488	12414
920.598	12597
920.708	12753
920.818	12490
920.928	12502
921.038	12654
921.148	12684
921.258	12407
921.368	12247
921.477	12110
921.587	12133
921.697	12045
921.806	12239
921.916	12091
922.025	11863
922.134	11840
922.244	11771
922.353	11942
922.462	11786
922.571	11657
922.68	11493
922.789	11452
922.898	11589
923.007	11395
923.116	11512
923.224	11402
923.333	11490
923.442	11345
923.55	11341
923.659	11398
923.767	11425
923.876	11280
923.984	11322
924.092	11273
924.201	11273
924.309	11334
924.417	11216
924.525	11280
924.633	11204
924.741	12243
924.849	11006
924.956	11124
925.064	10957
925.172	10904
925.279	10968
925.387	10987
925.494	11029
925.602	11132
925.709	11090
925.816	11014
925.924	10965
926.031	11086
926.138	10965
926.245	10987
926.352	10877
926.459	11014
926.566	11071
926.673	10885
926.779	10881
926.886	10736
926.993	10706
927.099	10694
927.206	10687
927.312	10592
927.419	10740
927.525	10630
927.631	10672
927.737	10580
927.843	10497
927.95	10436
928.056	10497
928.162	10516
928.267	10577
928.373	11201
928.479	10527
928.585	10329
928.69	10554
928.796	10485
928.901	10443
929.007	10265
929.112	10417
929.218	10398
929.323	10265
929.428	10192
929.533	10470
929.638	10265
929.743	10223
929.848	10295
929.953	10268
930.058	10112
930.163	9960
930.267	10063
930.372	10162
930.477	9949
930.581	10158
930.685	9987
930.79	9918
930.894	9850
930.998	9903
931.103	10059
931.207	9614
931.311	9584
931.415	9553
931.519	9344
931.623	9344
