Data from test_V78500241_1066.txt Node
Date: Fri Mar 25 15:49:11 CST 2022
User: usil
Spectrometer: V785-0024
Trigger mode: 0
Integration Time (sec): 4.000000E-1
Scans to average: 1
Nonlinearity correction enabled: false
Boxcar width: 0
Storing dark spectrum: false
XAxis mode: Wavelengths
Number of Pixels in Spectrum: 1024
>>>>>Begin Spectral Data<<<<<
801.071	28466
801.214	28337
801.356	28040
801.499	28063
801.641	27873
801.783	27956
801.926	28097
802.068	27975
802.211	27979
802.353	27816
802.496	27705
802.638	27572
802.78	27625
802.923	27622
803.065	27488
803.208	27568
803.35	27747
803.492	27797
803.635	27751
803.777	27698
803.919	27762
804.061	28074
804.204	27895
804.346	27778
804.488	27812
804.63	27835
804.773	27774
804.915	27705
805.057	27956
805.199	27804
805.341	28063
805.483	28090
805.626	27903
805.768	27835
805.91	27903
806.052	27846
806.194	27994
806.336	28051
806.478	28048
806.62	27998
806.762	28139
806.904	28287
807.046	28550
807.188	28367
807.33	28314
807.472	28459
807.614	28413
807.756	28466
807.898	28261
808.04	28325
808.182	28147
808.324	28337
808.465	28314
808.607	28569
808.749	28763
808.891	28725
809.033	28888
809.174	28660
809.316	28561
809.458	28664
809.6	28622
809.741	28790
809.883	28888
810.025	29022
810.166	29025
810.308	28999
810.45	29083
810.591	28801
810.733	28782
810.875	28675
811.016	28557
811.158	28519
811.299	28900
811.441	28858
811.582	28816
811.724	28721
811.865	28569
812.007	28733
812.148	28725
812.29	28656
812.431	28812
812.573	28953
812.714	29060
812.855	29212
812.997	29307
813.138	29543
813.279	29436
813.421	29284
813.562	29128
813.703	29022
813.845	28839
813.986	28596
814.127	28653
814.268	28417
814.41	28455
814.551	28455
814.692	28474
814.833	28375
814.974	28421
815.115	28367
815.256	28299
815.397	28341
815.539	28234
815.68	28169
815.821	28097
815.962	28154
816.103	28067
816.244	28051
816.385	27998
816.526	27979
816.666	27743
816.807	27690
816.948	27804
817.089	27922
817.23	27892
817.371	27724
817.512	27766
817.653	27713
817.793	27545
817.934	27690
818.075	27641
818.216	27705
818.356	27694
818.497	27557
818.638	27355
818.778	27378
818.919	27393
819.06	27450
819.2	27526
819.341	27637
819.481	27720
819.622	27869
819.762	27983
819.903	27956
820.043	27884
820.184	27835
820.324	27827
820.465	27686
820.605	27823
820.746	27812
820.886	27675
821.026	27694
821.167	27759
821.307	27972
821.447	27797
821.588	27625
821.728	27439
821.868	27340
822.008	27283
822.149	27062
822.289	27157
822.429	26914
822.569	26838
822.709	26861
822.849	26678
822.99	26762
823.13	26693
823.27	26743
823.41	26526
823.55	26415
823.69	26488
823.83	26453
823.97	26423
824.11	26419
824.25	26218
824.389	26362
824.529	26465
824.669	26221
824.809	26393
824.949	26377
825.089	26427
825.228	26328
825.368	26103
825.508	26263
825.648	26317
825.787	26225
825.927	26263
826.067	26271
826.206	26305
826.346	26259
826.485	26259
826.625	26332
826.765	26412
826.904	26210
827.044	26035
827.183	26039
827.323	25879
827.462	25925
827.601	25803
827.741	25856
827.88	25932
828.02	25856
828.159	26043
828.298	25963
828.437	25845
828.577	25799
828.716	26058
828.855	25898
828.994	25681
829.134	25681
829.273	25662
829.412	25651
829.551	25514
829.69	25582
829.829	25639
829.968	25693
830.107	25780
830.246	25597
830.385	25556
830.524	25479
830.663	25487
830.802	25327
830.941	25301
831.08	25259
831.219	25293
831.357	25221
831.496	25533
831.635	25164
831.774	25141
831.913	25012
832.051	24970
832.19	25042
832.329	25042
832.467	24939
832.606	24783
832.744	24779
832.883	24890
833.022	24863
833.16	24886
833.299	24920
833.437	24863
833.576	24867
833.714	25012
833.852	25114
833.991	24905
834.129	24996
834.267	24985
834.406	25004
834.544	25004
834.682	24996
834.821	24928
834.959	25031
835.097	24928
835.235	24890
835.373	24901
835.511	24989
835.65	24825
835.788	24829
835.926	24635
836.064	24665
836.202	24616
836.34	24825
836.478	24825
836.615	24913
836.753	24852
836.891	24890
837.029	24848
837.167	24768
837.305	24608
837.443	24757
837.58	24639
837.718	24745
837.856	24597
837.993	24559
838.131	24544
838.269	24604
838.406	24608
838.544	24380
838.681	24350
838.819	24254
838.956	24194
839.094	24041
839.231	24125
839.369	24194
839.506	24384
839.643	24414
839.781	24072
839.918	24003
840.055	24182
840.193	24049
840.33	23866
840.467	24018
840.604	24011
840.742	24292
840.879	23805
841.016	23916
841.153	23984
841.29	23916
841.427	23954
841.564	24030
841.701	23851
841.838	23992
841.975	23950
842.112	23939
842.249	23866
842.385	23813
842.522	23961
842.659	23714
842.796	23764
842.933	23729
843.069	23646
843.206	23665
843.343	23752
843.479	23798
843.616	23657
843.752	23471
843.889	23463
844.025	23604
844.162	23528
844.298	23524
844.435	23501
844.571	23421
844.708	23619
844.844	23646
844.98	23703
845.117	23573
845.253	23490
845.389	23345
845.525	23330
845.661	23364
845.798	23231
845.934	23356
846.07	23223
846.206	23318
846.342	23406
846.478	23174
846.614	22976
846.75	22980
846.886	22881
847.022	23181
847.158	23003
847.294	23025
847.429	23056
847.565	22820
847.701	23204
847.837	22675
847.972	22759
848.108	22702
848.244	22687
848.379	22698
848.515	22622
848.65	22538
848.786	22649
848.921	22538
849.057	22812
849.192	22675
849.328	22653
849.463	22653
849.598	22531
849.734	22546
849.869	22436
850.004	22265
850.14	22451
850.275	22375
850.41	22196
850.545	22284
850.68	22272
850.815	22375
850.95	22322
851.085	22337
851.22	22459
851.355	22375
851.49	22284
851.625	22268
851.76	22303
851.895	22306
852.03	22276
852.165	22303
852.299	22363
852.434	22474
852.569	22440
852.703	22428
852.838	22257
852.973	22455
853.107	22390
853.242	22314
853.376	22215
853.511	22013
853.645	22131
853.78	22242
853.914	22268
854.048	22162
854.183	22169
854.317	22196
854.451	22162
854.585	22257
854.72	22051
854.854	22314
854.988	22112
855.122	22169
855.256	22036
855.39	22230
855.524	22299
855.658	22375
855.792	22128
855.926	22226
856.06	22200
856.194	22394
856.327	22120
856.461	22177
856.595	22070
856.729	22025
856.862	22192
856.996	22185
857.13	22223
857.263	22314
857.397	22246
857.53	22173
857.664	22246
857.797	22303
857.931	22226
858.064	22223
858.197	22211
858.331	22097
858.464	21994
858.597	22017
858.731	22131
858.864	22154
858.997	22063
859.13	22192
859.263	22242
859.396	22386
859.529	22093
859.662	22059
859.795	22029
859.928	22268
860.061	22375
860.194	22337
860.327	22246
860.46	22253
860.592	22382
860.725	22348
860.858	22386
860.99	22226
861.123	22070
861.256	22249
861.388	22158
861.521	22843
861.653	22036
861.786	22044
861.918	21975
862.05	22097
862.183	22101
862.315	22135
862.447	22063
862.58	21956
862.712	21876
862.844	21854
862.976	22029
863.108	21994
863.24	22314
863.372	21770
863.504	21903
863.636	21873
863.768	21937
863.9	21983
864.032	21766
864.164	21774
864.296	21945
864.428	21865
864.559	21819
864.691	21922
864.823	21949
864.954	21854
865.086	21880
865.217	21770
865.349	21606
865.48	21819
865.612	21793
865.743	21816
865.875	21701
866.006	21797
866.137	21812
866.269	21720
866.4	21717
866.531	21652
866.662	21698
866.793	21633
866.924	21766
867.055	21797
867.186	21785
867.317	21701
867.448	21656
867.579	21644
867.71	21523
867.841	21545
867.972	21804
868.103	21812
868.233	21701
868.364	21606
868.495	21770
868.625	21854
868.756	21975
868.886	21831
869.017	21804
869.147	21975
869.278	21949
869.408	21968
869.539	21949
869.669	21926
869.799	21987
869.929	22067
870.06	22017
870.19	22280
870.32	22249
870.45	22280
870.58	22394
870.71	22474
870.84	22341
870.97	22272
871.1	22337
871.23	22367
871.36	22466
871.489	22428
871.619	22554
871.749	22371
871.879	22550
872.008	22702
872.138	22542
872.267	22421
872.397	22367
872.526	22291
872.656	22348
872.785	22352
872.915	22603
873.044	22687
873.173	22516
873.303	22569
873.432	22626
873.561	22596
873.69	22497
873.819	22664
873.948	22611
874.077	22436
874.206	22512
874.335	22474
874.464	22675
874.593	22740
874.722	22694
874.851	22816
874.979	22892
875.108	22812
875.237	22683
875.365	22645
875.494	22793
875.623	22877
875.751	22713
875.88	22790
876.008	22881
876.136	23018
876.265	23102
876.393	23303
876.521	23200
876.65	23242
876.778	23124
876.906	22991
877.034	23117
877.162	23079
877.29	23003
877.418	23086
877.546	22999
877.674	23090
877.802	23121
877.93	23079
878.058	22957
878.185	22904
878.313	22892
878.441	23162
878.568	22850
878.696	23136
878.824	23204
878.951	23113
879.079	23330
879.206	23425
879.333	23273
879.461	23303
879.588	23140
879.715	23296
879.842	23341
879.97	23189
880.097	22934
880.224	22976
880.351	23018
880.478	23003
880.605	22889
880.732	22904
880.859	23102
880.986	22896
881.112	22942
881.239	22801
881.366	22622
881.493	22535
881.619	22440
881.746	22561
881.872	22527
881.999	22421
882.125	22451
882.252	22443
882.378	22485
882.505	22382
882.631	22280
882.757	22230
882.883	22249
883.01	22223
883.136	22135
883.262	22025
883.388	21983
883.514	22105
883.64	22055
883.766	22166
883.892	21884
884.018	21922
884.143	22169
884.269	22070
884.395	21861
884.52	21743
884.646	21778
884.772	21732
884.897	21827
885.023	21679
885.148	21972
885.274	21941
885.399	21979
885.524	21747
885.65	21732
885.775	21861
885.9	21694
886.025	21915
886.15	21781
886.275	21835
886.4	21660
886.525	21915
886.65	21652
886.775	21736
886.9	21945
887.025	21956
887.149	21690
887.274	21580
887.399	21587
887.523	21549
887.648	21500
887.773	21420
887.897	21606
888.021	21671
888.146	21431
888.27	21572
888.395	21660
888.519	21606
888.643	21538
888.767	21500
888.891	21466
889.015	21386
889.139	21492
889.263	21340
889.387	21462
889.511	21637
889.635	21488
889.759	21336
889.883	21348
890.006	21386
890.13	21462
890.254	21237
890.377	21325
890.501	21009
890.624	21043
890.748	21306
890.871	20902
890.995	21036
891.118	20857
891.241	20956
891.364	20815
891.488	21024
891.611	20956
891.734	20921
891.857	20941
891.98	20876
892.103	20952
892.226	21055
892.349	20731
892.471	20815
892.594	20861
892.717	20933
892.839	20746
892.962	20861
893.085	20941
893.207	20720
893.33	20594
893.452	20720
893.575	20800
893.697	20792
893.819	20883
893.941	21066
894.064	20948
894.186	20632
894.308	20598
894.43	20902
894.552	20941
894.674	20838
894.796	20750
894.918	20754
895.04	20686
895.161	20788
895.283	20785
895.405	20781
895.526	20754
895.648	20785
895.769	20804
895.891	20765
896.012	20773
896.134	20937
896.255	20807
896.376	20800
896.498	20708
896.619	20883
896.74	20826
896.861	20921
896.982	21055
897.103	21291
897.224	21062
897.345	20986
897.466	20933
897.587	20944
897.708	21176
897.828	21017
897.949	20952
898.07	20834
898.19	21001
898.311	21108
898.431	20960
898.552	20990
898.672	20971
898.792	20876
898.913	20918
899.033	20899
899.153	20876
899.273	20686
899.393	20758
899.513	20785
899.633	20765
899.753	20689
899.873	20670
899.993	20815
900.113	20655
900.232	20632
900.352	20587
900.472	20560
900.591	20473
900.711	20537
900.83	20454
900.95	20609
901.069	20636
901.189	20419
901.308	20183
901.427	20115
901.546	20043
901.665	20096
901.784	20081
901.904	19852
902.023	19803
902.141	19655
902.26	19700
902.379	19689
902.498	19525
902.617	19548
902.735	19635
902.854	19514
902.973	19548
903.091	19285
903.21	19213
903.328	19289
903.446	19114
903.565	18947
903.683	19057
903.801	18939
903.919	19057
904.038	19069
904.156	18787
904.274	18856
904.392	18886
904.51	18696
904.627	18738
904.745	18863
904.863	18886
904.981	18623
905.098	18445
905.216	18456
905.334	18479
905.451	18471
905.569	18372
905.686	18513
905.803	18509
905.921	18155
906.038	18395
906.155	18224
906.272	18216
906.389	18083
906.506	18087
906.623	18034
906.74	17996
906.857	17760
906.974	17851
907.091	18034
907.208	18140
907.324	17923
907.441	17832
907.557	17623
907.674	17733
907.79	17589
907.907	17672
908.023	17729
908.139	17623
908.256	17665
908.372	17627
908.488	17543
908.604	17414
908.72	17299
908.836	17444
908.952	17299
909.068	17433
909.184	17505
909.3	17547
909.415	17490
909.531	17497
909.647	17193
909.762	17109
909.878	17250
909.993	17109
910.108	17056
910.224	17052
910.339	17086
910.454	17003
910.57	16965
910.685	16968
910.8	17136
910.915	17083
911.03	16900
911.145	16767
911.259	16713
911.374	16653
911.489	16645
911.604	16558
911.718	16405
911.833	16508
911.947	16356
912.062	16314
912.176	16493
912.291	16558
912.405	16432
912.519	16710
912.633	16721
912.748	16584
912.862	16466
912.976	16242
913.09	16128
913.204	16135
913.318	16215
913.431	16329
913.545	16386
913.659	16382
913.772	16162
913.886	16029
914	16040
914.113	16109
914.226	16166
914.34	16036
914.453	15930
914.566	16048
914.68	15861
914.793	15922
914.906	15736
915.019	15694
915.132	15622
915.245	15663
915.358	15724
915.47	15587
915.583	15671
915.696	15572
915.809	15766
915.921	15698
916.034	15595
916.146	15568
916.259	15492
916.371	15663
916.483	15587
916.595	15473
916.708	15431
916.82	15454
916.932	15496
917.044	15450
917.156	15272
917.268	15275
917.38	15367
917.491	15249
917.603	15332
917.715	15332
917.826	15287
917.938	15176
918.049	15241
918.161	15256
918.272	15294
918.384	15260
918.495	15165
918.606	15070
918.717	14921
918.828	15127
918.939	15036
919.05	14975
919.161	15070
919.272	14724
919.383	14876
919.494	14975
919.604	15081
919.715	15005
919.826	14902
919.936	14952
920.047	15043
920.157	15005
920.267	15100
920.378	14956
920.488	15032
920.598	15093
920.708	15291
920.818	15062
920.928	15070
921.038	15249
921.148	15138
921.258	14971
921.368	14819
921.477	14765
921.587	14705
921.697	14587
921.806	14708
921.916	14564
922.025	14408
922.134	14358
922.244	14290
922.353	14385
922.462	14164
922.571	14092
922.68	14073
922.789	13951
922.898	14084
923.007	13928
923.116	13947
923.224	13955
923.333	13921
923.442	13898
923.55	13807
923.659	13814
923.767	13868
923.876	13696
923.984	13750
924.092	13670
924.201	13791
924.309	13757
924.417	13616
924.525	13624
924.633	13601
924.741	14427
924.849	13483
924.956	13571
925.064	13365
925.172	13297
925.279	13377
925.387	13403
925.494	13365
925.602	13460
925.709	13426
925.816	13156
925.924	13244
926.031	13343
926.138	13308
926.245	13293
926.352	13179
926.459	13335
926.566	13411
926.673	13259
926.779	13103
926.886	13099
926.993	12951
927.099	12901
927.206	12833
927.312	12894
927.419	13004
927.525	12856
927.631	13008
927.737	12833
927.843	12719
927.95	12650
928.056	12764
928.162	12738
928.267	12871
928.373	13228
928.479	12814
928.585	12593
928.69	12681
928.796	12734
928.901	12578
929.007	12448
929.112	12566
929.218	12555
929.323	12483
929.428	12460
929.533	12551
929.638	12410
929.743	12327
929.848	12414
929.953	12410
930.058	12338
930.163	12171
930.267	12144
930.372	12350
930.477	12060
930.581	12403
930.685	12197
930.79	11980
930.894	12110
930.998	11942
931.103	11999
931.207	11703
931.311	11703
931.415	11524
931.519	11459
931.623	11315
