Data from test_V78500241_933.txt Node
Date: Fri Mar 25 15:48:15 CST 2022
User: usil
Spectrometer: V785-0024
Trigger mode: 0
Integration Time (sec): 4.000000E-1
Scans to average: 1
Nonlinearity correction enabled: false
Boxcar width: 0
Storing dark spectrum: false
XAxis mode: Wavelengths
Number of Pixels in Spectrum: 1024
>>>>>Begin Spectral Data<<<<<
801.071	28557
801.214	28390
801.356	28230
801.499	28158
801.641	27994
801.783	28105
801.926	28120
802.068	28051
802.211	28067
802.353	27827
802.496	27762
802.638	27751
802.78	27842
802.923	27698
803.065	27523
803.208	27705
803.35	27770
803.492	27755
803.635	27922
803.777	27979
803.919	27914
804.061	28147
804.204	27888
804.346	27907
804.488	27941
804.63	27861
804.773	27762
804.915	28048
805.057	27899
805.199	27934
805.341	27926
805.483	28055
805.626	28017
805.768	28013
805.91	28078
806.052	28086
806.194	28120
806.336	28162
806.478	28101
806.62	28131
806.762	28196
806.904	28341
807.046	28599
807.188	28516
807.33	28687
807.472	28531
807.614	28462
807.756	28466
807.898	28542
808.04	28447
808.182	28318
808.324	28500
808.465	28478
808.607	28546
808.749	28809
808.891	28854
809.033	29064
809.174	28824
809.316	28725
809.458	28729
809.6	28759
809.741	28976
809.883	28953
810.025	29200
810.166	29166
810.308	29181
810.45	29090
810.591	29064
810.733	29010
810.875	28854
811.016	28687
811.158	28653
811.299	28919
811.441	28976
811.582	28915
811.724	28752
811.865	28763
812.007	28828
812.148	28744
812.29	28987
812.431	28930
812.573	29113
812.714	29269
812.855	29307
812.997	29482
813.138	29585
813.279	29490
813.421	29391
813.562	29258
813.703	29128
813.845	29060
813.986	28767
814.127	28786
814.268	28470
814.41	28519
814.551	28504
814.692	28615
814.833	28561
814.974	28481
815.115	28607
815.256	28417
815.397	28527
815.539	28428
815.68	28401
815.821	28192
815.962	28280
816.103	28333
816.244	28280
816.385	28169
816.526	28082
816.666	27869
816.807	27800
816.948	27873
817.089	27983
817.23	27846
817.371	27797
817.512	27793
817.653	27781
817.793	27934
817.934	27778
818.075	27854
818.216	27835
818.356	27850
818.497	27739
818.638	27614
818.778	27507
818.919	27549
819.06	27603
819.2	27747
819.341	27747
819.481	27694
819.622	27991
819.762	28162
819.903	28082
820.043	27987
820.184	28025
820.324	27972
820.465	28051
820.605	27972
820.746	27998
820.886	27762
821.026	27960
821.167	27819
821.307	27979
821.447	27873
821.588	27808
821.728	27637
821.868	27431
822.008	27389
822.149	27317
822.289	27313
822.429	27017
822.569	27017
822.709	26998
822.849	26842
822.99	26883
823.13	26868
823.27	26819
823.41	26686
823.55	26423
823.69	26511
823.83	26659
823.97	26514
824.11	26263
824.25	26309
824.389	26431
824.529	26594
824.669	26484
824.809	26549
824.949	26476
825.089	26587
825.228	26579
825.368	26298
825.508	26374
825.648	26286
825.787	26355
825.927	26404
826.067	26347
826.206	26393
826.346	26305
826.485	26560
826.625	26332
826.765	26415
826.904	26450
827.044	26058
827.183	26100
827.323	26058
827.462	26035
827.601	26111
827.741	26142
827.88	26149
828.02	25917
828.159	26008
828.298	25978
828.437	26065
828.577	26012
828.716	26134
828.855	25963
828.994	25696
829.134	25723
829.273	25811
829.412	25780
829.551	25731
829.69	25757
829.829	25803
829.968	25814
830.107	25772
830.246	25655
830.385	25811
830.524	25521
830.663	25514
830.802	25487
830.941	25377
831.08	25320
831.219	25499
831.357	25487
831.496	25514
831.635	25419
831.774	25266
831.913	25213
832.051	25160
832.19	25171
832.329	25240
832.467	25004
832.606	25046
832.744	24856
832.883	25046
833.022	24985
833.16	24947
833.299	25190
833.437	25114
833.576	25000
833.714	25168
833.852	25008
833.991	25103
834.129	25194
834.267	25065
834.406	25122
834.544	25103
834.682	25148
834.821	25061
834.959	25225
835.097	24989
835.235	25175
835.373	25107
835.511	24928
835.65	24852
835.788	25008
835.926	24817
836.064	24806
836.202	24821
836.34	24916
836.478	25091
836.615	24886
836.753	24859
836.891	24973
837.029	24825
837.167	24817
837.305	24798
837.443	24700
837.58	24768
837.718	24749
837.856	24795
837.993	24623
838.131	24757
838.269	24551
838.406	24528
838.544	24585
838.681	24566
838.819	24350
838.956	24194
839.094	24235
839.231	24270
839.369	24372
839.506	24722
839.643	24460
839.781	24186
839.918	24224
840.055	24251
840.193	24076
840.33	24144
840.467	24136
840.604	24235
840.742	24376
840.879	23908
841.016	24102
841.153	24083
841.29	24133
841.427	24110
841.564	24087
841.701	24076
841.838	24129
841.975	24083
842.112	24045
842.249	23958
842.385	23901
842.522	24117
842.659	23931
842.796	23836
842.933	23950
843.069	23855
843.206	23874
843.343	23904
843.479	23767
843.616	23863
843.752	23672
843.889	23710
844.025	23684
844.162	23623
844.298	23707
844.435	23543
844.571	23653
844.708	23668
844.844	23870
844.98	23767
845.117	23817
845.253	23482
845.389	23528
845.525	23467
845.661	23585
845.798	23421
845.934	23406
846.07	23288
846.206	23326
846.342	23509
846.478	23280
846.614	23162
846.75	22980
846.886	23102
847.022	23208
847.158	23136
847.294	23041
847.429	23067
847.565	23128
847.701	23311
847.837	22809
847.972	22805
848.108	22957
848.244	22957
848.379	22615
848.515	22531
848.65	22649
848.786	22786
848.921	22664
849.057	22736
849.192	22771
849.328	22649
849.463	22637
849.598	22592
849.734	22615
849.869	22603
850.004	22428
850.14	22459
850.275	22641
850.41	22356
850.545	22375
850.68	22432
850.815	22577
850.95	22485
851.085	22573
851.22	22565
851.355	22405
851.49	22466
851.625	22265
851.76	22577
851.895	22386
852.03	22348
852.165	22440
852.299	22466
852.434	22504
852.569	22432
852.703	22447
852.838	22535
852.973	22531
853.107	22637
853.242	22333
853.376	22204
853.511	22143
853.645	22284
853.78	22405
853.914	22382
854.048	22143
854.183	22265
854.317	22234
854.451	22474
854.585	22223
854.72	22276
854.854	22299
854.988	22272
855.122	22162
855.256	22188
855.39	22169
855.524	22276
855.658	22303
855.792	22261
855.926	22226
856.06	22291
856.194	22299
856.327	22238
856.461	22246
856.595	22291
856.729	22272
856.862	22329
856.996	22230
857.13	22322
857.263	22466
857.397	22367
857.53	22223
857.664	22249
857.797	22360
857.931	22303
858.064	22291
858.197	22447
858.331	22310
858.464	22166
858.597	22109
858.731	22253
858.864	22238
858.997	22223
859.13	22280
859.263	22306
859.396	22409
859.529	22287
859.662	22166
859.795	22166
859.928	22386
860.061	22405
860.194	22402
860.327	22348
860.46	22322
860.592	22261
860.725	22356
860.858	22386
860.99	22196
861.123	22329
861.256	22204
861.388	22223
861.521	22953
861.653	22131
861.786	22055
861.918	22013
862.05	22166
862.183	22067
862.315	22154
862.447	22234
862.58	22143
862.712	22010
862.844	21968
862.976	22002
863.108	22040
863.24	22318
863.372	21949
863.504	21907
863.636	22063
863.768	21941
863.9	21945
864.032	21926
864.164	22025
864.296	21854
864.428	22074
864.559	21903
864.691	21994
864.823	21895
864.954	21934
865.086	21968
865.217	21873
865.349	21747
865.48	21880
865.612	21747
865.743	21960
865.875	21778
866.006	21846
866.137	21819
866.269	21823
866.4	21785
866.531	21880
866.662	21785
866.793	21854
866.924	21778
867.055	21827
867.186	21732
867.317	21778
867.448	21667
867.579	21675
867.71	21720
867.841	21663
867.972	21690
868.103	21774
868.233	21827
868.364	21736
868.495	21907
868.625	21953
868.756	22128
868.886	21983
869.017	21975
869.147	22082
869.278	22105
869.408	22040
869.539	22010
869.669	22143
869.799	22109
869.929	22223
870.06	22116
870.19	22367
870.32	22211
870.45	22325
870.58	22413
870.71	22546
870.84	22569
870.97	22421
871.1	22352
871.23	22634
871.36	22596
871.489	22497
871.619	22542
871.749	22565
871.879	22611
872.008	22584
872.138	22649
872.267	22599
872.397	22493
872.526	22516
872.656	22455
872.785	22451
872.915	22626
873.044	22763
873.173	22675
873.303	22679
873.432	22854
873.561	22725
873.69	22713
873.819	22634
873.948	22660
874.077	22668
874.206	22615
874.335	22721
874.464	22698
874.593	22946
874.722	22774
874.851	22957
874.979	22892
875.108	22869
875.237	22877
875.365	22790
875.494	22869
875.623	22889
875.751	22873
875.88	22938
876.008	22968
876.136	22980
876.265	23246
876.393	23414
876.521	23414
876.65	23353
876.778	23246
876.906	23208
877.034	23159
877.162	23204
877.29	23094
877.418	23254
877.546	23231
877.674	23143
877.802	23258
877.93	23231
878.058	23223
878.185	22965
878.313	23151
878.441	23143
878.568	23025
878.696	23033
878.824	23284
878.951	23387
879.079	23379
879.206	23490
879.333	23467
879.461	23105
879.588	23288
879.715	23471
879.842	23395
879.97	23216
880.097	22968
880.224	22980
880.351	23189
880.478	22972
880.605	23044
880.732	22946
880.859	23185
880.986	23044
881.112	22976
881.239	22843
881.366	22831
881.493	22664
881.619	22565
881.746	22573
881.872	22622
881.999	22599
882.125	22478
882.252	22645
882.378	22508
882.505	22649
882.631	22402
882.757	22299
882.883	22447
883.01	22306
883.136	22291
883.262	22196
883.388	22261
883.514	22287
883.64	22318
883.766	22284
883.892	22105
884.018	22097
884.143	22306
884.269	22287
884.395	21964
884.52	21880
884.646	21968
884.772	21850
884.897	21899
885.023	21918
885.148	22032
885.274	22116
885.399	22059
885.524	21903
885.65	21857
885.775	21956
885.9	21865
886.025	22002
886.15	21979
886.275	21793
886.4	21846
886.525	21827
886.65	21816
886.775	21831
886.9	21983
887.025	22067
887.149	21835
887.274	21781
887.399	21610
887.523	21698
887.648	21625
887.773	21511
887.897	21682
888.021	21625
888.146	21694
888.27	21793
888.395	21698
888.519	21705
888.643	21564
888.767	21648
888.891	21523
889.015	21511
889.139	21439
889.263	21504
889.387	21576
889.511	21743
889.635	21519
889.759	21545
889.883	21363
890.006	21477
890.13	21477
890.254	21382
890.377	21412
890.501	21161
890.624	21184
890.748	21348
890.871	21165
890.995	20952
891.118	21036
891.241	21043
891.364	20944
891.488	21199
891.611	21131
891.734	21005
891.857	21009
891.98	21005
892.103	21104
892.226	20838
892.349	21047
892.471	20739
892.594	20925
892.717	20891
892.839	20830
892.962	20861
893.085	20902
893.207	20948
893.33	20941
893.452	20785
893.575	20800
893.697	20830
893.819	21108
893.941	21089
894.064	21051
894.186	20899
894.308	20781
894.43	20994
894.552	21081
894.674	20994
894.796	20792
894.918	20811
895.04	20800
895.161	20982
895.283	20986
895.405	20804
895.526	20902
895.648	20785
895.769	20849
895.891	20929
896.012	21036
896.134	20963
896.255	20864
896.376	20937
896.498	20807
896.619	20948
896.74	20883
896.861	20952
896.982	21131
897.103	21424
897.224	21089
897.345	21142
897.466	21009
897.587	21066
897.708	21249
897.828	21230
897.949	21104
898.07	21001
898.19	21024
898.311	21081
898.431	21116
898.552	21104
898.672	21047
898.792	21184
898.913	21169
899.033	21047
899.153	20857
899.273	20921
899.393	20785
899.513	20857
899.633	20883
899.753	20853
899.873	20895
899.993	20857
900.113	20746
900.232	20876
900.352	20697
900.472	20602
900.591	20602
900.711	20454
900.83	20465
900.95	20667
901.069	20621
901.189	20499
901.308	20244
901.427	20149
901.546	20119
901.665	20278
901.784	20126
901.904	19947
902.023	19928
902.141	19799
902.26	19761
902.379	19772
902.498	19693
902.617	19655
902.735	19708
902.854	19666
902.973	19521
903.091	19335
903.21	19343
903.328	19350
903.446	19198
903.565	19046
903.683	19289
903.801	19015
903.919	19095
904.038	19027
904.156	18871
904.274	19034
904.392	18886
904.51	18939
904.627	18871
904.745	18894
904.863	18840
904.981	18661
905.098	18696
905.216	18563
905.334	18635
905.451	18551
905.569	18559
905.686	18658
905.803	18502
905.921	18330
906.038	18426
906.155	18350
906.272	18262
906.389	18285
906.506	18045
906.623	17988
906.74	18106
906.857	17939
906.974	18026
907.091	18182
907.208	18155
907.324	18095
907.441	17992
907.557	17866
907.674	17756
907.79	17802
907.907	17745
908.023	17779
908.139	17866
908.256	17707
908.372	17783
908.488	17714
908.604	17615
908.72	17509
908.836	17535
908.952	17505
909.068	17512
909.184	17611
909.3	17524
909.415	17474
909.531	17558
909.647	17299
909.762	17242
909.878	17292
909.993	17193
910.108	17086
910.224	17132
910.339	17170
910.454	17045
910.57	16991
910.685	16927
910.8	17200
910.915	17151
911.03	16957
911.145	16793
911.259	16797
911.374	16725
911.489	16645
911.604	16653
911.718	16459
911.833	16531
911.947	16516
912.062	16398
912.176	16618
912.291	16402
912.405	16516
912.519	16694
912.633	16626
912.748	16546
912.862	16512
912.976	16409
913.09	16291
913.204	16253
913.318	16386
913.431	16531
913.545	16497
913.659	16470
913.772	16344
913.886	16181
914	16116
914.113	16219
914.226	16242
914.34	16196
914.453	16131
914.566	16185
914.68	16025
914.793	15907
914.906	15781
915.019	15789
915.132	15629
915.245	15652
915.358	15816
915.47	15728
915.583	15713
915.696	15717
915.809	15743
915.921	15819
916.034	15675
916.146	15629
916.259	15580
916.371	15679
916.483	15671
916.595	15428
916.708	15610
916.82	15526
916.932	15557
917.044	15504
917.156	15443
917.268	15408
917.38	15401
917.491	15401
917.603	15351
917.715	15477
917.826	15367
917.938	15256
918.049	15207
918.161	15245
918.272	15424
918.384	15272
918.495	15325
918.606	15154
918.717	15093
918.828	15070
918.939	15188
919.05	15062
919.161	15146
919.272	14857
919.383	14918
919.494	15165
919.604	15161
919.715	15097
919.826	14967
919.936	15039
920.047	15043
920.157	15165
920.267	15329
920.378	15062
920.488	15081
920.598	15173
920.708	15325
920.818	15195
920.928	15123
921.038	15332
921.148	15291
921.258	14918
921.368	14921
921.477	14785
921.587	14777
921.697	14629
921.806	14792
921.916	14651
922.025	14484
922.134	14533
922.244	14431
922.353	14427
922.462	14320
922.571	14252
922.68	14172
922.789	14123
922.898	14035
923.007	13974
923.116	14031
923.224	14039
923.333	14062
923.442	13902
923.55	13833
923.659	13875
923.767	13849
923.876	13883
923.984	13967
924.092	13776
924.201	13776
924.309	13753
924.417	13826
924.525	13791
924.633	13791
924.741	14590
924.849	13563
924.956	13628
925.064	13407
925.172	13430
925.279	13411
925.387	13460
925.494	13388
925.602	13601
925.709	13499
925.816	13301
925.924	13327
926.031	13460
926.138	13449
926.245	13472
926.352	13278
926.459	13411
926.566	13449
926.673	13198
926.779	13137
926.886	13095
926.993	13061
927.099	12958
927.206	12951
927.312	12859
927.419	13114
927.525	13000
927.631	12962
927.737	12863
927.843	12806
927.95	12646
928.056	12753
928.162	12802
928.267	12871
928.373	13312
928.479	12939
928.585	12623
928.69	12779
928.796	12894
928.901	12593
929.007	12448
929.112	12620
929.218	12688
929.323	12578
929.428	12517
929.533	12627
929.638	12410
929.743	12460
929.848	12517
929.953	12494
930.058	12369
930.163	12159
930.267	12190
930.372	12300
930.477	12171
930.581	12338
930.685	12285
930.79	12076
930.894	12114
930.998	12019
931.103	12121
931.207	11779
931.311	11813
931.415	11752
931.519	11501
931.623	11425
