Data from test_V78500241_1020.txt Node
Date: Fri Mar 25 15:48:52 CST 2022
User: usil
Spectrometer: V785-0024
Trigger mode: 0
Integration Time (sec): 4.000000E-1
Scans to average: 1
Nonlinearity correction enabled: false
Boxcar width: 0
Storing dark spectrum: false
XAxis mode: Wavelengths
Number of Pixels in Spectrum: 1024
>>>>>Begin Spectral Data<<<<<
801.071	27979
801.214	27895
801.356	27774
801.499	27603
801.641	27671
801.783	27663
801.926	27663
802.068	27557
802.211	27690
802.353	27538
802.496	27302
802.638	27138
802.78	27272
802.923	27184
803.065	27192
803.208	27222
803.35	27233
803.492	27374
803.635	27374
803.777	27222
803.919	27412
804.061	27736
804.204	27458
804.346	27363
804.488	27317
804.63	27462
804.773	27287
804.915	27427
805.057	27633
805.199	27462
805.341	27526
805.483	27561
805.626	27572
805.768	27542
805.91	27561
806.052	27557
806.194	27652
806.336	27926
806.478	27770
806.62	27587
806.762	27953
806.904	27945
807.046	28051
807.188	28070
807.33	28139
807.472	28090
807.614	27987
807.756	27865
807.898	28021
808.04	27800
808.182	27911
808.324	27865
808.465	27975
808.607	28078
808.749	28238
808.891	28478
809.033	28356
809.174	28447
809.316	28322
809.458	28291
809.6	28177
809.741	28409
809.883	28519
810.025	28615
810.166	28523
810.308	28554
810.45	28508
810.591	28417
810.733	28322
810.875	28287
811.016	28257
811.158	28196
811.299	28169
811.441	28451
811.582	28443
811.724	28352
811.865	28405
812.007	28234
812.148	28386
812.29	28333
812.431	28379
812.573	28649
812.714	28759
812.855	28767
812.997	28843
813.138	29018
813.279	28847
813.421	28748
813.562	28854
813.703	28755
813.845	28466
813.986	28219
814.127	28135
814.268	27964
814.41	28032
814.551	27979
814.692	28154
814.833	27835
814.974	28006
815.115	28013
815.256	27873
815.397	27789
815.539	27808
815.68	27743
815.821	27682
815.962	27812
816.103	27732
816.244	27679
816.385	27424
816.526	27591
816.666	27344
816.807	27294
816.948	27374
817.089	27435
817.23	27351
817.371	27336
817.512	27363
817.653	27310
817.793	27207
817.934	27416
818.075	27310
818.216	27233
818.356	27184
818.497	27161
818.638	27001
818.778	27017
818.919	27051
819.06	27161
819.2	27184
819.341	27249
819.481	27268
819.622	27351
819.762	27663
819.903	27671
820.043	27397
820.184	27435
820.324	27427
820.465	27393
820.605	27507
820.746	27458
820.886	27329
821.026	27462
821.167	27306
821.307	27344
821.447	27386
821.588	27222
821.728	27043
821.868	26975
822.008	26811
822.149	26697
822.289	26636
822.429	26564
822.569	26412
822.709	26419
822.849	26320
822.99	26267
823.13	26294
823.27	26157
823.41	26065
823.55	26005
823.69	26084
823.83	26035
823.97	26024
824.11	26069
824.25	25864
824.389	25894
824.529	26107
824.669	25890
824.809	26077
824.949	25982
825.089	26103
825.228	26035
825.368	25772
825.508	25753
825.648	25742
825.787	25772
825.927	25822
826.067	25776
826.206	25814
826.346	25788
826.485	25871
826.625	25700
826.765	25940
826.904	25921
827.044	25525
827.183	25533
827.323	25384
827.462	25590
827.601	25487
827.741	25483
827.88	25502
828.02	25373
828.159	25453
828.298	25518
828.437	25548
828.577	25438
828.716	25571
828.855	25487
828.994	25088
829.134	25171
829.273	25198
829.412	25164
829.551	25164
829.69	25141
829.829	25175
829.968	25221
830.107	25187
830.246	25171
830.385	25103
830.524	25072
830.663	25000
830.802	24844
830.941	24753
831.08	24700
831.219	24897
831.357	24916
831.496	25084
831.635	24825
831.774	24779
831.913	24738
832.051	24536
832.19	24544
832.329	24566
832.467	24410
832.606	24429
832.744	24441
832.883	24467
833.022	24433
833.16	24532
833.299	24494
833.437	24486
833.576	24532
833.714	24540
833.852	24620
833.991	24483
834.129	24681
834.267	24639
834.406	24528
834.544	24505
834.682	24483
834.821	24414
834.959	24665
835.097	24407
835.235	24433
835.373	24612
835.511	24380
835.65	24361
835.788	24486
835.926	24254
836.064	24174
836.202	24159
836.34	24285
836.478	24547
836.615	24285
836.753	24460
836.891	24456
837.029	24456
837.167	24414
837.305	24254
837.443	24121
837.58	24095
837.718	24251
837.856	24300
837.993	24174
838.131	24133
838.269	24133
838.406	24072
838.544	24083
838.681	23824
838.819	23843
838.956	23668
839.094	23649
839.231	23722
839.369	23882
839.506	24072
839.643	23832
839.781	23668
839.918	23691
840.055	23608
840.193	23695
840.33	23535
840.467	23581
840.604	23649
840.742	23904
840.879	23433
841.016	23581
841.153	23467
841.29	23653
841.427	23482
841.564	23528
841.701	23608
841.838	23482
841.975	23474
842.112	23535
842.249	23341
842.385	23292
842.522	23501
842.659	23547
842.796	23246
842.933	23220
843.069	23258
843.206	23193
843.343	23440
843.479	23368
843.616	23391
843.752	23181
843.889	23124
844.025	23208
844.162	22934
844.298	23174
844.435	22984
844.571	23003
844.708	23155
844.844	23235
844.98	23181
845.117	23140
845.253	23121
845.389	22995
845.525	23029
845.661	22927
845.798	22847
845.934	22946
846.07	22797
846.206	22809
846.342	22873
846.478	22721
846.614	22577
846.75	22607
846.886	22550
847.022	22615
847.158	22538
847.294	22527
847.429	22561
847.565	22531
847.701	22706
847.837	22226
847.972	22226
848.108	22261
848.244	22402
848.379	22238
848.515	22135
848.65	22078
848.786	22139
848.921	22109
849.057	22238
849.192	22211
849.328	22158
849.463	22314
849.598	22059
849.734	22120
849.869	22017
850.004	21838
850.14	21857
850.275	21994
850.41	21842
850.545	21895
850.68	21941
850.815	21972
850.95	21953
851.085	22044
851.22	21915
851.355	21922
851.49	21873
851.625	21869
851.76	21819
851.895	21888
852.03	21698
852.165	21972
852.299	21941
852.434	21991
852.569	21842
852.703	21987
852.838	21888
852.973	22109
853.107	22078
853.242	21827
853.376	21819
853.511	21515
853.645	21682
853.78	21876
853.914	21785
854.048	21747
854.183	21644
854.317	21644
854.451	21838
854.585	21720
854.72	21675
854.854	21751
854.988	21622
855.122	21812
855.256	21629
855.39	21785
855.524	21690
855.658	21747
855.792	21838
855.926	21781
856.06	21732
856.194	21785
856.327	21778
856.461	21641
856.595	21686
856.729	21781
856.862	21846
856.996	21759
857.13	21816
857.263	21922
857.397	21739
857.53	21720
857.664	21747
857.797	21751
857.931	21785
858.064	21831
858.197	21774
858.331	21797
858.464	21637
858.597	21656
858.731	21705
858.864	21679
858.997	21614
859.13	21766
859.263	21831
859.396	21911
859.529	21682
859.662	21778
859.795	21747
859.928	21797
860.061	21979
860.194	21945
860.327	21793
860.46	21675
860.592	21827
860.725	22013
860.858	21899
860.99	21827
861.123	21606
861.256	21618
861.388	21682
861.521	22634
861.653	21599
861.786	21633
861.918	21538
862.05	21622
862.183	21625
862.315	21660
862.447	21831
862.58	21595
862.712	21325
862.844	21405
862.976	21504
863.108	21530
863.24	21899
863.372	21500
863.504	21405
863.636	21336
863.768	21370
863.9	21367
864.032	21408
864.164	21515
864.296	21511
864.428	21545
864.559	21557
864.691	21443
864.823	21523
864.954	21511
865.086	21431
865.217	21287
865.349	21313
865.48	21313
865.612	21283
865.743	21367
865.875	21428
866.006	21325
866.137	21363
866.269	21340
866.4	21416
866.531	21378
866.662	21146
866.793	21199
866.924	21142
867.055	21237
867.186	21214
867.317	21363
867.448	21116
867.579	21180
867.71	21188
867.841	21180
867.972	21272
868.103	21249
868.233	21256
868.364	21275
868.495	21332
868.625	21568
868.756	21462
868.886	21359
869.017	21458
869.147	21576
869.278	21610
869.408	21603
869.539	21511
869.669	21637
869.799	21625
869.929	21660
870.06	21610
870.19	21804
870.32	21724
870.45	21819
870.58	21987
870.71	22063
870.84	21983
870.97	21884
871.1	21949
871.23	22055
871.36	22063
871.489	21979
871.619	22051
871.749	22044
871.879	22097
872.008	22223
872.138	22082
872.267	21991
872.397	22048
872.526	21876
872.656	21998
872.785	21979
872.915	22124
873.044	22223
873.173	22051
873.303	22246
873.432	22143
873.561	22109
873.69	22211
873.819	22093
873.948	22177
874.077	22112
874.206	22029
874.335	22093
874.464	22223
874.593	22421
874.722	22246
874.851	22356
874.979	22287
875.108	22287
875.237	22394
875.365	22356
875.494	22318
875.623	22291
875.751	22173
875.88	22386
876.008	22550
876.136	22622
876.265	22698
876.393	22809
876.521	22786
876.65	22816
876.778	22850
876.906	22641
877.034	22664
877.162	22622
877.29	22641
877.418	22774
877.546	22828
877.674	22656
877.802	22596
877.93	22653
878.058	22577
878.185	22622
878.313	22706
878.441	22634
878.568	22500
878.696	22580
878.824	22706
878.951	22721
879.079	22854
879.206	22991
879.333	22892
879.461	22653
879.588	22805
879.715	22927
879.842	22965
879.97	22767
880.097	22447
880.224	22402
880.351	22535
880.478	22561
880.605	22428
880.732	22630
880.859	22752
880.986	22386
881.112	22516
881.239	22318
881.366	22333
881.493	22177
881.619	22101
881.746	22185
881.872	22032
881.999	22032
882.125	22055
882.252	22185
882.378	22029
882.505	22169
882.631	21895
882.757	21800
882.883	21823
883.01	21755
883.136	21747
883.262	21694
883.388	21606
883.514	21732
883.64	21804
883.766	21660
883.892	21443
884.018	21534
884.143	21679
884.269	21926
884.395	21454
884.52	21268
884.646	21496
884.772	21450
884.897	21264
885.023	21454
885.148	21545
885.274	21519
885.399	21488
885.524	21500
885.65	21431
885.775	21424
885.9	21466
886.025	21557
886.15	21526
886.275	21481
886.4	21237
886.525	21336
886.65	21287
886.775	21336
886.9	21580
887.025	21667
887.149	21435
887.274	21367
887.399	21081
887.523	21150
887.648	21055
887.773	21081
887.897	21176
888.021	21214
888.146	21001
888.27	21154
888.395	21150
888.519	21074
888.643	21195
888.767	21093
888.891	21119
889.015	21039
889.139	21112
889.263	20864
889.387	21096
889.511	21169
889.635	21135
889.759	21020
889.883	20944
890.006	20918
890.13	20990
890.254	20933
890.377	20883
890.501	20796
890.624	20632
890.748	20773
890.871	20545
890.995	20587
891.118	20438
891.241	20415
891.364	20571
891.488	20575
891.611	20609
891.734	20594
891.857	20598
891.98	20442
892.103	20648
892.226	20549
892.349	20476
892.471	20313
892.594	20427
892.717	20446
892.839	20427
892.962	20480
893.085	20454
893.207	20374
893.33	20347
893.452	20320
893.575	20514
893.697	20339
893.819	20564
893.941	20720
894.064	20526
894.186	20446
894.308	20355
894.43	20560
894.552	20549
894.674	20625
894.796	20336
894.918	20412
895.04	20385
895.161	20537
895.283	20533
895.405	20408
895.526	20404
895.648	20419
895.769	20438
895.891	20621
896.012	20560
896.134	20507
896.255	20480
896.376	20377
896.498	20526
896.619	20412
896.74	20343
896.861	20568
896.982	20708
897.103	20838
897.224	20705
897.345	20705
897.466	20663
897.587	20674
897.708	20777
897.828	20750
897.949	20598
898.07	20568
898.19	20549
898.311	20735
898.431	20488
898.552	20708
898.672	20648
898.792	20796
898.913	20701
899.033	20492
899.153	20454
899.273	20377
899.393	20343
899.513	20461
899.633	20278
899.753	20377
899.873	20366
899.993	20347
900.113	20282
900.232	20324
900.352	20233
900.472	20111
900.591	20142
900.711	20183
900.83	20153
900.95	20229
901.069	20248
901.189	20062
901.308	19807
901.427	19750
901.546	19818
901.665	19693
901.784	19791
901.904	19578
902.023	19358
902.141	19343
902.26	19289
902.379	19384
902.498	19190
902.617	19187
902.735	19171
902.854	19251
902.973	19232
903.091	18886
903.21	18913
903.328	18943
903.446	18719
903.565	18768
903.683	18703
903.801	18604
903.919	18597
904.038	18726
904.156	18429
904.274	18597
904.392	18456
904.51	18445
904.627	18517
904.745	18494
904.863	18528
904.981	18285
905.098	18167
905.216	18125
905.334	18114
905.451	18152
905.569	18152
905.686	18114
905.803	18216
905.921	18007
906.038	17996
906.155	17954
906.272	17824
906.389	17927
906.506	17802
906.623	17661
906.74	17634
906.857	17638
906.974	17585
907.091	17748
907.208	17794
907.324	17760
907.441	17608
907.557	17322
907.674	17376
907.79	17315
907.907	17395
908.023	17368
908.139	17349
908.256	17410
908.372	17231
908.488	17250
908.604	17151
908.72	17162
908.836	17060
908.952	16927
909.068	16991
909.184	17140
909.3	17075
909.415	17147
909.531	17079
909.647	16900
909.762	16767
909.878	16847
909.993	16793
910.108	16831
910.224	16786
910.339	16767
910.454	16675
910.57	16698
910.685	16561
910.8	16896
910.915	16691
911.03	16603
911.145	16413
911.259	16409
911.374	16367
911.489	16284
911.604	16276
911.718	16074
911.833	16105
911.947	16192
912.062	16021
912.176	16131
912.291	16173
912.405	16211
912.519	16325
912.633	16382
912.748	16211
912.862	16105
912.976	15945
913.09	15911
913.204	15876
913.318	15998
913.431	16071
913.545	15953
913.659	16025
913.772	15911
913.886	15850
914	15759
914.113	15732
914.226	15846
914.34	15797
914.453	15694
914.566	15812
914.68	15686
914.793	15568
914.906	15431
915.019	15313
915.132	15260
915.245	15332
915.358	15272
915.47	15321
915.583	15367
915.696	15408
915.809	15454
915.921	15469
916.034	15287
916.146	15336
916.259	15237
916.371	15363
916.483	15412
916.595	15203
916.708	15268
916.82	15077
916.932	15108
917.044	15138
917.156	15108
917.268	15020
917.38	15005
917.491	14994
917.603	14994
917.715	15051
917.826	15066
917.938	14956
918.049	14861
918.161	14906
918.272	15093
918.384	15020
918.495	15032
918.606	14758
918.717	14746
918.828	14750
918.939	14746
919.05	14674
919.161	14792
919.272	14511
919.383	14613
919.494	14830
919.604	14876
919.715	14712
919.826	14655
919.936	14708
920.047	14765
920.157	14746
920.267	14842
920.378	14746
920.488	14632
920.598	14845
920.708	15020
920.818	14849
920.928	14914
921.038	14986
921.148	14876
921.258	14724
921.368	14648
921.477	14419
921.587	14442
921.697	14305
921.806	14461
921.916	14301
922.025	14195
922.134	14073
922.244	14088
922.353	14103
922.462	14020
922.571	13974
922.68	13772
922.789	13677
922.898	13696
923.007	13689
923.116	13849
923.224	13597
923.333	13738
923.442	13613
923.55	13590
923.659	13639
923.767	13609
923.876	13537
923.984	13559
924.092	13434
924.201	13472
924.309	13575
924.417	13487
924.525	13476
924.633	13483
924.741	14157
924.849	13194
924.956	13381
925.064	13137
925.172	13114
925.279	13149
925.387	13221
925.494	13198
925.602	13259
925.709	13194
925.816	13046
925.924	12996
926.031	13179
926.138	13088
926.245	13053
926.352	12985
926.459	13069
926.566	13126
926.673	13050
926.779	12897
926.886	12875
926.993	12684
927.099	12715
927.206	12589
927.312	12604
927.419	12840
927.525	12642
927.631	12760
927.737	12578
927.843	12521
927.95	12437
928.056	12525
928.162	12521
928.267	12563
928.373	13103
928.479	12566
928.585	12376
928.69	12369
928.796	12566
928.901	12399
929.007	12213
929.112	12475
929.218	12365
929.323	12327
929.428	12159
929.533	12365
929.638	12194
929.743	12148
929.848	12243
929.953	12125
930.058	12015
930.163	11923
930.267	11859
930.372	12072
930.477	11863
930.581	12091
930.685	11942
930.79	11809
930.894	11798
930.998	11767
931.103	11866
931.207	11600
931.311	11535
931.415	11391
931.519	11204
931.623	11121
