Data from test_V78500241_2190.txt Node
Date: Fri Mar 25 15:56:58 CST 2022
User: usil
Spectrometer: V785-0024
Trigger mode: 0
Integration Time (sec): 4.000000E-1
Scans to average: 1
Nonlinearity correction enabled: false
Boxcar width: 0
Storing dark spectrum: false
XAxis mode: Wavelengths
Number of Pixels in Spectrum: 1024
>>>>>Begin Spectral Data<<<<<
801.071	29170
801.214	28896
801.356	28736
801.499	28641
801.641	28481
801.783	28538
801.926	28679
802.068	28580
802.211	28565
802.353	28561
802.496	28401
802.638	28363
802.78	28280
802.923	28185
803.065	28268
803.208	28188
803.35	28318
803.492	28478
803.635	28535
803.777	28527
803.919	28535
804.061	28862
804.204	28565
804.346	28554
804.488	28531
804.63	28504
804.773	28394
804.915	28668
805.057	28668
805.199	28489
805.341	28736
805.483	28717
805.626	28664
805.768	28694
805.91	28725
806.052	28786
806.194	28630
806.336	28968
806.478	28607
806.62	28809
806.762	28938
806.904	28888
807.046	29303
807.188	29197
807.33	29181
807.472	29246
807.614	29296
807.756	29178
807.898	29128
808.04	28999
808.182	28934
808.324	29018
808.465	29159
808.607	29391
808.749	29539
808.891	29558
809.033	29554
809.174	29577
809.316	29421
809.458	29474
809.6	29379
809.741	29421
809.883	29528
810.025	29794
810.166	29794
810.308	29824
810.45	29611
810.591	29554
810.733	29543
810.875	29406
811.016	29364
811.158	29360
811.299	29524
811.441	29589
811.582	29592
811.724	29509
811.865	29474
812.007	29440
812.148	29512
812.29	29482
812.431	29672
812.573	29756
812.714	29855
812.855	29977
812.997	30114
813.138	30216
813.279	30121
813.421	29973
813.562	29980
813.703	29642
813.845	29649
813.986	29387
814.127	29280
814.268	29231
814.41	29288
814.551	29155
814.692	29307
814.833	29132
814.974	29102
815.115	29113
815.256	28972
815.397	29037
815.539	28999
815.68	29014
815.821	28850
815.962	29056
816.103	28995
816.244	28774
816.385	28854
816.526	28691
816.666	28721
816.807	28489
816.948	28653
817.089	28603
817.23	28622
817.371	28519
817.512	28470
817.653	28500
817.793	28470
817.934	28500
818.075	28451
818.216	28519
818.356	28386
818.497	28333
818.638	28310
818.778	28284
818.919	28219
819.06	28272
819.2	28295
819.341	28664
819.481	28508
819.622	28622
819.762	28942
819.903	28824
820.043	28778
820.184	28531
820.324	28668
820.465	28744
820.605	28637
820.746	28649
820.886	28459
821.026	28634
821.167	28440
821.307	28626
821.447	28542
821.588	28474
821.728	28314
821.868	28116
822.008	28040
822.149	27953
822.289	27945
822.429	27717
822.569	27637
822.709	27614
822.849	27606
822.99	27564
823.13	27424
823.27	27473
823.41	27329
823.55	27188
823.69	27260
823.83	27237
823.97	27203
824.11	27249
824.25	27081
824.389	27051
824.529	27203
824.669	27024
824.809	27241
824.949	27112
825.089	27195
825.228	27222
825.368	26895
825.508	26963
825.648	27036
825.787	27081
825.927	27108
826.067	27036
826.206	27039
826.346	27154
826.485	27009
826.625	27100
826.765	27096
826.904	27062
827.044	26762
827.183	26773
827.323	26781
827.462	26807
827.601	26811
827.741	26765
827.88	26773
828.02	26609
828.159	26655
828.298	26720
828.437	26769
828.577	26807
828.716	26819
828.855	26575
828.994	26480
829.134	26549
829.273	26621
829.412	26366
829.551	26305
829.69	26415
829.829	26404
829.968	26450
830.107	26518
830.246	26278
830.385	26366
830.524	26362
830.663	26252
830.802	26183
830.941	25932
831.08	26001
831.219	25982
831.357	26115
831.496	26305
831.635	25944
831.774	25921
831.913	25890
832.051	25860
832.19	25837
832.329	25864
832.467	25723
832.606	25628
832.744	25746
832.883	25689
833.022	25685
833.16	25681
833.299	25811
833.437	25556
833.576	25860
833.714	25830
833.852	25723
833.991	25693
834.129	25784
834.267	25795
834.406	25750
834.544	25807
834.682	25750
834.821	25811
834.959	25917
835.097	25670
835.235	25791
835.373	25715
835.511	25822
835.65	25578
835.788	25620
835.926	25548
836.064	25358
836.202	25343
836.34	25460
836.478	25609
836.615	25518
836.753	25674
836.891	25578
837.029	25544
837.167	25533
837.305	25529
837.443	25335
837.58	25449
837.718	25453
837.856	25308
837.993	25293
838.131	25259
838.269	25209
838.406	25327
838.544	25175
838.681	24890
838.819	24996
838.956	24897
839.094	24894
839.231	24882
839.369	25019
839.506	25293
839.643	25110
839.781	24890
839.918	24707
840.055	24848
840.193	24871
840.33	24703
840.467	24829
840.604	24722
840.742	25019
840.879	24635
841.016	24661
841.153	24582
841.29	24817
841.427	24757
841.564	24840
841.701	24722
841.838	24730
841.975	24589
842.112	24570
842.249	24627
842.385	24525
842.522	24760
842.659	24559
842.796	24597
842.933	24521
843.069	24467
843.206	24479
843.343	24635
843.479	24410
843.616	24620
843.752	24285
843.889	24273
844.025	24414
844.162	24270
844.298	24296
844.435	24228
844.571	24144
844.708	24395
844.844	24270
844.98	24513
845.117	24277
845.253	24251
845.389	24106
845.525	24292
845.661	24205
845.798	24030
845.934	24007
846.07	23923
846.206	24079
846.342	24117
846.478	24007
846.614	23684
846.75	23646
846.886	23710
847.022	23771
847.158	23760
847.294	23710
847.429	23710
847.565	23733
847.701	23954
847.837	23543
847.972	23452
848.108	23467
848.244	23627
848.379	23288
848.515	23326
848.65	23318
848.786	23360
848.921	23311
849.057	23421
849.192	23364
849.328	23391
849.463	23246
849.598	23261
849.734	23261
849.869	23155
850.004	23075
850.14	23204
850.275	23212
850.41	23071
850.545	23136
850.68	23014
850.815	23200
850.95	23064
851.085	23124
851.22	23147
851.355	23132
851.49	22991
851.625	23037
851.76	23037
851.895	23067
852.03	23006
852.165	23086
852.299	23029
852.434	23189
852.569	23117
852.703	23170
852.838	23143
852.973	23143
853.107	23265
853.242	23174
853.376	22835
853.511	22767
853.645	22904
853.78	23064
853.914	22934
854.048	22927
854.183	22908
854.317	22957
854.451	23159
854.585	22965
854.72	22961
854.854	22892
854.988	22934
855.122	22915
855.256	22771
855.39	22869
855.524	23025
855.658	22991
855.792	22934
855.926	22873
856.06	23094
856.194	23052
856.327	22850
856.461	22850
856.595	22797
856.729	22793
856.862	23193
856.996	22904
857.13	23018
857.263	23071
857.397	23006
857.53	22877
857.664	22927
857.797	22949
857.931	22995
858.064	22995
858.197	23044
858.331	22915
858.464	22820
858.597	22767
858.731	22850
858.864	22923
858.997	22847
859.13	22854
859.263	23029
859.396	22987
859.529	22953
859.662	22873
859.795	22915
859.928	22847
860.061	23155
860.194	23105
860.327	23022
860.46	22961
860.592	22999
860.725	23102
860.858	23174
860.99	23006
861.123	22809
861.256	22896
861.388	22984
861.521	23600
861.653	22755
861.786	22733
861.918	22713
862.05	22763
862.183	22839
862.315	22889
862.447	22908
862.58	22942
862.712	22500
862.844	22668
862.976	22618
863.108	22679
863.24	23105
863.372	22618
863.504	22702
863.636	22641
863.768	22694
863.9	22649
864.032	22523
864.164	22550
864.296	22618
864.428	22752
864.559	22683
864.691	22523
864.823	22744
864.954	22672
865.086	22580
865.217	22523
865.349	22519
865.48	22516
865.612	22443
865.743	22603
865.875	22546
866.006	22481
866.137	22523
866.269	22592
866.4	22489
866.531	22489
866.662	22497
866.793	22417
866.924	22371
867.055	22440
867.186	22405
867.317	22356
867.448	22322
867.579	22421
867.71	22329
867.841	22402
867.972	22470
868.103	22481
868.233	22409
868.364	22436
868.495	22459
868.625	22523
868.756	22630
868.886	22584
869.017	22687
869.147	22828
869.278	22656
869.408	22713
869.539	22596
869.669	22782
869.799	22694
869.929	22744
870.06	22641
870.19	22972
870.32	22957
870.45	22873
870.58	22987
870.71	23117
870.84	23174
870.97	23075
871.1	23029
871.23	23121
871.36	23292
871.489	23048
871.619	23273
871.749	23258
871.879	23269
872.008	23322
872.138	23398
872.267	23166
872.397	23155
872.526	23105
872.656	23151
872.785	23132
872.915	23235
873.044	23246
873.173	23265
873.303	23185
873.432	23364
873.561	23307
873.69	23250
873.819	23254
873.948	23326
874.077	23296
874.206	23189
874.335	23318
874.464	23345
874.593	23425
874.722	23414
874.851	23421
874.979	23638
875.108	23531
875.237	23383
875.365	23345
875.494	23478
875.623	23554
875.751	23379
875.88	23486
876.008	23665
876.136	23760
876.265	23874
876.393	23996
876.521	23946
876.65	23965
876.778	23923
876.906	23851
877.034	23824
877.162	23870
877.29	23790
877.418	23874
877.546	23687
877.674	23821
877.802	23889
877.93	23752
878.058	23729
878.185	23653
878.313	23687
878.441	23798
878.568	23600
878.696	23699
878.824	23855
878.951	24034
879.079	23984
879.206	23992
879.333	23923
879.461	23779
879.588	23927
879.715	23916
879.842	24133
879.97	23904
880.097	23684
880.224	23707
880.351	23707
880.478	23611
880.605	23524
880.732	23604
880.859	23927
880.986	23775
881.112	23589
881.239	23539
881.366	23330
881.493	23265
881.619	23322
881.746	23235
881.872	23132
881.999	23098
882.125	23025
882.252	23181
882.378	23102
882.505	23204
882.631	22961
882.757	22987
882.883	22866
883.01	22896
883.136	22805
883.262	22615
883.388	22637
883.514	22942
883.64	22801
883.766	22835
883.892	22577
884.018	22561
884.143	22797
884.269	22805
884.395	22451
884.52	22504
884.646	22645
884.772	22485
884.897	22413
885.023	22447
885.148	22592
885.274	22630
885.399	22519
885.524	22394
885.65	22516
885.775	22443
885.9	22519
886.025	22508
886.15	22649
886.275	22409
886.4	22337
886.525	22497
886.65	22356
886.775	22538
886.9	22497
887.025	22592
887.149	22535
887.274	22166
887.399	22166
887.523	22249
887.648	22158
887.773	22158
887.897	22272
888.021	22268
888.146	22135
888.27	22424
888.395	22276
888.519	22265
888.643	22215
888.767	22272
888.891	22086
889.015	22036
889.139	22097
889.263	22002
889.387	22150
889.511	22196
889.635	22143
889.759	22040
889.883	21934
890.006	22002
890.13	22173
890.254	21895
890.377	21918
890.501	21755
890.624	21793
890.748	21831
890.871	21663
890.995	21397
891.118	21648
891.241	21549
891.364	21595
891.488	21648
891.611	21728
891.734	21526
891.857	21545
891.98	21656
892.103	21572
892.226	21507
892.349	21477
892.471	21359
892.594	21408
892.717	21458
892.839	21443
892.962	21500
893.085	21443
893.207	21443
893.33	21256
893.452	21340
893.575	21564
893.697	21378
893.819	21641
893.941	21671
894.064	21587
894.186	21424
894.308	21260
894.43	21583
894.552	21698
894.674	21583
894.796	21332
894.918	21317
895.04	21226
895.161	21538
895.283	21370
895.405	21393
895.526	21428
895.648	21386
895.769	21367
895.891	21507
896.012	21507
896.134	21443
896.255	21450
896.376	21351
896.498	21435
896.619	21424
896.74	21401
896.861	21473
896.982	21747
897.103	21888
897.224	21686
897.345	21622
897.466	21534
897.587	21720
897.708	21785
897.828	21679
897.949	21542
898.07	21450
898.19	21538
898.311	21641
898.431	21549
898.552	21496
898.672	21644
898.792	21717
898.913	21553
899.033	21466
899.153	21405
899.273	21237
899.393	21336
899.513	21348
899.633	21226
899.753	21321
899.873	21256
899.993	21302
900.113	21184
900.232	21195
900.352	21192
900.472	21203
900.591	20941
900.711	21051
900.83	21108
900.95	21154
901.069	21036
901.189	20925
901.308	20724
901.427	20621
901.546	20667
901.665	20705
901.784	20598
901.904	20530
902.023	20408
902.141	20073
902.26	20130
902.379	20221
902.498	20191
902.617	20073
902.735	20298
902.854	20172
902.973	20016
903.091	19906
903.21	19723
903.328	19879
903.446	19655
903.565	19597
903.683	19571
903.801	19540
903.919	19491
904.038	19491
904.156	19312
904.274	19453
904.392	19365
904.51	19213
904.627	19293
904.745	19388
904.863	19422
904.981	19156
905.098	18924
905.216	19034
905.334	18943
905.451	19095
905.569	18905
905.686	19076
905.803	18973
905.921	18810
906.038	18928
906.155	18749
906.272	18684
906.389	18757
906.506	18563
906.623	18506
906.74	18528
906.857	18361
906.974	18456
907.091	18635
907.208	18684
907.324	18517
907.441	18410
907.557	18270
907.674	18182
907.79	18270
907.907	18228
908.023	18403
908.139	18266
908.256	18049
908.372	18140
908.488	18079
908.604	18030
908.72	17965
908.836	17988
908.952	17946
909.068	17961
909.184	18083
909.3	17988
909.415	17897
909.531	17935
909.647	17786
909.762	17672
909.878	17596
909.993	17672
910.108	17619
910.224	17634
910.339	17672
910.454	17528
910.57	17425
910.685	17341
910.8	17699
910.915	17490
911.03	17429
911.145	17208
911.259	17284
911.374	17204
911.489	17128
911.604	17212
911.718	16949
911.833	17025
911.947	16797
912.062	16858
912.176	17132
912.291	17064
912.405	17060
912.519	17197
912.633	17155
912.748	17014
912.862	16987
912.976	16812
913.09	16664
913.204	16763
913.318	16850
913.431	16900
913.545	16809
913.659	16908
913.772	16687
913.886	16615
914	16535
914.113	16592
914.226	16592
914.34	16584
914.453	16390
914.566	16660
914.68	16466
914.793	16386
914.906	16196
915.019	16105
915.132	15994
915.245	16040
915.358	16154
915.47	16181
915.583	16040
915.696	16105
915.809	16234
915.921	16333
916.034	16078
916.146	15994
916.259	15991
916.371	16097
916.483	16078
916.595	15911
916.708	15941
916.82	15953
916.932	15911
917.044	15819
917.156	15854
917.268	15667
917.38	15857
917.491	15755
917.603	15857
917.715	15854
917.826	15838
917.938	15656
918.049	15667
918.161	15603
918.272	15797
918.384	15857
918.495	15679
918.606	15447
918.717	15420
918.828	15557
918.939	15462
919.05	15511
919.161	15378
919.272	15306
919.383	15306
919.494	15545
919.604	15671
919.715	15492
919.826	15378
919.936	15492
920.047	15443
920.157	15447
920.267	15618
920.378	15481
920.488	15469
920.598	15545
920.708	15728
920.818	15511
920.928	15492
921.038	15728
921.148	15698
921.258	15367
921.368	15237
921.477	15218
921.587	15207
921.697	14994
921.806	15222
921.916	14998
922.025	14792
922.134	14788
922.244	14735
922.353	14842
922.462	14727
922.571	14708
922.68	14419
922.789	14457
922.898	14434
923.007	14412
923.116	14347
923.224	14442
923.333	14381
923.442	14259
923.55	14221
923.659	14183
923.767	14267
923.876	14145
923.984	14229
924.092	14039
924.201	14172
924.309	14088
924.417	14164
924.525	13944
924.633	14069
924.741	14796
924.849	13841
924.956	13993
925.064	13811
925.172	13708
925.279	13837
925.387	13788
925.494	13818
925.602	13841
925.709	13833
925.816	13582
925.924	13738
926.031	13822
926.138	13666
926.245	13750
926.352	13578
926.459	13712
926.566	13765
926.673	13670
926.779	13499
926.886	13559
926.993	13358
927.099	13304
927.206	13339
927.312	13255
927.419	13392
927.525	13350
927.631	13403
927.737	13251
927.843	13152
927.95	13015
928.056	13095
928.162	13129
928.267	13141
928.373	13772
928.479	13168
928.585	12916
928.69	12989
928.796	13126
928.901	12894
929.007	12806
929.112	12973
929.218	12966
929.323	12867
929.428	12817
929.533	12863
929.638	12734
929.743	12730
929.848	12764
929.953	12772
930.058	12658
930.163	12540
930.267	12498
930.372	12593
930.477	12464
930.581	12677
930.685	12589
930.79	12407
930.894	12346
930.998	12342
931.103	12471
931.207	12087
931.311	12049
931.415	11996
931.519	11798
931.623	11752
