Data from test_V78500241_2968.txt Node
Date: Fri Mar 25 16:02:21 CST 2022
User: usil
Spectrometer: V785-0024
Trigger mode: 0
Integration Time (sec): 4.000000E-1
Scans to average: 1
Nonlinearity correction enabled: false
Boxcar width: 0
Storing dark spectrum: false
XAxis mode: Wavelengths
Number of Pixels in Spectrum: 1024
>>>>>Begin Spectral Data<<<<<
801.071	28497
801.214	28398
801.356	28090
801.499	28051
801.641	27895
801.783	27808
801.926	28013
802.068	27865
802.211	27838
802.353	28006
802.496	27656
802.638	27759
802.78	27614
802.923	27496
803.065	27462
803.208	27477
803.35	27618
803.492	27762
803.635	27884
803.777	27812
803.919	27835
804.061	28093
804.204	27850
804.346	27694
804.488	27694
804.63	27781
804.773	27728
804.915	27797
805.057	28055
805.199	27774
805.341	27926
805.483	28044
805.626	27926
805.768	27797
805.91	27953
806.052	27907
806.194	27884
806.336	28086
806.478	27945
806.62	27972
806.762	28105
806.904	28207
807.046	28318
807.188	28485
807.33	28531
807.472	28466
807.614	28371
807.756	28352
807.898	28284
808.04	28230
808.182	28226
808.324	28333
808.465	28207
808.607	28489
808.749	28470
808.891	28687
809.033	28713
809.174	28748
809.316	28611
809.458	28615
809.6	28668
809.741	28675
809.883	28626
810.025	28850
810.166	28805
810.308	28953
810.45	28888
810.591	28706
810.733	28630
810.875	28634
811.016	28394
811.158	28447
811.299	28702
811.441	28862
811.582	28797
811.724	28557
811.865	28607
812.007	28561
812.148	28649
812.29	28596
812.431	28809
812.573	28885
812.714	29029
812.855	29147
812.997	29318
813.138	29425
813.279	29261
813.421	29254
813.562	29037
813.703	28930
813.845	28771
813.986	28569
814.127	28466
814.268	28390
814.41	28356
814.551	28173
814.692	28413
814.833	28246
814.974	28234
815.115	28276
815.256	28154
815.397	28204
815.539	28265
815.68	28067
815.821	28097
815.962	28070
816.103	28101
816.244	28051
816.385	27972
816.526	27903
816.666	27698
816.807	27679
816.948	27625
817.089	27663
817.23	27694
817.371	27747
817.512	27641
817.653	27519
817.793	27477
817.934	27561
818.075	27671
818.216	27667
818.356	27469
818.497	27530
818.638	27401
818.778	27427
818.919	27329
819.06	27469
819.2	27561
819.341	27682
819.481	27549
819.622	27816
819.762	28006
819.903	27785
820.043	27675
820.184	27656
820.324	27762
820.465	27679
820.605	27720
820.746	27789
820.886	27663
821.026	27564
821.167	27686
821.307	27759
821.447	27679
821.588	27462
821.728	27264
821.868	27169
822.008	27230
822.149	27176
822.289	27062
822.429	26716
822.569	26697
822.709	26724
822.849	26663
822.99	26533
823.13	26720
823.27	26560
823.41	26434
823.55	26328
823.69	26503
823.83	26514
823.97	26396
824.11	26278
824.25	26240
824.389	26240
824.529	26355
824.669	26237
824.809	26259
824.949	26324
825.089	26252
825.228	26301
825.368	26202
825.508	26115
825.648	26062
825.787	26084
825.927	26191
826.067	26153
826.206	26161
826.346	26195
826.485	26252
826.625	26012
826.765	26191
826.904	26183
827.044	25875
827.183	25875
827.323	25936
827.462	25765
827.601	26020
827.741	25833
827.88	25906
828.02	25670
828.159	25765
828.298	25852
828.437	25753
828.577	25780
828.716	25909
828.855	25635
828.994	25575
829.134	25540
829.273	25479
829.412	25559
829.551	25605
829.69	25601
829.829	25594
829.968	25453
830.107	25540
830.246	25552
830.385	25487
830.524	25415
830.663	25396
830.802	25148
830.941	25110
831.08	25019
831.219	25129
831.357	25297
831.496	25274
831.635	25129
831.774	24943
831.913	25038
832.051	24939
832.19	24985
832.329	24932
832.467	24779
832.606	24684
832.744	24764
832.883	24810
833.022	24859
833.16	24776
833.299	24741
833.437	24833
833.576	24966
833.714	24829
833.852	24943
833.991	24897
834.129	25008
834.267	24848
834.406	24867
834.544	24958
834.682	24924
834.821	24798
834.959	24954
835.097	24871
835.235	24890
835.373	24833
835.511	24875
835.65	24764
835.788	24688
835.926	24635
836.064	24589
836.202	24574
836.34	24696
836.478	24734
836.615	24589
836.753	24669
836.891	24749
837.029	24540
837.167	24623
837.305	24684
837.443	24513
837.58	24525
837.718	24585
837.856	24426
837.993	24456
838.131	24547
838.269	24384
838.406	24403
838.544	24433
838.681	24053
838.819	24034
838.956	23935
839.094	24079
839.231	24057
839.369	24182
839.506	24403
839.643	24270
839.781	24049
839.918	23954
840.055	24018
840.193	23901
840.33	23916
840.467	23950
840.604	23942
840.742	24102
840.879	23745
841.016	23805
841.153	23775
841.29	23904
841.427	23920
841.564	23863
841.701	23824
841.838	23870
841.975	23741
842.112	23847
842.249	23748
842.385	23687
842.522	23904
842.659	23832
842.796	23566
842.933	23684
843.069	23672
843.206	23619
843.343	23687
843.479	23623
843.616	23604
843.752	23474
843.889	23520
844.025	23551
844.162	23528
844.298	23497
844.435	23436
844.571	23414
844.708	23554
844.844	23482
844.98	23478
845.117	23436
845.253	23330
845.389	23334
845.525	23372
845.661	23223
845.798	23147
845.934	23174
846.07	23178
846.206	23178
846.342	23250
846.478	22987
846.614	22869
846.75	22824
846.886	22961
847.022	22881
847.158	22892
847.294	22927
847.429	22908
847.565	22896
847.701	23090
847.837	22774
847.972	22637
848.108	22622
848.244	22622
848.379	22573
848.515	22592
848.65	22436
848.786	22497
848.921	22474
849.057	22573
849.192	22504
849.328	22504
849.463	22542
849.598	22519
849.734	22394
849.869	22268
850.004	22242
850.14	22310
850.275	22280
850.41	22162
850.545	22211
850.68	22226
850.815	22287
850.95	22112
851.085	22447
851.22	22462
851.355	22386
851.49	22268
851.625	22185
851.76	22234
851.895	22196
852.03	22280
852.165	22242
852.299	22169
852.434	22246
852.569	22276
852.703	22234
852.838	22371
852.973	22474
853.107	22352
853.242	22074
853.376	22048
853.511	21892
853.645	21983
853.78	22173
853.914	22086
854.048	22040
854.183	22074
854.317	21998
854.451	22242
854.585	22093
854.72	22124
854.854	22128
854.988	22139
855.122	22093
855.256	21918
855.39	22055
855.524	22105
855.658	22173
855.792	22093
855.926	22093
856.06	22177
856.194	22173
856.327	22036
856.461	22002
856.595	22070
856.729	22086
856.862	22192
856.996	22109
857.13	22143
857.263	22181
857.397	22158
857.53	22105
857.664	22097
857.797	22181
857.931	22188
858.064	22128
858.197	22295
858.331	22055
858.464	21998
858.597	21968
858.731	22150
858.864	22150
858.997	22040
859.13	22032
859.263	22207
859.396	22246
859.529	22040
859.662	22032
859.795	22082
859.928	22074
860.061	22177
860.194	22192
860.327	22196
860.46	22147
860.592	22185
860.725	22287
860.858	22230
860.99	22044
861.123	21979
861.256	21991
861.388	22063
861.521	22873
861.653	21876
861.786	22063
861.918	21953
862.05	22021
862.183	22150
862.315	22032
862.447	22143
862.58	22006
862.712	21903
862.844	21717
862.976	21922
863.108	21915
863.24	22196
863.372	21808
863.504	21785
863.636	21907
863.768	21686
863.9	21907
864.032	21774
864.164	21682
864.296	21804
864.428	21937
864.559	21895
864.691	21880
864.823	21762
864.954	21759
865.086	21679
865.217	21713
865.349	21572
865.48	21675
865.612	21736
865.743	21709
865.875	21663
866.006	21591
866.137	21713
866.269	21663
866.4	21652
866.531	21698
866.662	21542
866.793	21553
866.924	21530
867.055	21679
867.186	21595
867.317	21583
867.448	21431
867.579	21469
867.71	21580
867.841	21523
867.972	21572
868.103	21625
868.233	21606
868.364	21633
868.495	21739
868.625	21793
868.756	22002
868.886	21762
869.017	21720
869.147	21778
869.278	21907
869.408	21816
869.539	21842
869.669	21945
869.799	21819
869.929	21987
870.06	21983
870.19	22211
870.32	22200
870.45	22150
870.58	22154
870.71	22265
870.84	22261
870.97	22188
871.1	22230
871.23	22478
871.36	22352
871.489	22500
871.619	22440
871.749	22485
871.879	22417
872.008	22451
872.138	22424
872.267	22447
872.397	22348
872.526	22341
872.656	22398
872.785	22303
872.915	22390
873.044	22527
873.173	22462
873.303	22493
873.432	22485
873.561	22630
873.69	22455
873.819	22402
873.948	22459
874.077	22535
874.206	22440
874.335	22409
874.464	22687
874.593	22622
874.722	22683
874.851	22637
874.979	22782
875.108	22740
875.237	22672
875.365	22485
875.494	22683
875.623	22706
875.751	22565
875.88	22771
876.008	22850
876.136	23018
876.265	22930
876.393	23208
876.521	23223
876.65	23242
876.778	23102
876.906	22942
877.034	23006
877.162	23098
877.29	22999
877.418	23033
877.546	23075
877.674	23151
877.802	23003
877.93	22919
878.058	22991
878.185	22767
878.313	22911
878.441	23041
878.568	22793
878.696	22831
878.824	23033
878.951	23181
879.079	23090
879.206	23296
879.333	23170
879.461	23105
879.588	23208
879.715	23121
879.842	23277
879.97	23113
880.097	22717
880.224	22824
880.351	22900
880.478	22866
880.605	22896
880.732	22889
880.859	23060
880.986	22847
881.112	22850
881.239	22733
881.366	22630
881.493	22527
881.619	22409
881.746	22535
881.872	22580
881.999	22398
882.125	22333
882.252	22432
882.378	22440
882.505	22493
882.631	22223
882.757	22078
882.883	22310
883.01	21960
883.136	22086
883.262	21922
883.388	21994
883.514	22169
883.64	22112
883.766	22013
883.892	21884
884.018	21861
884.143	22029
884.269	22097
884.395	21736
884.52	21732
884.646	21701
884.772	21663
884.897	21637
885.023	21656
885.148	21823
885.274	21903
885.399	21842
885.524	21800
885.65	21728
885.775	21793
885.9	21724
886.025	21797
886.15	21816
886.275	21682
886.4	21553
886.525	21770
886.65	21629
886.775	21675
886.9	21808
887.025	21994
887.149	21781
887.274	21488
887.399	21553
887.523	21561
887.648	21420
887.773	21408
887.897	21545
888.021	21523
888.146	21389
888.27	21671
888.395	21511
888.519	21496
888.643	21412
888.767	21545
888.891	21542
889.015	21317
889.139	21386
889.263	21279
889.387	21408
889.511	21416
889.635	21412
889.759	21249
889.883	21188
890.006	21313
890.13	21428
890.254	21252
890.377	21294
890.501	21001
890.624	21013
890.748	20982
890.871	20853
890.995	20777
891.118	20872
891.241	20864
891.364	20788
891.488	20944
891.611	20921
891.734	20811
891.857	21032
891.98	20739
892.103	20929
892.226	20796
892.349	20769
892.471	20602
892.594	20834
892.717	20720
892.839	20667
892.962	20663
893.085	20792
893.207	20686
893.33	20663
893.452	20655
893.575	20716
893.697	20743
893.819	20883
893.941	20948
894.064	20800
894.186	20533
894.308	20632
894.43	20758
894.552	21028
894.674	20781
894.796	20621
894.918	20644
895.04	20765
895.161	20834
895.283	20807
895.405	20667
895.526	20758
895.648	20777
895.769	20674
895.891	20712
896.012	20811
896.134	20902
896.255	20861
896.376	20674
896.498	20735
896.619	20849
896.74	20750
896.861	20746
896.982	20960
897.103	21150
897.224	20971
897.345	20994
897.466	20891
897.587	20925
897.708	21032
897.828	20998
897.949	20899
898.07	20834
898.19	20925
898.311	21066
898.431	20895
898.552	20990
898.672	20868
898.792	20921
898.913	20902
899.033	20979
899.153	20842
899.273	20594
899.393	20682
899.513	20773
899.633	20689
899.753	20590
899.873	20571
899.993	20701
900.113	20587
900.232	20697
900.352	20545
900.472	20511
900.591	20438
900.711	20503
900.83	20305
900.95	20571
901.069	20594
901.189	20427
901.308	20111
901.427	20039
901.546	20027
901.665	19982
901.784	20001
901.904	19818
902.023	19803
902.141	19620
902.26	19559
902.379	19567
902.498	19540
902.617	19533
902.735	19552
902.854	19411
902.973	19552
903.091	19217
903.21	19183
903.328	19209
903.446	19061
903.565	19057
903.683	18920
903.801	18859
903.919	18973
904.038	18878
904.156	18821
904.274	18871
904.392	18772
904.51	18768
904.627	18631
904.745	18730
904.863	18753
904.981	18681
905.098	18452
905.216	18448
905.334	18513
905.451	18437
905.569	18517
905.686	18471
905.803	18437
905.921	18190
906.038	18361
906.155	18273
906.272	18114
906.389	18136
906.506	17878
906.623	17942
906.74	17897
906.857	17916
906.974	17836
907.091	18015
907.208	18129
907.324	17942
907.441	17885
907.557	17733
907.674	17535
907.79	17524
907.907	17646
908.023	17710
908.139	17684
908.256	17505
908.372	17596
908.488	17627
908.604	17474
908.72	17410
908.836	17474
908.952	17349
909.068	17307
909.184	17467
909.3	17387
909.415	17455
909.531	17383
909.647	17014
909.762	17147
909.878	17045
909.993	17071
910.108	17140
910.224	17075
910.339	16938
910.454	16892
910.57	16896
910.685	16618
910.8	17056
910.915	17052
911.03	16828
911.145	16729
911.259	16630
911.374	16668
911.489	16672
911.604	16535
911.718	16417
911.833	16462
911.947	16253
912.062	16257
912.176	16344
912.291	16440
912.405	16341
912.519	16653
912.633	16531
912.748	16527
912.862	16295
912.976	16211
913.09	16147
913.204	16120
913.318	16226
913.431	16348
913.545	16265
913.659	16363
913.772	16192
913.886	16036
914	15899
914.113	16105
914.226	16139
914.34	16109
914.453	15934
914.566	16036
914.68	15869
914.793	15816
914.906	15663
915.019	15656
915.132	15625
915.245	15564
915.358	15553
915.47	15599
915.583	15538
915.696	15679
915.809	15641
915.921	15675
916.034	15606
916.146	15435
916.259	15492
916.371	15660
916.483	15545
916.595	15439
916.708	15389
916.82	15374
916.932	15382
917.044	15252
917.156	15275
917.268	15199
917.38	15237
917.491	15131
917.603	15279
917.715	15245
917.826	15340
917.938	15062
918.049	15108
918.161	15150
918.272	15279
918.384	15348
918.495	15127
918.606	15024
918.717	14895
918.828	15005
918.939	14967
919.05	14895
919.161	14952
919.272	14762
919.383	14788
919.494	14914
919.604	15180
919.715	15043
919.826	14861
919.936	14880
920.047	14937
920.157	14967
920.267	15188
920.378	15001
920.488	14902
920.598	15093
920.708	15329
920.818	14990
920.928	15039
921.038	15188
921.148	15093
921.258	14823
921.368	14762
921.477	14682
921.587	14659
921.697	14556
921.806	14636
921.916	14431
922.025	14385
922.134	14294
922.244	14317
922.353	14248
922.462	14180
922.571	14176
922.68	13982
922.789	13970
922.898	14001
923.007	13928
923.116	13986
923.224	13864
923.333	13883
923.442	13704
923.55	13780
923.659	13750
923.767	13753
923.876	13662
923.984	13742
924.092	13571
924.201	13719
924.309	13746
924.417	13605
924.525	13548
924.633	13582
924.741	14339
924.849	13320
924.956	13460
925.064	13441
925.172	13316
925.279	13221
925.387	13400
925.494	13293
925.602	13449
925.709	13358
925.816	13304
925.924	13285
926.031	13373
926.138	13255
926.245	13293
926.352	13187
926.459	13293
926.566	13316
926.673	13076
926.779	13099
926.886	13061
926.993	12962
927.099	12890
927.206	12871
927.312	12859
927.419	12905
927.525	12833
927.631	12882
927.737	12768
927.843	12757
927.95	12650
928.056	12673
928.162	12738
928.267	12749
928.373	13365
928.479	12798
928.585	12532
928.69	12692
928.796	12642
928.901	12445
929.007	12403
929.112	12559
929.218	12528
929.323	12509
929.428	12350
929.533	12502
929.638	12262
929.743	12399
929.848	12429
929.953	12243
930.058	12197
930.163	12095
930.267	12178
930.372	12190
930.477	11950
930.581	12285
930.685	12129
930.79	11961
930.894	11946
930.998	11927
931.103	12019
931.207	11771
931.311	11661
931.415	11558
931.519	11372
931.623	11356
