Data from test_V78500241_585.txt Node
Date: Fri Mar 25 15:45:51 CST 2022
User: usil
Spectrometer: V785-0024
Trigger mode: 0
Integration Time (sec): 4.000000E-1
Scans to average: 1
Nonlinearity correction enabled: false
Boxcar width: 0
Storing dark spectrum: false
XAxis mode: Wavelengths
Number of Pixels in Spectrum: 1024
>>>>>Begin Spectral Data<<<<<
801.071	27272
801.214	27028
801.356	26891
801.499	26815
801.641	26705
801.783	26743
801.926	26857
802.068	26800
802.211	26674
802.353	26598
802.496	26286
802.638	26400
802.78	26351
802.923	26199
803.065	26317
803.208	26103
803.35	26366
803.492	26434
803.635	26488
803.777	26370
803.919	26484
804.061	26758
804.204	26518
804.346	26404
804.488	26301
804.63	26541
804.773	26347
804.915	26602
805.057	26587
805.199	26336
805.341	26533
805.483	26530
805.626	26606
805.768	26465
805.91	26446
806.052	26636
806.194	26724
806.336	26743
806.478	26560
806.62	26602
806.762	26800
806.904	26853
807.046	27062
807.188	27051
807.33	27104
807.472	27043
807.614	26956
807.756	26918
807.898	26975
808.04	26842
808.182	26819
808.324	26857
808.465	26872
808.607	26998
808.749	27135
808.891	27245
809.033	27450
809.174	27230
809.316	27241
809.458	27123
809.6	27176
809.741	27298
809.883	27412
810.025	27427
810.166	27458
810.308	27629
810.45	27431
810.591	27351
810.733	27252
810.875	27207
811.016	27020
811.158	26842
811.299	27351
811.441	27405
811.582	27325
811.724	27256
811.865	27032
812.007	27096
812.148	27058
812.29	27230
812.431	27313
812.573	27580
812.714	27572
812.855	27603
812.997	27907
813.138	27945
813.279	27808
813.421	27717
813.562	27667
813.703	27511
813.845	27519
813.986	27150
814.127	27036
814.268	26963
814.41	26792
814.551	26788
814.692	26864
814.833	26853
814.974	26842
815.115	26902
815.256	26819
815.397	26845
815.539	26746
815.68	26564
815.821	26530
815.962	26667
816.103	26609
816.244	26632
816.385	26423
816.526	26343
816.666	26214
816.807	26035
816.948	26084
817.089	26221
817.23	26153
817.371	26069
817.512	25982
817.653	26244
817.793	26069
817.934	26191
818.075	26088
818.216	26088
818.356	25936
818.497	26050
818.638	25738
818.778	25841
818.919	25913
819.06	25765
819.2	25978
819.341	26244
819.481	26138
819.622	26301
819.762	26423
819.903	26465
820.043	26126
820.184	26145
820.324	26122
820.465	26294
820.605	26157
820.746	26248
820.886	25993
821.026	26252
821.167	26157
821.307	26286
821.447	26020
821.588	26065
821.728	25959
821.868	25670
822.008	25616
822.149	25635
822.289	25693
822.429	25301
822.569	25266
822.709	25259
822.849	25000
822.99	25012
823.13	25072
823.27	25004
823.41	24829
823.55	24722
823.69	24951
823.83	24837
823.97	24821
824.11	24726
824.25	24639
824.389	24673
824.529	24738
824.669	24661
824.809	24802
824.949	24753
825.089	24696
825.228	24734
825.368	24650
825.508	24490
825.648	24681
825.787	24582
825.927	24646
826.067	24574
826.206	24574
826.346	24646
826.485	24612
826.625	24540
826.765	24555
826.904	24616
827.044	24311
827.183	24243
827.323	24228
827.462	24285
827.601	24357
827.741	24155
827.88	24369
828.02	24159
828.159	24174
828.298	24289
828.437	24342
828.577	24262
828.716	24319
828.855	24239
828.994	24064
829.134	24038
829.273	24079
829.412	23999
829.551	23912
829.69	24114
829.829	23996
829.968	23988
830.107	23901
830.246	24015
830.385	23798
830.524	23824
830.663	23885
830.802	23627
830.941	23528
831.08	23543
831.219	23684
831.357	23611
831.496	23745
831.635	23703
831.774	23573
831.913	23482
832.051	23280
832.19	23368
832.329	23326
832.467	23254
832.606	23349
832.744	23174
832.883	23174
833.022	23208
833.16	23254
833.299	23364
833.437	23337
833.576	23345
833.714	23143
833.852	23364
833.991	23387
834.129	23345
834.267	23467
834.406	23345
834.544	23368
834.682	23444
834.821	23315
834.959	23512
835.097	23166
835.235	23307
835.373	23296
835.511	23223
835.65	23254
835.788	23269
835.926	22987
836.064	22949
836.202	23048
836.34	23227
836.478	23303
836.615	23208
836.753	23185
836.891	23280
837.029	23277
837.167	23090
837.305	22995
837.443	22976
837.58	22972
837.718	23010
837.856	22980
837.993	23064
838.131	22911
838.269	22809
838.406	22987
838.544	22710
838.681	22683
838.819	22557
838.956	22478
839.094	22390
839.231	22512
839.369	22626
839.506	22930
839.643	22675
839.781	22523
839.918	22405
840.055	22527
840.193	22459
840.33	22337
840.467	22451
840.604	22497
840.742	22668
840.879	22242
841.016	22447
841.153	22333
841.29	22493
841.427	22291
841.564	22428
841.701	22230
841.838	22310
841.975	22276
842.112	22280
842.249	22238
842.385	22253
842.522	22386
842.659	22139
842.796	22017
842.933	22192
843.069	22139
843.206	22097
843.343	22097
843.479	22196
843.616	22128
843.752	21968
843.889	21968
844.025	22120
844.162	21759
844.298	21899
844.435	21766
844.571	21812
844.708	22006
844.844	22078
844.98	22105
845.117	21975
845.253	21892
845.389	21671
845.525	21854
845.661	21770
845.798	21633
845.934	21698
846.07	21679
846.206	21641
846.342	21755
846.478	21629
846.614	21424
846.75	21351
846.886	21401
847.022	21424
847.158	21374
847.294	21447
847.429	21507
847.565	21348
847.701	21576
847.837	21089
847.972	21081
848.108	21108
848.244	21298
848.379	21066
848.515	20986
848.65	20845
848.786	20956
848.921	20982
849.057	21093
849.192	21085
849.328	20887
849.463	20967
849.598	20941
849.734	20899
849.869	20899
850.004	20746
850.14	20834
850.275	20655
850.41	20724
850.545	20632
850.68	20689
850.815	20788
850.95	20823
851.085	20914
851.22	20830
851.355	20743
851.49	20705
851.625	20644
851.76	20773
851.895	20659
852.03	20678
852.165	20773
852.299	20693
852.434	20834
852.569	20788
852.703	20796
852.838	20975
852.973	20838
853.107	20826
853.242	20781
853.376	20686
853.511	20400
853.645	20632
853.78	20781
853.914	20667
854.048	20568
854.183	20667
854.317	20667
854.451	20716
854.585	20674
854.72	20686
854.854	20697
854.988	20587
855.122	20625
855.256	20431
855.39	20575
855.524	20693
855.658	20735
855.792	20693
855.926	20659
856.06	20716
856.194	20826
856.327	20511
856.461	20530
856.595	20598
856.729	20571
856.862	20739
856.996	20640
857.13	20693
857.263	20693
857.397	20667
857.53	20609
857.664	20693
857.797	20708
857.931	20651
858.064	20674
858.197	20777
858.331	20571
858.464	20613
858.597	20465
858.731	20606
858.864	20473
858.997	20522
859.13	20556
859.263	20568
859.396	20686
859.529	20564
859.662	20503
859.795	20438
859.928	20659
860.061	20667
860.194	20883
860.327	20670
860.46	20621
860.592	20682
860.725	20769
860.858	20708
860.99	20632
861.123	20476
861.256	20617
861.388	20712
861.521	21116
861.653	20480
861.786	20404
861.918	20442
862.05	20495
862.183	20492
862.315	20530
862.447	20598
862.58	20552
862.712	20381
862.844	20244
862.976	20393
863.108	20347
863.24	20815
863.372	20210
863.504	20313
863.636	20214
863.768	20271
863.9	20221
864.032	20240
864.164	20172
864.296	20358
864.428	20415
864.559	20362
864.691	20427
864.823	20374
864.954	20286
865.086	20301
865.217	20176
865.349	20138
865.48	20187
865.612	20225
865.743	20381
865.875	20210
866.006	20195
866.137	20214
866.269	20149
866.4	20221
866.531	20202
866.662	20187
866.793	20126
866.924	20126
867.055	20145
867.186	20195
867.317	20130
867.448	20065
867.579	20195
867.71	20035
867.841	19955
867.972	20122
868.103	20115
868.233	20187
868.364	20119
868.495	20313
868.625	20457
868.756	20469
868.886	20328
869.017	20450
869.147	20571
869.278	20457
869.408	20400
869.539	20446
869.669	20514
869.799	20454
869.929	20533
870.06	20427
870.19	20731
870.32	20796
870.45	20811
870.58	20762
870.71	20880
870.84	20975
870.97	20762
871.1	20804
871.23	20975
871.36	20948
871.489	20944
871.619	20872
871.749	21005
871.879	20986
872.008	21154
872.138	21066
872.267	20918
872.397	20792
872.526	20925
872.656	20876
872.785	20868
872.915	20956
873.044	21085
873.173	20967
873.303	20998
873.432	21013
873.561	21116
873.69	21150
873.819	21017
873.948	21154
874.077	21055
874.206	21017
874.335	21001
874.464	21131
874.593	21306
874.722	21142
874.851	21386
874.979	21287
875.108	21207
875.237	21135
875.365	21214
875.494	21283
875.623	21279
875.751	21112
875.88	21230
876.008	21378
876.136	21431
876.265	21606
876.393	21770
876.521	21701
876.65	21625
876.778	21781
876.906	21633
877.034	21564
877.162	21709
877.29	21614
877.418	21660
877.546	21660
877.674	21542
877.802	21534
877.93	21633
878.058	21564
878.185	21450
878.313	21530
878.441	21587
878.568	21466
878.696	21469
878.824	21625
878.951	21781
879.079	21781
879.206	21884
879.333	21819
879.461	21762
879.588	21690
879.715	21804
879.842	21823
879.97	21717
880.097	21458
880.224	21462
880.351	21477
880.478	21416
880.605	21416
880.732	21435
880.859	21564
880.986	21420
881.112	21473
881.239	21264
881.366	21260
881.493	21165
881.619	20967
881.746	21131
881.872	21051
881.999	21009
882.125	20979
882.252	21112
882.378	20895
882.505	21131
882.631	20880
882.757	20727
882.883	20815
883.01	20655
883.136	20720
883.262	20537
883.388	20537
883.514	20670
883.64	20739
883.766	20674
883.892	20568
884.018	20674
884.143	20651
884.269	20716
884.395	20442
884.52	20427
884.646	20488
884.772	20313
884.897	20362
885.023	20412
885.148	20488
885.274	20533
885.399	20415
885.524	20423
885.65	20278
885.775	20473
885.9	20358
886.025	20492
886.15	20434
886.275	20328
886.4	20419
886.525	20355
886.65	20259
886.775	20256
886.9	20473
887.025	20495
887.149	20419
887.274	20195
887.399	20202
887.523	20164
887.648	20164
887.773	20164
887.897	20145
888.021	20278
888.146	20180
888.27	20191
888.395	20294
888.519	20180
888.643	20172
888.767	20157
888.891	20103
889.015	19997
889.139	20134
889.263	19982
889.387	20054
889.511	20172
889.635	20058
889.759	19936
889.883	19849
890.006	19936
890.13	20065
890.254	19860
890.377	19845
890.501	19681
890.624	19651
890.748	19715
890.871	19628
890.995	19464
891.118	19506
891.241	19521
891.364	19548
891.488	19685
891.611	19677
891.734	19586
891.857	19677
891.98	19582
892.103	19643
892.226	19449
892.349	19491
892.471	19415
892.594	19434
892.717	19453
892.839	19453
892.962	19586
893.085	19499
893.207	19487
893.33	19358
893.452	19457
893.575	19487
893.697	19438
893.819	19571
893.941	19677
894.064	19605
894.186	19358
894.308	19362
894.43	19510
894.552	19582
894.674	19525
894.796	19365
894.918	19441
895.04	19495
895.161	19468
895.283	19483
895.405	19415
895.526	19438
895.648	19495
895.769	19559
895.891	19616
896.012	19632
896.134	19533
896.255	19540
896.376	19483
896.498	19529
896.619	19518
896.74	19453
896.861	19529
896.982	19841
897.103	20016
897.224	19712
897.345	19738
897.466	19605
897.587	19769
897.708	19978
897.828	19769
897.949	19723
898.07	19567
898.19	19655
898.311	19803
898.431	19620
898.552	19849
898.672	19731
898.792	19814
898.913	19761
899.033	19601
899.153	19548
899.273	19381
899.393	19647
899.513	19514
899.633	19487
899.753	19502
899.873	19525
899.993	19563
900.113	19415
900.232	19495
900.352	19396
900.472	19343
900.591	19331
900.711	19274
900.83	19187
900.95	19422
901.069	19335
901.189	19133
901.308	18947
901.427	18779
901.546	18928
901.665	18852
901.784	18920
901.904	18722
902.023	18745
902.141	18464
902.26	18357
902.379	18506
902.498	18292
902.617	18270
902.735	18365
902.854	18376
902.973	18350
903.091	18140
903.21	18022
903.328	18019
903.446	18015
903.565	17920
903.683	17916
903.801	17737
903.919	17764
904.038	17733
904.156	17611
904.274	17714
904.392	17539
904.51	17573
904.627	17684
904.745	17707
904.863	17714
904.981	17303
905.098	17334
905.216	17166
905.334	17387
905.451	17364
905.569	17299
905.686	17280
905.803	17345
905.921	17151
906.038	17159
906.155	17086
906.272	17006
906.389	17064
906.506	16828
906.623	16828
906.74	16793
906.857	16748
906.974	16717
907.091	16911
907.208	17121
907.324	16915
907.441	16710
907.557	16599
907.674	16535
907.79	16527
907.907	16546
908.023	16554
908.139	16596
908.256	16462
908.372	16344
908.488	16478
908.604	16348
908.72	16257
908.836	16246
908.952	16272
909.068	16261
909.184	16318
909.3	16272
909.415	16405
909.531	16261
909.647	16101
909.762	16032
909.878	15892
909.993	16090
910.108	16040
910.224	16055
910.339	15945
910.454	15876
910.57	15804
910.685	15884
910.8	16059
910.915	15873
911.03	15838
911.145	15739
911.259	15603
911.374	15504
911.489	15523
911.604	15500
911.718	15405
911.833	15443
911.947	15260
912.062	15188
912.176	15336
912.291	15355
912.405	15291
912.519	15538
912.633	15439
912.748	15386
912.862	15302
912.976	15237
913.09	15131
913.204	15176
913.318	15252
913.431	15294
913.545	15195
913.659	15260
913.772	15104
913.886	15085
914	14952
914.113	15123
914.226	15009
914.34	15135
914.453	14914
914.566	14941
914.68	15024
914.793	14811
914.906	14754
915.019	14636
915.132	14488
915.245	14613
915.358	14602
915.47	14625
915.583	14594
915.696	14610
915.809	14777
915.921	14670
916.034	14575
916.146	14495
916.259	14526
916.371	14587
916.483	14613
916.595	14438
916.708	14503
916.82	14518
916.932	14404
917.044	14427
917.156	14427
917.268	14259
917.38	14286
917.491	14248
917.603	14317
917.715	14336
917.826	14358
917.938	14214
918.049	14084
918.161	14210
918.272	14355
918.384	14313
918.495	14191
918.606	14046
918.717	13970
918.828	14123
918.939	14012
919.05	13978
919.161	14062
919.272	13852
919.383	13970
919.494	14153
919.604	14210
919.715	14043
919.826	13970
919.936	14103
920.047	14168
920.157	14027
920.267	14221
920.378	14001
920.488	13955
920.598	14199
920.708	14339
920.818	14183
920.928	14240
921.038	14317
921.148	14309
921.258	13978
921.368	13951
921.477	13795
921.587	13780
921.697	13696
921.806	13826
921.916	13708
922.025	13495
922.134	13483
922.244	13381
922.353	13373
922.462	13392
922.571	13202
922.68	13236
922.789	13103
922.898	13072
923.007	13072
923.116	13023
923.224	13137
923.333	13088
923.442	12939
923.55	12935
923.659	13000
923.767	13046
923.876	12848
923.984	12989
924.092	12749
924.201	12878
924.309	12833
924.417	12867
924.525	12795
924.633	12772
924.741	13715
924.849	12563
924.956	12875
925.064	12639
925.172	12525
925.279	12555
925.387	12646
925.494	12536
925.602	12593
925.709	12597
925.816	12460
925.924	12502
926.031	12570
926.138	12536
926.245	12589
926.352	12414
926.459	12483
926.566	12536
926.673	12490
926.779	12353
926.886	12292
926.993	12148
927.099	12148
927.206	12144
927.312	12140
927.419	12197
927.525	12098
927.631	12159
927.737	12030
927.843	11980
927.95	11859
928.056	11920
928.162	11988
928.267	12117
928.373	12604
928.479	12030
928.585	11771
928.69	11935
928.796	12007
928.901	11836
929.007	11699
929.112	11840
929.218	11798
929.323	11745
929.428	11745
929.533	11870
929.638	11585
929.743	11604
929.848	11600
929.953	11733
930.058	11604
930.163	11379
930.267	11383
930.372	11566
930.477	11326
930.581	11600
930.685	11478
930.79	11235
930.894	11372
930.998	11288
931.103	11391
931.207	11048
931.311	10953
931.415	10904
931.519	10744
931.623	10679
