Data from test_V78500241_523.txt Node
Date: Fri Mar 25 15:45:25 CST 2022
User: usil
Spectrometer: V785-0024
Trigger mode: 0
Integration Time (sec): 4.000000E-1
Scans to average: 1
Nonlinearity correction enabled: false
Boxcar width: 0
Storing dark spectrum: false
XAxis mode: Wavelengths
Number of Pixels in Spectrum: 1024
>>>>>Begin Spectral Data<<<<<
801.071	27762
801.214	27724
801.356	27412
801.499	27545
801.641	27450
801.783	27496
801.926	27553
802.068	27321
802.211	27237
802.353	27096
802.496	27032
802.638	26933
802.78	27043
802.923	26971
803.065	27020
803.208	26986
803.35	27043
803.492	27135
803.635	27351
803.777	27036
803.919	27123
804.061	27378
804.204	27093
804.346	26960
804.488	27039
804.63	27218
804.773	27028
804.915	27249
805.057	27386
805.199	27218
805.341	27336
805.483	27332
805.626	27382
805.768	27245
805.91	27268
806.052	27264
806.194	27344
806.336	27412
806.478	27367
806.62	27363
806.762	27374
806.904	27507
807.046	27751
807.188	27629
807.33	27698
807.472	27766
807.614	27633
807.756	27755
807.898	27652
808.04	27466
808.182	27545
808.324	27504
808.465	27511
808.607	27705
808.749	27899
808.891	28021
809.033	28211
809.174	27873
809.316	27937
809.458	28150
809.6	27972
809.741	28097
809.883	28177
810.025	28234
810.166	28211
810.308	28143
810.45	28306
810.591	28276
810.733	27956
810.875	27781
811.016	27739
811.158	28078
811.299	28044
811.441	28006
811.582	27972
811.724	27975
811.865	27857
812.007	27903
812.148	27918
812.29	27880
812.431	28147
812.573	28303
812.714	28401
812.855	28542
812.997	28519
813.138	28744
813.279	28641
813.421	28455
813.562	28333
813.703	28207
813.845	28070
813.986	27945
814.127	27762
814.268	27705
814.41	27762
814.551	27545
814.692	27762
814.833	27553
814.974	27564
815.115	27545
815.256	27397
815.397	27469
815.539	27561
815.68	27321
815.821	27416
815.962	27359
816.103	27393
816.244	27252
816.385	27188
816.526	27112
816.666	27070
816.807	26883
816.948	27093
817.089	26982
817.23	26910
817.371	26845
817.512	26952
817.653	27009
817.793	26754
817.934	26788
818.075	26819
818.216	27024
818.356	26887
818.497	26925
818.638	26522
818.778	26632
818.919	26708
819.06	26708
819.2	26724
819.341	26872
819.481	26815
819.622	27058
819.762	27332
819.903	26998
820.043	27058
820.184	27005
820.324	27055
820.465	27039
820.605	27036
820.746	26986
820.886	27032
821.026	27043
821.167	26921
821.307	27093
821.447	26937
821.588	26990
821.728	26750
821.868	26530
822.008	26427
822.149	26404
822.289	26294
822.429	26237
822.569	26176
822.709	25989
822.849	25791
822.99	26001
823.13	25879
823.27	25913
823.41	25632
823.55	25582
823.69	25799
823.83	25727
823.97	25769
824.11	25518
824.25	25464
824.389	25392
824.529	25556
824.669	25639
824.809	25738
824.949	25632
825.089	25590
825.228	25620
825.368	25415
825.508	25434
825.648	25350
825.787	25415
825.927	25529
826.067	25381
826.206	25392
826.346	25464
826.485	25506
826.625	25411
826.765	25392
826.904	25518
827.044	25266
827.183	25175
827.323	25076
827.462	25027
827.601	25301
827.741	25099
827.88	25228
828.02	25004
828.159	25137
828.298	25145
828.437	25145
828.577	25027
828.716	25156
828.855	24973
828.994	24745
829.134	24837
829.273	24897
829.412	24795
829.551	24779
829.69	24871
829.829	24932
829.968	24833
830.107	24943
830.246	24878
830.385	24623
830.524	24661
830.663	24483
830.802	24589
830.941	24426
831.08	24486
831.219	24521
831.357	24525
831.496	24646
831.635	24429
831.774	24205
831.913	24273
832.051	24117
832.19	24114
832.329	24038
832.467	24152
832.606	24224
832.744	24121
832.883	24026
833.022	24053
833.16	24030
833.299	24095
833.437	24034
833.576	24194
833.714	24152
833.852	24174
833.991	24098
834.129	24273
834.267	24201
834.406	24152
834.544	24072
834.682	24110
834.821	24174
834.959	24403
835.097	23984
835.235	24194
835.373	24159
835.511	24110
835.65	24038
835.788	23950
835.926	23901
836.064	23767
836.202	23824
836.34	23923
836.478	24117
836.615	23904
836.753	23923
836.891	24026
837.029	23977
837.167	24041
837.305	23847
837.443	23775
837.58	23882
837.718	23809
837.856	23733
837.993	23676
838.131	23836
838.269	23726
838.406	23756
838.544	23547
838.681	23383
838.819	23353
838.956	23284
839.094	23261
839.231	23208
839.369	23402
839.506	23653
839.643	23474
839.781	23299
839.918	23292
840.055	23250
840.193	23220
840.33	23200
840.467	23136
840.604	23231
840.742	23486
840.879	23033
841.016	23105
841.153	23067
841.29	23273
841.427	23197
841.564	23155
841.701	23258
841.838	23200
841.975	22949
842.112	23029
842.249	23044
842.385	22968
842.522	23299
842.659	22999
842.796	22999
842.933	22949
843.069	22961
843.206	22793
843.343	22953
843.479	22919
843.616	22946
843.752	22740
843.889	22748
844.025	22942
844.162	22645
844.298	22668
844.435	22717
844.571	22607
844.708	22767
844.844	22908
844.98	22869
845.117	22687
845.253	22634
845.389	22554
845.525	22653
845.661	22512
845.798	22382
845.934	22607
846.07	22451
846.206	22554
846.342	22729
846.478	22390
846.614	22257
846.75	22135
846.886	22086
847.022	22166
847.158	22143
847.294	22257
847.429	22173
847.565	22192
847.701	22443
847.837	21884
847.972	21880
848.108	22063
848.244	22063
848.379	21861
848.515	21705
848.65	21804
848.786	21857
848.921	21686
849.057	21808
849.192	21865
849.328	21800
849.463	21831
849.598	21720
849.734	21656
849.869	21629
850.004	21618
850.14	21595
850.275	21614
850.41	21439
850.545	21477
850.68	21481
850.815	21488
850.95	21454
851.085	21717
851.22	21660
851.355	21583
851.49	21515
851.625	21450
851.76	21568
851.895	21450
852.03	21336
852.165	21515
852.299	21637
852.434	21637
852.569	21587
852.703	21530
852.838	21568
852.973	21720
853.107	21671
853.242	21439
853.376	21424
853.511	21363
853.645	21287
853.78	21389
853.914	21538
854.048	21348
854.183	21249
854.317	21370
854.451	21405
854.585	21424
854.72	21428
854.854	21488
854.988	21199
855.122	21370
855.256	21199
855.39	21268
855.524	21389
855.658	21367
855.792	21374
855.926	21302
856.06	21431
856.194	21374
856.327	21283
856.461	21180
856.595	21408
856.729	21412
856.862	21458
856.996	21329
857.13	21553
857.263	21477
857.397	21431
857.53	21317
857.664	21393
857.797	21443
857.931	21329
858.064	21317
858.197	21515
858.331	21424
858.464	21241
858.597	21298
858.731	21378
858.864	21321
858.997	21199
859.13	21317
859.263	21458
859.396	21439
859.529	21233
859.662	21302
859.795	21454
859.928	21344
860.061	21439
860.194	21469
860.327	21443
860.46	21344
860.592	21519
860.725	21507
860.858	21477
860.99	21408
861.123	21298
861.256	21207
861.388	21351
861.521	21930
861.653	21279
861.786	21135
861.918	21180
862.05	21249
862.183	21317
862.315	21348
862.447	21294
862.58	21313
862.712	21100
862.844	20975
862.976	21199
863.108	21104
863.24	21492
863.372	21085
863.504	21093
863.636	21036
863.768	21043
863.9	21104
864.032	21001
864.164	21005
864.296	20933
864.428	21249
864.559	21100
864.691	21260
864.823	20975
864.954	21017
865.086	21058
865.217	21047
865.349	20979
865.48	20937
865.612	21028
865.743	21157
865.875	21055
866.006	20826
866.137	20921
866.269	20937
866.4	21001
866.531	20887
866.662	20811
866.793	20891
866.924	20910
867.055	20921
867.186	20929
867.317	20815
867.448	20773
867.579	20842
867.71	20876
867.841	20899
867.972	20941
868.103	20819
868.233	20864
868.364	20834
868.495	20971
868.625	21093
868.756	21264
868.886	21047
869.017	21039
869.147	21233
869.278	21275
869.408	21066
869.539	21241
869.669	21207
869.799	21188
869.929	21272
870.06	21180
870.19	21443
870.32	21458
870.45	21355
870.58	21443
870.71	21717
870.84	21603
870.97	21507
871.1	21549
871.23	21705
871.36	21797
871.489	21641
871.619	21686
871.749	21739
871.879	21884
872.008	21679
872.138	21759
872.267	21622
872.397	21564
872.526	21515
872.656	21526
872.785	21644
872.915	21751
873.044	21823
873.173	21728
873.303	21800
873.432	21747
873.561	21934
873.69	21709
873.819	21770
873.948	21869
874.077	21774
874.206	21652
874.335	21774
874.464	21865
874.593	22055
874.722	21922
874.851	22120
874.979	22074
875.108	21991
875.237	21934
875.365	21842
875.494	22017
875.623	22059
875.751	21915
875.88	21930
876.008	22097
876.136	22219
876.265	22356
876.393	22443
876.521	22569
876.65	22508
876.778	22360
876.906	22230
877.034	22265
877.162	22261
877.29	22379
877.418	22303
877.546	22253
877.674	22371
877.802	22360
877.93	22303
878.058	22242
878.185	22185
878.313	22257
878.441	22325
878.568	22230
878.696	22314
878.824	22363
878.951	22306
879.079	22443
879.206	22607
879.333	22519
879.461	22268
879.588	22474
879.715	22405
879.842	22618
879.97	22421
880.097	22086
880.224	22143
880.351	22185
880.478	22261
880.605	22078
880.732	22120
880.859	22303
880.986	22124
881.112	22207
881.239	22112
881.366	21899
881.493	21903
881.619	21797
881.746	21755
881.872	21850
881.999	21713
882.125	21622
882.252	21736
882.378	21629
882.505	21789
882.631	21603
882.757	21481
882.883	21530
883.01	21580
883.136	21367
883.262	21291
883.388	21348
883.514	21424
883.64	21466
883.766	21389
883.892	21173
884.018	21207
884.143	21302
884.269	21462
884.395	21241
884.52	21142
884.646	21024
884.772	21020
884.897	21009
885.023	20986
885.148	21116
885.274	21104
885.399	21157
885.524	21192
885.65	21104
885.775	21077
885.9	20952
886.025	21104
886.15	21055
886.275	20986
886.4	20883
886.525	21070
886.65	21028
886.775	20918
886.9	21214
887.025	21230
887.149	21096
887.274	20819
887.399	20769
887.523	20857
887.648	20815
887.773	20735
887.897	20891
888.021	20834
888.146	20826
888.27	20842
888.395	20895
888.519	20838
888.643	20925
888.767	20857
888.891	20708
889.015	20613
889.139	20864
889.263	20488
889.387	20716
889.511	20872
889.635	20727
889.759	20720
889.883	20644
890.006	20648
890.13	20762
890.254	20613
890.377	20651
890.501	20419
890.624	20358
890.748	20298
890.871	20237
890.995	20210
891.118	20278
891.241	20244
891.364	20195
891.488	20377
891.611	20218
891.734	20210
891.857	20256
891.98	20172
892.103	20164
892.226	20237
892.349	20195
892.471	19944
892.594	20164
892.717	20035
892.839	20134
892.962	20081
893.085	19978
893.207	20096
893.33	20005
893.452	20031
893.575	20161
893.697	20084
893.819	20275
893.941	20336
894.064	20271
894.186	20134
894.308	20031
894.43	20195
894.552	20294
894.674	20157
894.796	20077
894.918	20027
895.04	20138
895.161	20081
895.283	20130
895.405	20054
895.526	20168
895.648	20100
895.769	19917
895.891	20206
896.012	20244
896.134	20115
896.255	20130
896.376	20073
896.498	20031
896.619	20077
896.74	20103
896.861	20134
896.982	20415
897.103	20598
897.224	20438
897.345	20339
897.466	20324
897.587	20248
897.708	20423
897.828	20355
897.949	20248
898.07	20115
898.19	20244
898.311	20415
898.431	20195
898.552	20385
898.672	20438
898.792	20400
898.913	20298
899.033	20149
899.153	20043
899.273	20001
899.393	19989
899.513	20145
899.633	20115
899.753	20073
899.873	20062
899.993	20084
900.113	20058
900.232	20107
900.352	20100
900.472	19902
900.591	19894
900.711	19925
900.83	19788
900.95	19970
901.069	19925
901.189	19727
901.308	19628
901.427	19407
901.546	19377
901.665	19487
901.784	19422
901.904	19339
902.023	19278
902.141	19053
902.26	19053
902.379	19027
902.498	18947
902.617	18958
902.735	18939
902.854	18913
902.973	18810
903.091	18635
903.21	18700
903.328	18509
903.446	18597
903.565	18513
903.683	18494
903.801	18365
903.919	18410
904.038	18388
904.156	18159
904.274	18289
904.392	18133
904.51	18194
904.627	18163
904.745	18205
904.863	18224
904.981	18007
905.098	17878
905.216	17840
905.334	17760
905.451	17882
905.569	17771
905.686	17958
905.803	17870
905.921	17653
906.038	17802
906.155	17802
906.272	17532
906.389	17611
906.506	17471
906.623	17471
906.74	17307
906.857	17364
906.974	17322
907.091	17360
907.208	17436
907.324	17551
907.441	17299
907.557	17181
907.674	17121
907.79	17105
907.907	17075
908.023	17174
908.139	17075
908.256	17014
908.372	17033
908.488	16965
908.604	16778
908.72	16809
908.836	16793
908.952	16637
909.068	16866
909.184	16862
909.3	16866
909.415	16847
909.531	16793
909.647	16588
909.762	16664
909.878	16466
909.993	16599
910.108	16550
910.224	16542
910.339	16618
910.454	16481
910.57	16360
910.685	16143
910.8	16561
910.915	16466
911.03	16352
911.145	16101
911.259	16177
911.374	16230
911.489	16078
911.604	15983
911.718	15888
911.833	15850
911.947	15888
912.062	15789
912.176	15926
912.291	16029
912.405	15922
912.519	16147
912.633	16071
912.748	15975
912.862	15865
912.976	15660
913.09	15572
913.204	15705
913.318	15724
913.431	15739
913.545	15778
913.659	15800
913.772	15633
913.886	15603
914	15473
914.113	15576
914.226	15580
914.34	15614
914.453	15477
914.566	15576
914.68	15393
914.793	15386
914.906	15252
915.019	15161
915.132	15070
915.245	15173
915.358	15184
915.47	15203
915.583	15146
915.696	15203
915.809	15268
915.921	15207
916.034	15066
916.146	15055
916.259	14971
916.371	15150
916.483	15097
916.595	15066
916.708	14910
916.82	14963
916.932	14971
917.044	14880
917.156	14838
917.268	14796
917.38	14842
917.491	14857
917.603	14811
917.715	14857
917.826	14929
917.938	14750
918.049	14640
918.161	14826
918.272	14891
918.384	14807
918.495	14693
918.606	14518
918.717	14560
918.828	14568
918.939	14648
919.05	14495
919.161	14518
919.272	14267
919.383	14415
919.494	14564
919.604	14823
919.715	14514
919.826	14495
919.936	14549
920.047	14530
920.157	14495
920.267	14758
920.378	14518
920.488	14507
920.598	14682
920.708	14750
920.818	14579
920.928	14594
921.038	14773
921.148	14746
921.258	14526
921.368	14370
921.477	14221
921.587	14278
921.697	14202
921.806	14187
921.916	14119
922.025	13944
922.134	13841
922.244	13803
922.353	13970
922.462	13795
922.571	13704
922.68	13518
922.789	13548
922.898	13594
923.007	13426
923.116	13556
923.224	13491
923.333	13491
923.442	13403
923.55	13350
923.659	13373
923.767	13354
923.876	13293
923.984	13403
924.092	13164
924.201	13400
924.309	13244
924.417	13247
924.525	13141
924.633	13244
924.741	14043
924.849	13057
924.956	13217
925.064	13042
925.172	12954
925.279	13042
925.387	12958
925.494	12993
925.602	13137
925.709	13042
925.816	12901
925.924	12947
926.031	13088
926.138	12886
926.245	12943
926.352	12821
926.459	12970
926.566	12924
926.673	12886
926.779	12776
926.886	12616
926.993	12627
927.099	12566
927.206	12536
927.312	12509
927.419	12627
927.525	12532
927.631	12471
927.737	12445
927.843	12330
927.95	12266
928.056	12357
928.162	12395
928.267	12376
928.373	12951
928.479	12467
928.585	12171
928.69	12262
928.796	12365
928.901	12239
929.007	12091
929.112	12178
929.218	12038
929.323	12155
929.428	12011
929.533	12178
929.638	11977
929.743	12072
929.848	12079
929.953	12102
930.058	11939
930.163	11878
930.267	11676
930.372	11824
930.477	11634
930.581	11885
930.685	11790
930.79	11699
930.894	11714
930.998	11668
931.103	11794
931.207	11444
931.311	11345
931.415	11227
931.519	11045
931.623	10980
