Data from test_V78500241_3728.txt Node
Date: Fri Mar 25 16:07:37 CST 2022
User: usil
Spectrometer: V785-0024
Trigger mode: 0
Integration Time (sec): 4.000000E-1
Scans to average: 1
Nonlinearity correction enabled: false
Boxcar width: 0
Storing dark spectrum: false
XAxis mode: Wavelengths
Number of Pixels in Spectrum: 1024
>>>>>Begin Spectral Data<<<<<
801.071	28246
801.214	28150
801.356	28010
801.499	27983
801.641	27800
801.783	27667
801.926	27880
802.068	27797
802.211	27644
802.353	27641
802.496	27408
802.638	27511
802.78	27408
802.923	27416
803.065	27458
803.208	27431
803.35	27469
803.492	27656
803.635	27709
803.777	27561
803.919	27610
804.061	27945
804.204	27686
804.346	27523
804.488	27564
804.63	27545
804.773	27564
804.915	27709
805.057	27713
805.199	27614
805.341	27766
805.483	27899
805.626	27857
805.768	27762
805.91	27781
806.052	27823
806.194	27766
806.336	28070
806.478	27869
806.62	27991
806.762	27831
806.904	28017
807.046	28265
807.188	28257
807.33	28246
807.472	28424
807.614	28329
807.756	28230
807.898	28101
808.04	28150
808.182	28067
808.324	28154
808.465	28337
808.607	28382
808.749	28474
808.891	28626
809.033	28691
809.174	28656
809.316	28569
809.458	28565
809.6	28470
809.741	28523
809.883	28554
810.025	28786
810.166	28645
810.308	28816
810.45	28713
810.591	28645
810.733	28637
810.875	28550
811.016	28481
811.158	28371
811.299	28672
811.441	28599
811.582	28725
811.724	28531
811.865	28596
812.007	28550
812.148	28538
812.29	28580
812.431	28763
812.573	28740
812.714	28915
812.855	28984
812.997	29147
813.138	29311
813.279	29121
813.421	29090
813.562	28953
813.703	28790
813.845	28778
813.986	28535
814.127	28242
814.268	28109
814.41	28223
814.551	28230
814.692	28306
814.833	28036
814.974	28070
815.115	28344
815.256	28044
815.397	28059
815.539	28055
815.68	28021
815.821	27998
815.962	28109
816.103	27918
816.244	27869
816.385	27698
816.526	27857
816.666	27515
816.807	27458
816.948	27572
817.089	27591
817.23	27625
817.371	27477
817.512	27553
817.653	27435
817.793	27412
817.934	27576
818.075	27408
818.216	27511
818.356	27534
818.497	27405
818.638	27218
818.778	27195
818.919	27249
819.06	27340
819.2	27519
819.341	27530
819.481	27576
819.622	27583
819.762	27937
819.903	27622
820.043	27739
820.184	27717
820.324	27701
820.465	27637
820.605	27622
820.746	27534
820.886	27564
821.026	27447
821.167	27618
821.307	27667
821.447	27507
821.588	27530
821.728	27393
821.868	27138
822.008	27055
822.149	26998
822.289	26861
822.429	26815
822.569	26587
822.709	26629
822.849	26492
822.99	26499
823.13	26431
823.27	26461
823.41	26294
823.55	26282
823.69	26389
823.83	26438
823.97	26294
824.11	26107
824.25	26107
824.389	26157
824.529	26187
824.669	26149
824.809	26237
824.949	26191
825.089	26221
825.228	26286
825.368	26084
825.508	26062
825.648	25925
825.787	25978
825.927	26122
826.067	25944
826.206	25993
826.346	26046
826.485	26050
826.625	26005
826.765	26122
826.904	26126
827.044	25708
827.183	25689
827.323	25700
827.462	25845
827.601	25849
827.741	25635
827.88	25757
828.02	25704
828.159	25731
828.298	25807
828.437	25780
828.577	25624
828.716	25776
828.855	25578
828.994	25510
829.134	25304
829.273	25377
829.412	25293
829.551	25354
829.69	25365
829.829	25415
829.968	25407
830.107	25438
830.246	25434
830.385	25293
830.524	25160
830.663	25289
830.802	25168
830.941	24890
831.08	25034
831.219	25107
831.357	25160
831.496	25426
831.635	25015
831.774	24932
831.913	24894
832.051	24901
832.19	24700
832.329	24669
832.467	24726
832.606	24658
832.744	24734
832.883	24719
833.022	24627
833.16	24779
833.299	24779
833.437	24658
833.576	24810
833.714	24897
833.852	24760
833.991	24738
834.129	24745
834.267	24745
834.406	24878
834.544	24779
834.682	24844
834.821	24688
834.959	24890
835.097	24707
835.235	24810
835.373	24696
835.511	24681
835.65	24559
835.788	24612
835.926	24471
836.064	24525
836.202	24277
836.34	24582
836.478	24578
836.615	24547
836.753	24722
836.891	24719
837.029	24563
837.167	24502
837.305	24517
837.443	24414
837.58	24547
837.718	24410
837.856	24376
837.993	24277
838.131	24502
838.269	24296
838.406	24342
838.544	24311
838.681	24007
838.819	23992
838.956	23878
839.094	23843
839.231	23859
839.369	24076
839.506	24152
839.643	24064
839.781	23912
839.918	23703
840.055	23912
840.193	23779
840.33	23691
840.467	23836
840.604	23775
840.742	24076
840.879	23600
841.016	23767
841.153	23672
841.29	23863
841.427	23745
841.564	23855
841.701	23760
841.838	23619
841.975	23676
842.112	23802
842.249	23642
842.385	23467
842.522	23904
842.659	23668
842.796	23547
842.933	23653
843.069	23482
843.206	23467
843.343	23570
843.479	23562
843.616	23505
843.752	23440
843.889	23505
844.025	23406
844.162	23326
844.298	23406
844.435	23330
844.571	23296
844.708	23349
844.844	23459
844.98	23562
845.117	23417
845.253	23227
845.389	23193
845.525	23296
845.661	23181
845.798	23143
845.934	23216
846.07	23090
846.206	23124
846.342	23197
846.478	23041
846.614	22858
846.75	22774
846.886	22812
847.022	22797
847.158	22725
847.294	22786
847.429	22892
847.565	22656
847.701	23048
847.837	22527
847.972	22622
848.108	22611
848.244	22675
848.379	22497
848.515	22200
848.65	22440
848.786	22390
848.921	22405
849.057	22489
849.192	22424
849.328	22504
849.463	22249
849.598	22344
849.734	22226
849.869	22253
850.004	22268
850.14	22318
850.275	22116
850.41	22044
850.545	22078
850.68	22143
850.815	22166
850.95	22086
851.085	22192
851.22	22196
851.355	22139
851.49	22128
851.625	22082
851.76	22135
851.895	22025
852.03	22074
852.165	22192
852.299	22204
852.434	22207
852.569	22204
852.703	22173
852.838	22192
852.973	22405
853.107	22276
853.242	22051
853.376	22021
853.511	21816
853.645	21983
853.78	22055
853.914	21899
854.048	21869
854.183	21903
854.317	21972
854.451	22219
854.585	21975
854.72	21911
854.854	22013
854.988	21880
855.122	21926
855.256	21888
855.39	22040
855.524	22090
855.658	21991
855.792	21960
855.926	21808
856.06	22055
856.194	22059
856.327	21888
856.461	21899
856.595	21972
856.729	21975
856.862	22063
856.996	22040
857.13	22051
857.263	22162
857.397	22120
857.53	22093
857.664	22143
857.797	22051
857.931	22139
858.064	22112
858.197	22078
858.331	21873
858.464	21884
858.597	21873
858.731	21934
858.864	21861
858.997	21941
859.13	21991
859.263	22051
859.396	22032
859.529	21934
859.662	21983
859.795	21975
859.928	21998
860.061	22204
860.194	22211
860.327	22090
860.46	21956
860.592	22219
860.725	22154
860.858	22135
860.99	22021
861.123	21922
861.256	21869
861.388	21937
861.521	22641
861.653	21835
861.786	21694
861.918	21709
862.05	21876
862.183	21937
862.315	21899
862.447	22006
862.58	21888
862.712	21671
862.844	21762
862.976	21686
863.108	21686
863.24	22048
863.372	21682
863.504	21652
863.636	21720
863.768	21751
863.9	21789
864.032	21622
864.164	21701
864.296	21739
864.428	21743
864.559	21675
864.691	21720
864.823	21663
864.954	21549
865.086	21572
865.217	21530
865.349	21382
865.48	21568
865.612	21629
865.743	21751
865.875	21545
866.006	21603
866.137	21542
866.269	21488
866.4	21530
866.531	21519
866.662	21504
866.793	21450
866.924	21549
867.055	21534
867.186	21641
867.317	21466
867.448	21466
867.579	21424
867.71	21420
867.841	21447
867.972	21614
868.103	21462
868.233	21538
868.364	21644
868.495	21652
868.625	21766
868.756	21888
868.886	21561
869.017	21656
869.147	21895
869.278	21880
869.408	21701
869.539	21641
869.669	21755
869.799	21778
869.929	21781
870.06	21857
870.19	22044
870.32	22101
870.45	22059
870.58	22036
870.71	22272
870.84	22188
870.97	22219
871.1	22124
871.23	22181
871.36	22265
871.489	22253
871.619	22226
871.749	22356
871.879	22394
872.008	22451
872.138	22344
872.267	22299
872.397	22200
872.526	22154
872.656	22211
872.785	22109
872.915	22478
873.044	22394
873.173	22322
873.303	22379
873.432	22318
873.561	22440
873.69	22470
873.819	22413
873.948	22398
874.077	22310
874.206	22367
874.335	22265
874.464	22485
874.593	22622
874.722	22447
874.851	22653
874.979	22683
875.108	22752
875.237	22542
875.365	22440
875.494	22527
875.623	22535
875.751	22599
875.88	22637
876.008	22786
876.136	22744
876.265	23090
876.393	23124
876.521	23075
876.65	22976
876.778	23029
876.906	23033
877.034	22980
877.162	22824
877.29	22866
877.418	22934
877.546	22999
877.674	22835
877.802	22949
877.93	22946
878.058	22923
878.185	22877
878.313	22934
878.441	22885
878.568	22763
878.696	22774
878.824	22911
878.951	22968
879.079	23079
879.206	23296
879.333	23121
879.461	23010
879.588	22984
879.715	23064
879.842	23178
879.97	22938
880.097	22881
880.224	22664
880.351	22752
880.478	22656
880.605	22713
880.732	22831
880.859	22976
880.986	22733
881.112	22793
881.239	22615
881.366	22402
881.493	22398
881.619	22352
881.746	22295
881.872	22386
881.999	22246
882.125	22219
882.252	22386
882.378	22204
882.505	22341
882.631	22181
882.757	22044
882.883	22017
883.01	22040
883.136	21987
883.262	21915
883.388	21831
883.514	21975
883.64	22109
883.766	21918
883.892	21854
884.018	21800
884.143	21983
884.269	21968
884.395	21660
884.52	21572
884.646	21629
884.772	21466
884.897	21595
885.023	21660
885.148	21835
885.274	21850
885.399	21713
885.524	21671
885.65	21603
885.775	21747
885.9	21599
886.025	21751
886.15	21736
886.275	21583
886.4	21549
886.525	21648
886.65	21477
886.775	21545
886.9	21652
887.025	21770
887.149	21641
887.274	21458
887.399	21313
887.523	21450
887.648	21367
887.773	21458
887.897	21367
888.021	21473
888.146	21447
888.27	21511
888.395	21336
888.519	21504
888.643	21500
888.767	21523
888.891	21260
889.015	21203
889.139	21222
889.263	21222
889.387	21294
889.511	21332
889.635	21291
889.759	21211
889.883	21195
890.006	21211
890.13	21348
890.254	21188
890.377	21169
890.501	20975
890.624	20979
890.748	20891
890.871	20838
890.995	20769
891.118	20636
891.241	20800
891.364	20823
891.488	20887
891.611	20746
891.734	20804
891.857	20811
891.98	20796
892.103	20834
892.226	20781
892.349	20655
892.471	20545
892.594	20682
892.717	20648
892.839	20537
892.962	20625
893.085	20689
893.207	20670
893.33	20533
893.452	20564
893.575	20788
893.697	20530
893.819	20880
893.941	20868
894.064	20868
894.186	20598
894.308	20560
894.43	20720
894.552	20754
894.674	20689
894.796	20522
894.918	20613
895.04	20602
895.161	20708
895.283	20560
895.405	20621
895.526	20689
895.648	20625
895.769	20750
895.891	20697
896.012	20678
896.134	20636
896.255	20617
896.376	20682
896.498	20598
896.619	20663
896.74	20701
896.861	20670
896.982	20960
897.103	21020
897.224	20956
897.345	21020
897.466	20716
897.587	20914
897.708	21055
897.828	20792
897.949	20887
898.07	20655
898.19	20842
898.311	20941
898.431	20754
898.552	20868
898.672	20883
898.792	20857
898.913	20815
899.033	20864
899.153	20781
899.273	20571
899.393	20545
899.513	20598
899.633	20579
899.753	20674
899.873	20575
899.993	20670
900.113	20613
900.232	20629
900.352	20495
900.472	20294
900.591	20271
900.711	20343
900.83	20263
900.95	20533
901.069	20454
901.189	20172
901.308	20031
901.427	19951
901.546	19799
901.665	19951
901.784	19947
901.904	19860
902.023	19746
902.141	19525
902.26	19483
902.379	19559
902.498	19365
902.617	19419
902.735	19464
902.854	19499
902.973	19377
903.091	19190
903.21	19129
903.328	19183
903.446	19042
903.565	19023
903.683	18970
903.801	18726
903.919	18795
904.038	18894
904.156	18715
904.274	18738
904.392	18559
904.51	18654
904.627	18703
904.745	18661
904.863	18654
904.981	18391
905.098	18338
905.216	18304
905.334	18304
905.451	18323
905.569	18285
905.686	18353
905.803	18296
905.921	18057
906.038	18167
906.155	18224
906.272	17973
906.389	18152
906.506	17920
906.623	17859
906.74	17859
906.857	17726
906.974	17748
907.091	17950
907.208	18007
907.324	17954
907.441	17901
907.557	17756
907.674	17619
907.79	17577
907.907	17440
908.023	17745
908.139	17581
908.256	17528
908.372	17474
908.488	17364
908.604	17398
908.72	17322
908.836	17315
908.952	17258
909.068	17307
909.184	17341
909.3	17292
909.415	17360
909.531	17239
909.647	17102
909.762	16991
909.878	16999
909.993	17075
910.108	17029
910.224	16858
910.339	16995
910.454	16927
910.57	16843
910.685	16744
910.8	17018
910.915	16923
911.03	16820
911.145	16630
911.259	16626
911.374	16713
911.489	16573
911.604	16440
911.718	16329
911.833	16238
911.947	16181
912.062	16192
912.176	16409
912.291	16424
912.405	16398
912.519	16535
912.633	16470
912.748	16314
912.862	16318
912.976	16230
913.09	15991
913.204	16177
913.318	16177
913.431	16185
913.545	16093
913.659	16215
913.772	16181
913.886	16036
914	15831
914.113	16090
914.226	15945
914.34	16013
914.453	15918
914.566	15941
914.68	15846
914.793	15789
914.906	15606
915.019	15538
915.132	15568
915.245	15515
915.358	15587
915.47	15549
915.583	15439
915.696	15545
915.809	15660
915.921	15606
916.034	15389
916.146	15545
916.259	15382
916.371	15443
916.483	15485
916.595	15393
916.708	15351
916.82	15428
916.932	15340
917.044	15329
917.156	15195
917.268	15226
917.38	15241
917.491	15207
917.603	15100
917.715	15260
917.826	15207
917.938	15032
918.049	15138
918.161	15176
918.272	15150
918.384	15154
918.495	15142
918.606	14975
918.717	14921
918.828	15020
918.939	14887
919.05	14758
919.161	14834
919.272	14655
919.383	14830
919.494	14986
919.604	14994
919.715	14891
919.826	14830
919.936	14834
920.047	14902
920.157	14872
920.267	15028
920.378	14864
920.488	14777
920.598	15108
920.708	15077
920.818	15085
920.928	14956
921.038	15211
921.148	15055
921.258	14838
921.368	14705
921.477	14545
921.587	14545
921.697	14370
921.806	14571
921.916	14533
922.025	14336
922.134	14294
922.244	14183
922.353	14339
922.462	14073
922.571	14008
922.68	13887
922.789	13860
922.898	13841
923.007	13955
923.116	13936
923.224	13822
923.333	13780
923.442	13727
923.55	13727
923.659	13689
923.767	13757
923.876	13590
923.984	13769
924.092	13491
924.201	13624
924.309	13571
924.417	13590
924.525	13518
924.633	13559
924.741	14282
924.849	13308
924.956	13400
925.064	13301
925.172	13164
925.279	13179
925.387	13331
925.494	13316
925.602	13453
925.709	13411
925.816	13156
925.924	13289
926.031	13247
926.138	13126
926.245	13213
926.352	13076
926.459	13308
926.566	13289
926.673	13126
926.779	13031
926.886	13095
926.993	12916
927.099	12856
927.206	12741
927.312	12776
927.419	12871
927.525	12798
927.631	12856
927.737	12734
927.843	12631
927.95	12536
928.056	12719
928.162	12566
928.267	12719
928.373	13259
928.479	12684
928.585	12513
928.69	12608
928.796	12642
928.901	12479
929.007	12330
929.112	12479
929.218	12464
929.323	12410
929.428	12391
929.533	12502
929.638	12323
929.743	12327
929.848	12361
929.953	12270
930.058	12201
930.163	12057
930.267	11977
930.372	12182
930.477	12041
930.581	12228
930.685	12136
930.79	11965
930.894	11969
930.998	11863
931.103	12083
931.207	11623
931.311	11592
931.415	11463
931.519	11334
931.623	11254
