Data from test_V78500241_497.txt Node
Date: Fri Mar 25 15:45:14 CST 2022
User: usil
Spectrometer: V785-0024
Trigger mode: 0
Integration Time (sec): 4.000000E-1
Scans to average: 1
Nonlinearity correction enabled: false
Boxcar width: 0
Storing dark spectrum: false
XAxis mode: Wavelengths
Number of Pixels in Spectrum: 1024
>>>>>Begin Spectral Data<<<<<
801.071	27614
801.214	27542
801.356	27245
801.499	27180
801.641	27081
801.783	27211
801.926	27173
802.068	27074
802.211	27089
802.353	26944
802.496	26758
802.638	26792
802.78	26792
802.923	26826
803.065	26648
803.208	26716
803.35	26750
803.492	26826
803.635	26876
803.777	26842
803.919	26861
804.061	27161
804.204	26986
804.346	26796
804.488	26868
804.63	26758
804.773	26743
804.915	26929
805.057	26937
805.199	26788
805.341	26979
805.483	27249
805.626	26986
805.768	26929
805.91	27020
806.052	27017
806.194	26979
806.336	27291
806.478	27066
806.62	27020
806.762	27222
806.904	27313
807.046	27538
807.188	27363
807.33	27557
807.472	27519
807.614	27504
807.756	27363
807.898	27283
808.04	27317
808.182	27283
808.324	27332
808.465	27264
808.607	27530
808.749	27705
808.891	27774
809.033	27892
809.174	27838
809.316	27854
809.458	27823
809.6	27778
809.741	27682
809.883	27884
810.025	28017
810.166	28044
810.308	28017
810.45	27956
810.591	27884
810.733	27873
810.875	27686
811.016	27622
811.158	27648
811.299	27762
811.441	27941
811.582	27743
811.724	27724
811.865	27633
812.007	27652
812.148	27679
812.29	27679
812.431	27903
812.573	28196
812.714	28078
812.855	28306
812.997	28386
813.138	28379
813.279	28398
813.421	28177
813.562	28272
813.703	27983
813.845	28006
813.986	27606
814.127	27538
814.268	27435
814.41	27435
814.551	27306
814.692	27496
814.833	27275
814.974	27306
815.115	27504
815.256	27310
815.397	27188
815.539	27279
815.68	27211
815.821	27093
815.962	27195
816.103	27089
816.244	27081
816.385	26811
816.526	26925
816.666	26720
816.807	26674
816.948	26697
817.089	26796
817.23	26712
817.371	26625
817.512	26587
817.653	26507
817.793	26598
817.934	26507
818.075	26674
818.216	26693
818.356	26575
818.497	26412
818.638	26362
818.778	26393
818.919	26507
819.06	26423
819.2	26606
819.341	26701
819.481	26450
819.622	26667
819.762	26887
819.903	26769
820.043	26796
820.184	26655
820.324	26670
820.465	26876
820.605	26693
820.746	26823
820.886	26606
821.026	26678
821.167	26743
821.307	26899
821.447	26667
821.588	26526
821.728	26332
821.868	26263
822.008	26221
822.149	26031
822.289	26103
822.429	25738
822.569	25868
822.709	25822
822.849	25586
822.99	25681
823.13	25548
823.27	25544
823.41	25457
823.55	25266
823.69	25426
823.83	25441
823.97	25293
824.11	25278
824.25	25285
824.389	25168
824.529	25335
824.669	25282
824.809	25460
824.949	25468
825.089	25316
825.228	25339
825.368	25194
825.508	25050
825.648	25122
825.787	25114
825.927	25247
826.067	24962
826.206	25141
826.346	25217
826.485	25221
826.625	25088
826.765	25285
826.904	25141
827.044	24745
827.183	24943
827.323	24787
827.462	24905
827.601	24734
827.741	25046
827.88	24833
828.02	24551
828.159	24635
828.298	24863
828.437	24783
828.577	24764
828.716	24970
828.855	24741
828.994	24540
829.134	24578
829.273	24517
829.412	24475
829.551	24445
829.69	24525
829.829	24559
829.968	24498
830.107	24547
830.246	24426
830.385	24532
830.524	24460
830.663	24281
830.802	24243
830.941	24121
831.08	24003
831.219	24171
831.357	24148
831.496	24319
831.635	24121
831.774	24053
831.913	24095
832.051	23916
832.19	23802
832.329	23866
832.467	23790
832.606	23733
832.744	23581
832.883	23710
833.022	23668
833.16	23779
833.299	23882
833.437	23737
833.576	23920
833.714	23923
833.852	23874
833.991	23961
834.129	23942
834.267	23882
834.406	23748
834.544	23802
834.682	23923
834.821	23866
834.959	24018
835.097	23726
835.235	23851
835.373	23775
835.511	23737
835.65	23661
835.788	23627
835.926	23691
836.064	23505
836.202	23573
836.34	23783
836.478	23748
836.615	23630
836.753	23596
836.891	23668
837.029	23642
837.167	23547
837.305	23573
837.443	23585
837.58	23531
837.718	23619
837.856	23520
837.993	23505
838.131	23474
838.269	23417
838.406	23307
838.544	23322
838.681	23117
838.819	23071
838.956	22949
839.094	22915
839.231	22961
839.369	23010
839.506	23433
839.643	23315
839.781	22911
839.918	22877
840.055	23079
840.193	22915
840.33	22908
840.467	23037
840.604	22919
840.742	23128
840.879	22839
841.016	22828
841.153	22694
841.29	23052
841.427	22908
841.564	22961
841.701	22850
841.838	22805
841.975	22694
842.112	22839
842.249	22687
842.385	22679
842.522	22908
842.659	22634
842.796	22622
842.933	22580
843.069	22577
843.206	22584
843.343	22679
843.479	22584
843.616	22694
843.752	22367
843.889	22466
844.025	22561
844.162	22348
844.298	22550
844.435	22459
844.571	22386
844.708	22478
844.844	22584
844.98	22592
845.117	22447
845.253	22382
845.389	22322
845.525	22417
845.661	22223
845.798	22249
845.934	22436
846.07	22143
846.206	22090
846.342	22200
846.478	22219
846.614	21873
846.75	21766
846.886	21915
847.022	21918
847.158	21842
847.294	21888
847.429	21964
847.565	21838
847.701	22154
847.837	21812
847.972	21603
848.108	21644
848.244	21694
848.379	21644
848.515	21557
848.65	21458
848.786	21530
848.921	21488
849.057	21538
849.192	21679
849.328	21526
849.463	21439
849.598	21458
849.734	21268
849.869	21401
850.004	21157
850.14	21283
850.275	21321
850.41	21298
850.545	21165
850.68	21135
850.815	21351
850.95	21264
851.085	21526
851.22	21317
851.355	21192
851.49	21184
851.625	21268
851.76	21154
851.895	21146
852.03	21176
852.165	21203
852.299	21329
852.434	21329
852.569	21317
852.703	21188
852.838	21119
852.973	21386
853.107	21272
853.242	21218
853.376	21066
853.511	21028
853.645	21188
853.78	21188
853.914	21039
854.048	21081
854.183	20925
854.317	21112
854.451	21169
854.585	20979
854.72	20941
854.854	21043
854.988	21005
855.122	21154
855.256	20785
855.39	21100
855.524	21043
855.658	21085
855.792	21009
855.926	21039
856.06	21138
856.194	21104
856.327	21047
856.461	20975
856.595	20906
856.729	21039
856.862	21066
856.996	20994
857.13	21135
857.263	21176
857.397	21195
857.53	21017
857.664	21058
857.797	21188
857.931	21104
858.064	20994
858.197	21264
858.331	21005
858.464	20929
858.597	20948
858.731	20990
858.864	21036
858.997	20937
859.13	21089
859.263	21066
859.396	21112
859.529	20982
859.662	21062
859.795	21028
859.928	21211
860.061	21123
860.194	21157
860.327	21058
860.46	21176
860.592	21173
860.725	21192
860.858	21230
860.99	21100
861.123	20975
861.256	21020
861.388	21131
861.521	21732
861.653	20948
861.786	20804
861.918	20891
862.05	20971
862.183	20834
862.315	20982
862.447	21123
862.58	20986
862.712	20667
862.844	20739
862.976	20853
863.108	20815
863.24	21260
863.372	20621
863.504	20781
863.636	20769
863.768	20785
863.9	20819
864.032	20693
864.164	20708
864.296	20785
864.428	20785
864.559	20937
864.691	20910
864.823	20705
864.954	20769
865.086	20815
865.217	20716
865.349	20590
865.48	20545
865.612	20670
865.743	20800
865.875	20758
866.006	20667
866.137	20693
866.269	20697
866.4	20769
866.531	20556
866.662	20518
866.793	20636
866.924	20606
867.055	20594
867.186	20659
867.317	20621
867.448	20598
867.579	20518
867.71	20545
867.841	20484
867.972	20602
868.103	20583
868.233	20663
868.364	20625
868.495	20762
868.625	20823
868.756	20891
868.886	20678
869.017	20918
869.147	20944
869.278	21013
869.408	20876
869.539	20902
869.669	20891
869.799	20891
869.929	21066
870.06	20948
870.19	21150
870.32	21127
870.45	21131
870.58	21313
870.71	21325
870.84	21386
870.97	21222
871.1	21233
871.23	21450
871.36	21542
871.489	21348
871.619	21382
871.749	21382
871.879	21580
872.008	21583
872.138	21382
872.267	21488
872.397	21329
872.526	21336
872.656	21389
872.785	21336
872.915	21515
873.044	21507
873.173	21515
873.303	21545
873.432	21515
873.561	21538
873.69	21583
873.819	21481
873.948	21492
874.077	21667
874.206	21492
874.335	21420
874.464	21572
874.593	21671
874.722	21667
874.851	21747
874.979	21671
875.108	21846
875.237	21728
875.365	21526
875.494	21736
875.623	21724
875.751	21690
875.88	21610
876.008	21899
876.136	21899
876.265	22139
876.393	22181
876.521	22124
876.65	22181
876.778	22177
876.906	22067
877.034	21915
877.162	22017
877.29	22078
877.418	22093
877.546	22097
877.674	22185
877.802	22010
877.93	22040
878.058	21991
878.185	21953
878.313	21968
878.441	22128
878.568	21915
878.696	22032
878.824	22017
878.951	22143
879.079	22402
879.206	22333
879.333	22226
879.461	22158
879.588	22173
879.715	22265
879.842	22276
879.97	22196
880.097	21884
880.224	21812
880.351	21922
880.478	21930
880.605	21964
880.732	21956
880.859	22029
880.986	22032
881.112	21861
881.239	21545
881.366	21644
881.493	21500
881.619	21332
881.746	21492
881.872	21473
881.999	21374
882.125	21344
882.252	21526
882.378	21260
882.505	21568
882.631	21325
882.757	21142
882.883	21268
883.01	21173
883.136	21077
883.262	21013
883.388	20910
883.514	21207
883.64	21291
883.766	21116
883.892	20921
884.018	20975
884.143	21081
884.269	21055
884.395	20826
884.52	20807
884.646	20864
884.772	20731
884.897	20743
885.023	20937
885.148	20933
885.274	20994
885.399	21039
885.524	20693
885.65	20838
885.775	20720
885.9	20750
886.025	20925
886.15	20800
886.275	20731
886.4	20716
886.525	20667
886.65	20769
886.775	20632
886.9	20902
887.025	21051
887.149	20765
887.274	20636
887.399	20552
887.523	20598
887.648	20393
887.773	20484
887.897	20743
888.021	20492
888.146	20495
888.27	20617
888.395	20701
888.519	20655
888.643	20651
888.767	20613
888.891	20476
889.015	20355
889.139	20469
889.263	20381
889.387	20571
889.511	20503
889.635	20530
889.759	20309
889.883	20351
890.006	20301
890.13	20549
890.254	20343
890.377	20320
890.501	20058
890.624	20176
890.748	20157
890.871	19989
890.995	19955
891.118	19868
891.241	19856
891.364	19993
891.488	20062
891.611	19898
891.734	19955
891.857	20012
891.98	19868
892.103	19967
892.226	20024
892.349	20016
892.471	19784
892.594	19887
892.717	19959
892.839	19917
892.962	19890
893.085	19936
893.207	19936
893.33	19757
893.452	19757
893.575	19871
893.697	19845
893.819	20012
893.941	20073
894.064	20016
894.186	19928
894.308	19776
894.43	19978
894.552	20008
894.674	20031
894.796	19894
894.918	19837
895.04	19769
895.161	19852
895.283	19913
895.405	19731
895.526	19879
895.648	19902
895.769	19887
895.891	19902
896.012	19993
896.134	19868
896.255	19898
896.376	19875
896.498	19856
896.619	19894
896.74	19868
896.861	19833
896.982	20286
897.103	20259
897.224	20065
897.345	20107
897.466	20058
897.587	20115
897.708	20275
897.828	20153
897.949	19982
898.07	19978
898.19	19993
898.311	20221
898.431	20088
898.552	20210
898.672	20210
898.792	20130
898.913	20054
899.033	20020
899.153	19917
899.273	19780
899.393	19788
899.513	19951
899.633	19788
899.753	19852
899.873	19685
899.993	19852
900.113	19814
900.232	19750
900.352	19784
900.472	19788
900.591	19670
900.711	19769
900.83	19620
900.95	19772
901.069	19738
901.189	19597
901.308	19331
901.427	19202
901.546	19270
901.665	19282
901.784	19270
901.904	19164
902.023	19069
902.141	18715
902.26	18700
902.379	18871
902.498	18764
902.617	18741
902.735	18738
902.854	18673
902.973	18585
903.091	18502
903.21	18338
903.328	18361
903.446	18365
903.565	18247
903.683	18228
903.801	17965
903.919	18159
904.038	18117
904.156	17942
904.274	18121
904.392	17912
904.51	18106
904.627	17851
904.745	17996
904.863	18079
904.981	17764
905.098	17676
905.216	17668
905.334	17684
905.451	17627
905.569	17611
905.686	17714
905.803	17566
905.921	17440
906.038	17509
906.155	17467
906.272	17334
906.389	17239
906.506	17216
906.623	17189
906.74	17105
906.857	17109
906.974	17136
907.091	17242
907.208	17349
907.324	17315
907.441	17117
907.557	16991
907.674	16873
907.79	16835
907.907	16896
908.023	16915
908.139	16892
908.256	16847
908.372	16782
908.488	16755
908.604	16626
908.72	16577
908.836	16546
908.952	16725
909.068	16653
909.184	16691
909.3	16641
909.415	16687
909.531	16702
909.647	16314
909.762	16405
909.878	16306
909.993	16299
910.108	16226
910.224	16390
910.339	16295
910.454	16147
910.57	16067
910.685	16074
910.8	16344
910.915	16360
911.03	16181
911.145	16059
911.259	16029
911.374	15953
911.489	15895
911.604	15850
911.718	15625
911.833	15717
911.947	15648
912.062	15534
912.176	15759
912.291	15671
912.405	15736
912.519	15926
912.633	15892
912.748	15679
912.862	15622
912.976	15466
913.09	15382
913.204	15458
913.318	15515
913.431	15591
913.545	15568
913.659	15603
913.772	15454
913.886	15321
914	15298
914.113	15431
914.226	15420
914.34	15283
914.453	15184
914.566	15245
914.68	15233
914.793	15089
914.906	15074
915.019	15020
915.132	14853
915.245	14838
915.358	14963
915.47	14910
915.583	14925
915.696	14956
915.809	15036
915.921	15127
916.034	14906
916.146	14845
916.259	14845
916.371	14963
916.483	14762
916.595	14815
916.708	14724
916.82	14731
916.932	14758
917.044	14724
917.156	14655
917.268	14613
917.38	14610
917.491	14556
917.603	14564
917.715	14644
917.826	14621
917.938	14549
918.049	14419
918.161	14579
918.272	14708
918.384	14678
918.495	14571
918.606	14347
918.717	14282
918.828	14377
918.939	14377
919.05	14317
919.161	14332
919.272	14084
919.383	14172
919.494	14366
919.604	14537
919.715	14305
919.826	14374
919.936	14271
920.047	14408
920.157	14366
920.267	14469
920.378	14301
920.488	14195
920.598	14446
920.708	14549
920.818	14362
920.928	14465
921.038	14629
921.148	14454
921.258	14301
921.368	14180
921.477	14069
921.587	14012
921.697	13921
921.806	14046
921.916	13947
922.025	13757
922.134	13658
922.244	13658
922.353	13776
922.462	13605
922.571	13495
922.68	13480
922.789	13312
922.898	13377
923.007	13282
923.116	13324
923.224	13346
923.333	13354
923.442	13206
923.55	13118
923.659	13244
923.767	13221
923.876	13114
923.984	13194
924.092	13080
924.201	13240
924.309	13034
924.417	13114
924.525	13065
924.633	12939
924.741	13784
924.849	12768
924.956	12985
925.064	12757
925.172	12757
925.279	12779
925.387	12856
925.494	12749
925.602	12783
925.709	12817
925.816	12612
925.924	12662
926.031	12795
926.138	12719
926.245	12745
926.352	12639
926.459	12779
926.566	12745
926.673	12547
926.779	12589
926.886	12525
926.993	12395
927.099	12311
927.206	12342
927.312	12323
927.419	12384
927.525	12391
927.631	12365
927.737	12144
927.843	12136
927.95	12106
928.056	12121
928.162	12277
928.267	12292
928.373	12810
928.479	12266
928.585	12015
928.69	12144
928.796	12148
928.901	12060
929.007	11840
929.112	11973
929.218	12019
929.323	12038
929.428	11946
929.533	12049
929.638	11790
929.743	11840
929.848	11847
929.953	11882
930.058	11726
930.163	11512
930.267	11714
930.372	11581
930.477	11543
930.581	11847
930.685	11604
930.79	11448
930.894	11547
930.998	11501
931.103	11596
931.207	11235
931.311	11136
931.415	11090
931.519	10862
931.623	10843
