Data from test_V78500241_890.txt Node
Date: Fri Mar 25 15:47:58 CST 2022
User: usil
Spectrometer: V785-0024
Trigger mode: 0
Integration Time (sec): 4.000000E-1
Scans to average: 1
Nonlinearity correction enabled: false
Boxcar width: 0
Storing dark spectrum: false
XAxis mode: Wavelengths
Number of Pixels in Spectrum: 1024
>>>>>Begin Spectral Data<<<<<
801.071	28401
801.214	28272
801.356	28074
801.499	28048
801.641	27835
801.783	27857
801.926	28010
802.068	27873
802.211	27827
802.353	27728
802.496	27660
802.638	27576
802.78	27675
802.923	27424
803.065	27397
803.208	27557
803.35	27538
803.492	27599
803.635	27895
803.777	27728
803.919	27793
804.061	28173
804.204	27751
804.346	27717
804.488	27557
804.63	27755
804.773	27572
804.915	27789
805.057	27991
805.199	27789
805.341	27835
805.483	27914
805.626	27895
805.768	27770
805.91	27873
806.052	27964
806.194	27804
806.336	28101
806.478	27892
806.62	27949
806.762	28002
806.904	28200
807.046	28382
807.188	28333
807.33	28409
807.472	28375
807.614	28405
807.756	28379
807.898	28291
808.04	28188
808.182	28204
808.324	28280
808.465	28242
808.607	28569
808.749	28603
808.891	28706
809.033	28999
809.174	28679
809.316	28554
809.458	28557
809.6	28535
809.741	28687
809.883	28854
810.025	28919
810.166	28949
810.308	28831
810.45	28892
810.591	28759
810.733	28565
810.875	28569
811.016	28618
811.158	28432
811.299	28713
811.441	28888
811.582	28767
811.724	28660
811.865	28721
812.007	28569
812.148	28713
812.29	28759
812.431	28774
812.573	28946
812.714	29185
812.855	29170
812.997	29197
813.138	29345
813.279	29284
813.421	29277
813.562	29155
813.703	29006
813.845	28881
813.986	28554
814.127	28276
814.268	28253
814.41	28413
814.551	28196
814.692	28356
814.833	28284
814.974	28280
815.115	28257
815.256	28162
815.397	28200
815.539	28223
815.68	28082
815.821	28074
815.962	28116
816.103	28074
816.244	28051
816.385	27972
816.526	28032
816.666	27781
816.807	27705
816.948	27724
817.089	27667
817.23	27755
817.371	27709
817.512	27580
817.653	27709
817.793	27648
817.934	27679
818.075	27701
818.216	27660
818.356	27538
818.497	27564
818.638	27420
818.778	27287
818.919	27401
819.06	27454
819.2	27427
819.341	27606
819.481	27652
819.622	27743
819.762	28040
819.903	27850
820.043	27899
820.184	27759
820.324	27694
820.465	27854
820.605	27663
820.746	27899
820.886	27644
821.026	27599
821.167	27838
821.307	27709
821.447	27698
821.588	27576
821.728	27534
821.868	27443
822.008	27135
822.149	27291
822.289	27123
822.429	26716
822.569	26823
822.709	26716
822.849	26587
822.99	26689
823.13	26674
823.27	26427
823.41	26415
823.55	26267
823.69	26457
823.83	26377
823.97	26328
824.11	26180
824.25	26111
824.389	26412
824.529	26511
824.669	26404
824.809	26419
824.949	26396
825.089	26507
825.228	26347
825.368	26050
825.508	26202
825.648	26115
825.787	26206
825.927	26111
826.067	26111
826.206	26183
826.346	26084
826.485	26115
826.625	26206
826.765	26282
826.904	26237
827.044	25875
827.183	25921
827.323	25879
827.462	25818
827.601	25830
827.741	25757
827.88	25868
828.02	25788
828.159	25917
828.298	25875
828.437	25997
828.577	25803
828.716	25887
828.855	25750
828.994	25613
829.134	25582
829.273	25575
829.412	25426
829.551	25388
829.69	25620
829.829	25597
829.968	25578
830.107	25712
830.246	25620
830.385	25445
830.524	25403
830.663	25419
830.802	25263
830.941	25095
831.08	25240
831.219	25266
831.357	25339
831.496	25400
831.635	25240
831.774	25091
831.913	24973
832.051	24973
832.19	24985
832.329	24989
832.467	24738
832.606	24753
832.744	24730
832.883	24859
833.022	24852
833.16	24749
833.299	24977
833.437	24844
833.576	24935
833.714	24886
833.852	24924
833.991	25057
834.129	25103
834.267	24966
834.406	24958
834.544	24954
834.682	24932
834.821	24852
834.959	25072
835.097	24825
835.235	24878
835.373	24867
835.511	24882
835.65	24734
835.788	24688
835.926	24585
836.064	24631
836.202	24582
836.34	24677
836.478	24814
836.615	24635
836.753	24745
836.891	24658
837.029	24798
837.167	24608
837.305	24665
837.443	24563
837.58	24437
837.718	24597
837.856	24631
837.993	24441
838.131	24509
838.269	24525
838.406	24544
838.544	24372
838.681	24247
838.819	24079
838.956	24194
839.094	23931
839.231	24049
839.369	24148
839.506	24391
839.643	24239
839.781	24030
839.918	23980
840.055	23931
840.193	24049
840.33	23916
840.467	24018
840.604	24018
840.742	24178
840.879	23748
841.016	23916
841.153	23775
841.29	24015
841.427	23912
841.564	23992
841.701	23996
841.838	23901
841.975	23790
842.112	23836
842.249	23779
842.385	23935
842.522	23870
842.659	23764
842.796	23794
842.933	23718
843.069	23608
843.206	23448
843.343	23745
843.479	23760
843.616	23722
843.752	23547
843.889	23444
844.025	23649
844.162	23528
844.298	23554
844.435	23417
844.571	23516
844.708	23391
844.844	23646
844.98	23657
845.117	23581
845.253	23429
845.389	23284
845.525	23474
845.661	23318
845.798	23208
845.934	23315
846.07	23216
846.206	23250
846.342	23235
846.478	23227
846.614	22995
846.75	22869
846.886	22957
847.022	23071
847.158	23010
847.294	22885
847.429	22961
847.565	23056
847.701	23132
847.837	22675
847.972	22687
848.108	22744
848.244	22725
848.379	22634
848.515	22421
848.65	22596
848.786	22421
848.921	22592
849.057	22725
849.192	22634
849.328	22535
849.463	22584
849.598	22561
849.734	22421
849.869	22402
850.004	22246
850.14	22409
850.275	22325
850.41	22223
850.545	22314
850.68	22173
850.815	22291
850.95	22207
851.085	22398
851.22	22470
851.355	22242
851.49	22398
851.625	22295
851.76	22230
851.895	22169
852.03	22211
852.165	22314
852.299	22257
852.434	22344
852.569	22382
852.703	22284
852.838	22276
852.973	22443
853.107	22519
853.242	22310
853.376	22207
853.511	22082
853.645	22188
853.78	22242
853.914	22150
854.048	22177
854.183	22143
854.317	22166
854.451	22341
854.585	22059
854.72	22078
854.854	22223
854.988	22139
855.122	22147
855.256	21968
855.39	22097
855.524	22238
855.658	21994
855.792	22105
855.926	22109
856.06	22120
856.194	22196
856.327	22135
856.461	22124
856.595	22006
856.729	22181
856.862	22128
856.996	22067
857.13	22287
857.263	22226
857.397	22185
857.53	22169
857.664	22234
857.797	22143
857.931	22242
858.064	22105
858.197	22200
858.331	22086
858.464	21998
858.597	22040
858.731	22090
858.864	22044
858.997	22154
859.13	21998
859.263	22223
859.396	22207
859.529	22112
859.662	21994
859.795	22032
859.928	22078
860.061	22253
860.194	22322
860.327	22173
860.46	22048
860.592	22207
860.725	22360
860.858	22276
860.99	22185
861.123	22025
861.256	22040
861.388	22158
861.521	22649
861.653	22055
861.786	21797
861.918	22021
862.05	21876
862.183	22006
862.315	22040
862.447	22124
862.58	21983
862.712	21915
862.844	21816
862.976	22021
863.108	21861
863.24	22154
863.372	21713
863.504	21739
863.636	21770
863.768	21835
863.9	21785
864.032	21713
864.164	21800
864.296	22021
864.428	21838
864.559	21922
864.691	21949
864.823	21846
864.954	21717
865.086	21770
865.217	21778
865.349	21682
865.48	21705
865.612	21705
865.743	21918
865.875	21747
866.006	21648
866.137	21717
866.269	21705
866.4	21614
866.531	21690
866.662	21603
866.793	21599
866.924	21717
867.055	21625
867.186	21766
867.317	21583
867.448	21519
867.579	21603
867.71	21504
867.841	21542
867.972	21720
868.103	21545
868.233	21679
868.364	21583
868.495	21701
868.625	21850
868.756	21876
868.886	21785
869.017	21850
869.147	21998
869.278	21918
869.408	21911
869.539	21899
869.669	22025
869.799	21964
869.929	21972
870.06	22063
870.19	22150
870.32	22135
870.45	22223
870.58	22352
870.71	22352
870.84	22284
870.97	22249
871.1	22242
871.23	22367
871.36	22500
871.489	22390
871.619	22394
871.749	22409
871.879	22493
872.008	22519
872.138	22497
872.267	22424
872.397	22257
872.526	22257
872.656	22246
872.785	22318
872.915	22421
873.044	22599
873.173	22497
873.303	22561
873.432	22573
873.561	22561
873.69	22546
873.819	22519
873.948	22535
874.077	22440
874.206	22459
874.335	22390
874.464	22599
874.593	22630
874.722	22763
874.851	22725
874.979	22691
875.108	22767
875.237	22615
875.365	22584
875.494	22645
875.623	22809
875.751	22778
875.88	22793
876.008	22725
876.136	22889
876.265	23094
876.393	23136
876.521	23124
876.65	23174
876.778	23094
876.906	23071
877.034	22908
877.162	23025
877.29	23052
877.418	22930
877.546	23018
877.674	23079
877.802	23090
877.93	23052
878.058	22911
878.185	22957
878.313	22991
878.441	22961
878.568	22873
878.696	23006
878.824	23052
878.951	23124
879.079	23121
879.206	23395
879.333	23265
879.461	23056
879.588	23105
879.715	23155
879.842	23288
879.97	23060
880.097	22866
880.224	22778
880.351	22858
880.478	22862
880.605	22816
880.732	22805
880.859	23071
880.986	22755
881.112	22839
881.239	22824
881.366	22557
881.493	22603
881.619	22451
881.746	22447
881.872	22413
881.999	22265
882.125	22409
882.252	22398
882.378	22249
882.505	22527
882.631	22261
882.757	22131
882.883	22169
883.01	22215
883.136	22078
883.262	22032
883.388	21907
883.514	22181
883.64	22067
883.766	22010
883.892	21880
884.018	21899
884.143	22105
884.269	22059
884.395	21789
884.52	21694
884.646	21686
884.772	21618
884.897	21610
885.023	21622
885.148	21941
885.274	21816
885.399	21903
885.524	21865
885.65	21663
885.775	21766
885.9	21705
886.025	21835
886.15	21876
886.275	21698
886.4	21675
886.525	21675
886.65	21682
886.775	21679
886.9	21842
887.025	21945
887.149	21682
887.274	21538
887.399	21469
887.523	21545
887.648	21523
887.773	21294
887.897	21511
888.021	21595
888.146	21523
888.27	21629
888.395	21629
888.519	21424
888.643	21477
888.767	21523
888.891	21454
889.015	21310
889.139	21313
889.263	21336
889.387	21332
889.511	21523
889.635	21344
889.759	21230
889.883	21233
890.006	21241
890.13	21435
890.254	21203
890.377	21230
890.501	21070
890.624	21096
890.748	21184
890.871	20876
890.995	20823
891.118	20868
891.241	20777
891.364	20910
891.488	20883
891.611	20918
891.734	20765
891.857	20880
891.98	20948
892.103	20807
892.226	20952
892.349	20754
892.471	20644
892.594	20727
892.717	20864
892.839	20758
892.962	20762
893.085	20807
893.207	20823
893.33	20705
893.452	20579
893.575	20807
893.697	20705
893.819	20910
893.941	20876
894.064	20925
894.186	20720
894.308	20720
894.43	20807
894.552	20906
894.674	20777
894.796	20689
894.918	20625
895.04	20640
895.161	20750
895.283	20689
895.405	20598
895.526	20693
895.648	20705
895.769	20765
895.891	20746
896.012	20880
896.134	20880
896.255	20743
896.376	20693
896.498	20800
896.619	20667
896.74	20701
896.861	20750
896.982	20990
897.103	21245
897.224	21077
897.345	21070
897.466	20914
897.587	20967
897.708	21100
897.828	20937
897.949	20925
898.07	20792
898.19	20975
898.311	20925
898.431	20899
898.552	20910
898.672	20948
898.792	21055
898.913	21013
899.033	20868
899.153	20853
899.273	20644
899.393	20686
899.513	20674
899.633	20625
899.753	20720
899.873	20708
899.993	20823
900.113	20560
900.232	20598
900.352	20526
900.472	20571
900.591	20423
900.711	20492
900.83	20347
900.95	20545
901.069	20476
901.189	20377
901.308	20122
901.427	20069
901.546	20050
901.665	20077
901.784	19936
901.904	19913
902.023	19753
902.141	19548
902.26	19567
902.379	19662
902.498	19472
902.617	19525
902.735	19624
902.854	19563
902.973	19518
903.091	19228
903.21	19175
903.328	19164
903.446	19057
903.565	19050
903.683	19012
903.801	18935
903.919	18829
904.038	18932
904.156	18928
904.274	18779
904.392	18711
904.51	18776
904.627	18760
904.745	18738
904.863	18810
904.981	18551
905.098	18414
905.216	18441
905.334	18437
905.451	18483
905.569	18448
905.686	18441
905.803	18456
905.921	18209
906.038	18296
906.155	18251
906.272	18064
906.389	18152
906.506	17950
906.623	17901
906.74	17901
906.857	17798
906.974	17722
907.091	17996
907.208	18102
907.324	17961
907.441	17851
907.557	17828
907.674	17589
907.79	17627
907.907	17589
908.023	17661
908.139	17611
908.256	17657
908.372	17440
908.488	17509
908.604	17379
908.72	17303
908.836	17322
908.952	17417
909.068	17356
909.184	17410
909.3	17387
909.415	17364
909.531	17414
909.647	17124
909.762	17022
909.878	17128
909.993	17006
910.108	17071
910.224	17033
910.339	17037
910.454	16953
910.57	16873
910.685	16847
910.8	16984
910.915	16999
911.03	16915
911.145	16710
911.259	16694
911.374	16630
911.489	16603
911.604	16554
911.718	16428
911.833	16462
911.947	16306
912.062	16265
912.176	16390
912.291	16470
912.405	16386
912.519	16569
912.633	16656
912.748	16421
912.862	16356
912.976	16207
913.09	16097
913.204	16166
913.318	16124
913.431	16287
913.545	16265
913.659	16299
913.772	16219
913.886	16025
914	15983
914.113	16150
914.226	16040
914.34	15956
914.453	15892
914.566	16029
914.68	15876
914.793	15861
914.906	15675
915.019	15568
915.132	15526
915.245	15618
915.358	15652
915.47	15641
915.583	15519
915.696	15614
915.809	15637
915.921	15629
916.034	15587
916.146	15450
916.259	15428
916.371	15606
916.483	15397
916.595	15485
916.708	15393
916.82	15431
916.932	15363
917.044	15264
917.156	15283
917.268	15195
917.38	15298
917.491	15298
917.603	15291
917.715	15245
917.826	15344
917.938	15176
918.049	15097
918.161	15214
918.272	15291
918.384	15325
918.495	15081
918.606	15036
918.717	14895
918.828	15047
918.939	15013
919.05	14963
919.161	15020
919.272	14735
919.383	14906
919.494	15032
919.604	15226
919.715	14994
919.826	14868
919.936	14918
920.047	15001
920.157	14925
920.267	15097
920.378	15017
920.488	14788
920.598	15051
920.708	15218
920.818	15131
920.928	14967
921.038	15230
921.148	15184
921.258	14906
921.368	14739
921.477	14667
921.587	14583
921.697	14587
921.806	14693
921.916	14503
922.025	14465
922.134	14267
922.244	14278
922.353	14301
922.462	14157
922.571	14130
922.68	13940
922.789	14005
922.898	13986
923.007	13860
923.116	14008
923.224	13940
923.333	13947
923.442	13719
923.55	13719
923.659	13811
923.767	13811
923.876	13696
923.984	13746
924.092	13563
924.201	13772
924.309	13636
924.417	13647
924.525	13620
924.633	13506
924.741	14571
924.849	13362
924.956	13586
925.064	13278
925.172	13228
925.279	13247
925.387	13362
925.494	13339
925.602	13468
925.709	13438
925.816	13171
925.924	13247
926.031	13384
926.138	13228
926.245	13240
926.352	13160
926.459	13289
926.566	13137
926.673	13175
926.779	13103
926.886	13034
926.993	12939
927.099	12905
927.206	12920
927.312	12859
927.419	12920
927.525	12871
927.631	12920
927.737	12749
927.843	12776
927.95	12574
928.056	12711
928.162	12741
928.267	12776
928.373	13149
928.479	12760
928.585	12551
928.69	12639
928.796	12696
928.901	12502
929.007	12445
929.112	12578
929.218	12585
929.323	12429
929.428	12273
929.533	12502
929.638	12315
929.743	12388
929.848	12448
929.953	12304
930.058	12190
930.163	12102
930.267	12038
930.372	12285
930.477	12068
930.581	12213
930.685	12205
930.79	12007
930.894	12026
930.998	11965
931.103	12091
931.207	11733
931.311	11676
931.415	11592
931.519	11326
931.623	11303
