Data from test_V78500241_250.txt Node
Date: Fri Mar 25 15:43:32 CST 2022
User: usil
Spectrometer: V785-0024
Trigger mode: 0
Integration Time (sec): 4.000000E-1
Scans to average: 1
Nonlinearity correction enabled: false
Boxcar width: 0
Storing dark spectrum: false
XAxis mode: Wavelengths
Number of Pixels in Spectrum: 1024
>>>>>Begin Spectral Data<<<<<
801.071	29657
801.214	29745
801.356	29185
801.499	29284
801.641	29311
801.783	29227
801.926	29212
802.068	29159
802.211	29014
802.353	29060
802.496	28843
802.638	28930
802.78	28911
802.923	28828
803.065	28744
803.208	28660
803.35	28713
803.492	28999
803.635	29086
803.777	28869
803.919	28976
804.061	29239
804.204	29018
804.346	28987
804.488	28915
804.63	28946
804.773	28805
804.915	28866
805.057	29060
805.199	28919
805.341	29113
805.483	29185
805.626	29029
805.768	29037
805.91	29113
806.052	29071
806.194	29033
806.336	29318
806.478	29242
806.62	28949
806.762	29231
806.904	29398
807.046	29646
807.188	29516
807.33	29482
807.472	29547
807.614	29421
807.756	29539
807.898	29162
808.04	29334
808.182	29246
808.324	29383
808.465	29330
808.607	29551
808.749	29512
808.891	29745
809.033	29813
809.174	29920
809.316	29752
809.458	29680
809.6	29687
809.741	29714
809.883	29703
810.025	29992
810.166	29958
810.308	29984
810.45	29843
810.591	29980
810.733	29608
810.875	29729
811.016	29627
811.158	29627
811.299	29687
811.441	29874
811.582	29767
811.724	29657
811.865	29668
812.007	29726
812.148	29623
812.29	29680
812.431	30003
812.573	30076
812.714	30114
812.855	30129
812.997	30163
813.138	30380
813.279	30258
813.421	30216
813.562	30102
813.703	30053
813.845	29745
813.986	29558
814.127	29265
814.268	29326
814.41	29231
814.551	29216
814.692	29372
814.833	29296
814.974	29299
815.115	29322
815.256	29143
815.397	29071
815.539	29159
815.68	29060
815.821	28892
815.962	29037
816.103	29064
816.244	29018
816.385	28835
816.526	28706
816.666	28816
816.807	28394
816.948	28565
817.089	28649
817.23	28611
817.371	28622
817.512	28470
817.653	28485
817.793	28459
817.934	28577
818.075	28459
818.216	28557
818.356	28485
818.497	28291
818.638	28226
818.778	28314
818.919	28299
819.06	28230
819.2	28268
819.341	28675
819.481	28314
819.622	28500
819.762	28854
819.903	28797
820.043	28588
820.184	28489
820.324	28546
820.465	28516
820.605	28561
820.746	28500
820.886	28417
821.026	28645
821.167	28394
821.307	28599
821.447	28561
821.588	28375
821.728	28257
821.868	28105
822.008	27869
822.149	27979
822.289	27755
822.429	27633
822.569	27576
822.709	27595
822.849	27412
822.99	27184
823.13	27367
823.27	27306
823.41	27154
823.55	27123
823.69	27256
823.83	27173
823.97	27203
824.11	26982
824.25	26895
824.389	27188
824.529	27039
824.669	27024
824.809	27237
824.949	27032
825.089	27127
825.228	26937
825.368	26979
825.508	26724
825.648	26724
825.787	26948
825.927	27009
826.067	26883
826.206	26849
826.346	26891
826.485	26811
826.625	26910
826.765	26902
826.904	26845
827.044	26659
827.183	26541
827.323	26431
827.462	26617
827.601	26434
827.741	26495
827.88	26450
828.02	26374
828.159	26469
828.298	26568
828.437	26526
828.577	26450
828.716	26412
828.855	26396
828.994	26244
829.134	26301
829.273	26229
829.412	26202
829.551	26100
829.69	26081
829.829	26282
829.968	26199
830.107	26027
830.246	26168
830.385	25982
830.524	26092
830.663	25913
830.802	25704
830.941	25681
831.08	25628
831.219	25689
831.357	25731
831.496	25879
831.635	25635
831.774	25594
831.913	25472
832.051	25487
832.19	25419
832.329	25559
832.467	25289
832.606	25327
832.744	25388
832.883	25369
833.022	25324
833.16	25415
833.299	25464
833.437	25415
833.576	25514
833.714	25301
833.852	25533
833.991	25495
834.129	25506
834.267	25460
834.406	25331
834.544	25396
834.682	25350
834.821	25358
834.959	25609
835.097	25312
835.235	25308
835.373	25343
835.511	25270
835.65	25160
835.788	25171
835.926	25110
836.064	25031
836.202	25110
836.34	25202
836.478	25346
836.615	25122
836.753	25095
836.891	25114
837.029	25137
837.167	25202
837.305	25168
837.443	25046
837.58	24954
837.718	25126
837.856	24996
837.993	24962
838.131	25038
838.269	24939
838.406	24806
838.544	24897
838.681	24620
838.819	24623
838.956	24391
839.094	24361
839.231	24452
839.369	24700
839.506	24711
839.643	24604
839.781	24452
839.918	24437
840.055	24330
840.193	24334
840.33	24365
840.467	24285
840.604	24281
840.742	24456
840.879	24083
841.016	24372
841.153	24163
841.29	24308
841.427	24251
841.564	24319
841.701	24292
841.838	24205
841.975	24182
842.112	24121
842.249	24083
842.385	24011
842.522	24285
842.659	24129
842.796	24129
842.933	23980
843.069	24140
843.206	23969
843.343	24129
843.479	24068
843.616	24140
843.752	23821
843.889	23756
844.025	24007
844.162	23828
844.298	23958
844.435	23817
844.571	23756
844.708	23855
844.844	23889
844.98	23912
845.117	23950
845.253	23570
845.389	23718
845.525	23695
845.661	23638
845.798	23410
845.934	23486
846.07	23395
846.206	23467
846.342	23543
846.478	23383
846.614	23250
846.75	23151
846.886	23132
847.022	23280
847.158	23265
847.294	23159
847.429	23223
847.565	23018
847.701	23391
847.837	22885
847.972	22835
848.108	23079
848.244	23010
848.379	22809
848.515	22767
848.65	22752
848.786	22774
848.921	22733
849.057	22938
849.192	22850
849.328	22854
849.463	22725
849.598	22774
849.734	22603
849.869	22554
850.004	22489
850.14	22409
850.275	22436
850.41	22428
850.545	22443
850.68	22405
850.815	22542
850.95	22432
851.085	22653
851.22	22691
851.355	22493
851.49	22440
851.625	22394
851.76	22470
851.895	22386
852.03	22417
852.165	22523
852.299	22443
852.434	22561
852.569	22424
852.703	22504
852.838	22485
852.973	22615
853.107	22527
853.242	22459
853.376	22246
853.511	22097
853.645	22223
853.78	22348
853.914	22371
854.048	22166
854.183	22253
854.317	22242
854.451	22474
854.585	22318
854.72	22284
854.854	22287
854.988	22257
855.122	22249
855.256	22059
855.39	22280
855.524	22242
855.658	22390
855.792	22390
855.926	22230
856.06	22291
856.194	22382
856.327	22135
856.461	22173
856.595	22116
856.729	22242
856.862	22375
856.996	22226
857.13	22249
857.263	22299
857.397	22382
857.53	22306
857.664	22188
857.797	22219
857.931	22424
858.064	22253
858.197	22436
858.331	22192
858.464	22086
858.597	22173
858.731	22143
858.864	22116
858.997	22154
859.13	22284
859.263	22169
859.396	22287
859.529	22154
859.662	22154
859.795	22177
859.928	22230
860.061	22405
860.194	22325
860.327	22367
860.46	22147
860.592	22196
860.725	22280
860.858	22348
860.99	22131
861.123	22025
861.256	22128
861.388	22147
861.521	22896
861.653	22048
861.786	22067
861.918	22021
862.05	22177
862.183	22253
862.315	22265
862.447	22405
862.58	22169
862.712	22051
862.844	21884
862.976	21857
863.108	21846
863.24	22462
863.372	21880
863.504	21869
863.636	21968
863.768	21876
863.9	21869
864.032	21812
864.164	21785
864.296	21956
864.428	21960
864.559	22002
864.691	22093
864.823	22040
864.954	21835
865.086	21835
865.217	21873
865.349	21736
865.48	21827
865.612	21732
865.743	21785
865.875	21793
866.006	21827
866.137	21781
866.269	21804
866.4	21724
866.531	21660
866.662	21595
866.793	21770
866.924	21732
867.055	21770
867.186	21770
867.317	21720
867.448	21644
867.579	21682
867.71	21679
867.841	21682
867.972	21789
868.103	21770
868.233	21648
868.364	21701
868.495	21698
868.625	21812
868.756	21956
868.886	21937
869.017	21918
869.147	22017
869.278	21979
869.408	22029
869.539	21960
869.669	21937
869.799	22017
869.929	22013
870.06	22059
870.19	22272
870.32	22185
870.45	22246
870.58	22185
870.71	22367
870.84	22333
870.97	22344
871.1	22337
871.23	22478
871.36	22523
871.489	22409
871.619	22596
871.749	22554
871.879	22485
872.008	22554
872.138	22428
872.267	22538
872.397	22466
872.526	22337
872.656	22257
872.785	22329
872.915	22573
873.044	22592
873.173	22584
873.303	22523
873.432	22519
873.561	22596
873.69	22497
873.819	22485
873.948	22630
874.077	22512
874.206	22478
874.335	22577
874.464	22752
874.593	22748
874.722	22721
874.851	22790
874.979	22733
875.108	22790
875.237	22561
875.365	22668
875.494	22744
875.623	22778
875.751	22793
875.88	22843
876.008	22858
876.136	22972
876.265	23178
876.393	23223
876.521	23216
876.65	23086
876.778	23197
876.906	23083
877.034	23079
877.162	23124
877.29	23044
877.418	23098
877.546	23083
877.674	23136
877.802	23094
877.93	23178
878.058	23117
878.185	23033
878.313	23037
878.441	23121
878.568	22847
878.696	22972
878.824	23067
878.951	23113
879.079	23288
879.206	23467
879.333	23216
879.461	23318
879.588	23235
879.715	23356
879.842	23490
879.97	23140
880.097	22980
880.224	22968
880.351	22961
880.478	22980
880.605	22896
880.732	22877
880.859	23094
880.986	22908
881.112	22976
881.239	22793
881.366	22542
881.493	22637
881.619	22497
881.746	22519
881.872	22485
881.999	22527
882.125	22363
882.252	22466
882.378	22436
882.505	22630
882.631	22375
882.757	22112
882.883	22238
883.01	22219
883.136	22223
883.262	22036
883.388	22051
883.514	22249
883.64	22253
883.766	22074
883.892	21979
884.018	21960
884.143	22150
884.269	22257
884.395	21842
884.52	21888
884.646	21823
884.772	21835
884.897	21682
885.023	21880
885.148	21850
885.274	21998
885.399	21888
885.524	21797
885.65	21812
885.775	21857
885.9	21781
886.025	21949
886.15	21945
886.275	21652
886.4	21675
886.525	21762
886.65	21705
886.775	21766
886.9	21960
887.025	22029
887.149	21816
887.274	21698
887.399	21568
887.523	21599
887.648	21462
887.773	21382
887.897	21629
888.021	21690
888.146	21511
888.27	21595
888.395	21648
888.519	21644
888.643	21690
888.767	21564
888.891	21477
889.015	21420
889.139	21382
889.263	21389
889.387	21462
889.511	21603
889.635	21473
889.759	21370
889.883	21291
890.006	21378
890.13	21367
890.254	21146
890.377	21249
890.501	20910
890.624	21001
890.748	21214
890.871	20982
890.995	20785
891.118	20891
891.241	20838
891.364	20971
891.488	20975
891.611	20921
891.734	21032
891.857	21005
891.98	20952
892.103	21001
892.226	20929
892.349	20788
892.471	20632
892.594	20819
892.717	20826
892.839	20876
892.962	20868
893.085	20830
893.207	20792
893.33	20659
893.452	20708
893.575	20796
893.697	20750
893.819	20986
893.941	21013
894.064	21070
894.186	20758
894.308	20651
894.43	20899
894.552	20902
894.674	20895
894.796	20727
894.918	20781
895.04	20807
895.161	20838
895.283	20785
895.405	20785
895.526	20754
895.648	20708
895.769	20861
895.891	20762
896.012	20845
896.134	20857
896.255	20796
896.376	20815
896.498	20819
896.619	20876
896.74	20826
896.861	20910
896.982	21173
897.103	21344
897.224	21176
897.345	20971
897.466	20994
897.587	21024
897.708	21222
897.828	21043
897.949	20960
898.07	20891
898.19	20948
898.311	21104
898.431	20910
898.552	20986
898.672	21024
898.792	21036
898.913	20876
899.033	20781
899.153	20834
899.273	20579
899.393	20716
899.513	20697
899.633	20514
899.753	20735
899.873	20552
899.993	20693
900.113	20629
900.232	20609
900.352	20598
900.472	20431
900.591	20560
900.711	20511
900.83	20507
900.95	20598
901.069	20560
901.189	20442
901.308	20130
901.427	20043
901.546	20081
901.665	20168
901.784	20115
901.904	19902
902.023	19780
902.141	19586
902.26	19582
902.379	19662
902.498	19487
902.617	19499
902.735	19460
902.854	19495
902.973	19438
903.091	19228
903.21	19118
903.328	19042
903.446	19008
903.565	19004
903.683	18973
903.801	18878
903.919	19034
904.038	18947
904.156	18734
904.274	18840
904.392	18700
904.51	18741
904.627	18658
904.745	18810
904.863	18635
904.981	18494
905.098	18414
905.216	18475
905.334	18369
905.451	18513
905.569	18330
905.686	18464
905.803	18334
905.921	18186
906.038	18292
906.155	18159
906.272	18049
906.389	18079
906.506	17889
906.623	18007
906.74	17961
906.857	17828
906.974	17714
907.091	17992
907.208	18060
907.324	17897
907.441	17794
907.557	17623
907.674	17638
907.79	17608
907.907	17585
908.023	17646
908.139	17516
908.256	17482
908.372	17482
908.488	17444
908.604	17433
908.72	17284
908.836	17254
908.952	17273
909.068	17383
909.184	17364
909.3	17189
909.415	17303
909.531	17292
909.647	17060
909.762	16938
909.878	16987
909.993	17045
910.108	17010
910.224	16847
910.339	16850
910.454	16835
910.57	16812
910.685	16717
910.8	16915
910.915	16953
911.03	16740
911.145	16584
911.259	16523
911.374	16611
911.489	16451
911.604	16443
911.718	16257
911.833	16249
911.947	16246
912.062	16135
912.176	16333
912.291	16310
912.405	16291
912.519	16493
912.633	16497
912.748	16280
912.862	16200
912.976	16090
913.09	16048
913.204	16166
913.318	16109
913.431	16223
913.545	16131
913.659	16181
913.772	16139
913.886	15956
914	15835
914.113	16002
914.226	16093
914.34	15907
914.453	15816
914.566	15953
914.68	15747
914.793	15766
914.906	15496
915.019	15564
915.132	15405
915.245	15488
915.358	15447
915.47	15576
915.583	15603
915.696	15443
915.809	15652
915.921	15622
916.034	15405
916.146	15401
916.259	15378
916.371	15428
916.483	15466
916.595	15310
916.708	15272
916.82	15340
916.932	15180
917.044	15363
917.156	15188
917.268	15176
917.38	15112
917.491	15097
917.603	15150
917.715	15150
917.826	15184
917.938	15005
918.049	14944
918.161	15119
918.272	15203
918.384	15184
918.495	15100
918.606	14956
918.717	14838
918.828	14967
918.939	14914
919.05	14701
919.161	14880
919.272	14640
919.383	14655
919.494	14906
919.604	15047
919.715	14902
919.826	14686
919.936	14811
920.047	14849
920.157	14883
920.267	14895
920.378	14830
920.488	14773
920.598	14948
920.708	15093
920.818	15013
920.928	14937
921.038	15070
921.148	15032
921.258	14777
921.368	14587
921.477	14518
921.587	14560
921.697	14377
921.806	14537
921.916	14457
922.025	14278
922.134	14195
922.244	14142
922.353	14214
922.462	14062
922.571	13898
922.68	13811
922.789	13693
922.898	13788
923.007	13753
923.116	13738
923.224	13666
923.333	13757
923.442	13548
923.55	13597
923.659	13605
923.767	13670
923.876	13571
923.984	13605
924.092	13514
924.201	13544
924.309	13514
924.417	13586
924.525	13411
924.633	13384
924.741	14199
924.849	13236
924.956	13411
925.064	13259
925.172	13103
925.279	13099
925.387	13209
925.494	13202
925.602	13419
925.709	13202
925.816	13179
925.924	13114
926.031	13232
926.138	13118
926.245	13168
926.352	12970
926.459	13247
926.566	13213
926.673	13027
926.779	12935
926.886	12905
926.993	12810
927.099	12772
927.206	12734
927.312	12688
927.419	12772
927.525	12707
927.631	12684
927.737	12646
927.843	12547
927.95	12506
928.056	12532
928.162	12498
928.267	12627
928.373	13221
928.479	12601
928.585	12395
928.69	12566
928.796	12566
928.901	12490
929.007	12228
929.112	12388
929.218	12319
929.323	12308
929.428	12254
929.533	12464
929.638	12205
929.743	12232
929.848	12273
929.953	12273
930.058	12125
930.163	11984
930.267	12007
930.372	12136
930.477	11870
930.581	12159
930.685	12003
930.79	11786
930.894	11802
930.998	11851
931.103	11961
931.207	11566
931.311	11471
931.415	11433
931.519	11239
931.623	11220
