Data from test_V78500241_2432.txt Node
Date: Fri Mar 25 15:58:38 CST 2022
User: usil
Spectrometer: V785-0024
Trigger mode: 0
Integration Time (sec): 4.000000E-1
Scans to average: 1
Nonlinearity correction enabled: false
Boxcar width: 0
Storing dark spectrum: false
XAxis mode: Wavelengths
Number of Pixels in Spectrum: 1024
>>>>>Begin Spectral Data<<<<<
801.071	28809
801.214	28774
801.356	28607
801.499	28569
801.641	28409
801.783	28493
801.926	28386
802.068	28306
802.211	28356
802.353	28356
802.496	28135
802.638	28204
802.78	28017
802.923	28101
803.065	27869
803.208	28051
803.35	28029
803.492	28318
803.635	28280
803.777	28238
803.919	28348
804.061	28691
804.204	28329
804.346	28485
804.488	28367
804.63	28348
804.773	28329
804.915	28371
805.057	28504
805.199	28371
805.341	28322
805.483	28504
805.626	28596
805.768	28401
805.91	28519
806.052	28622
806.194	28523
806.336	28637
806.478	28554
806.62	28645
806.762	28641
806.904	28721
807.046	29121
807.188	28968
807.33	29010
807.472	28968
807.614	28946
807.756	28938
807.898	28778
808.04	28843
808.182	28698
808.324	28771
808.465	28786
808.607	29048
808.749	29269
808.891	29379
809.033	29299
809.174	29269
809.316	29223
809.458	29121
809.6	29246
809.741	29280
809.883	29398
810.025	29505
810.166	29395
810.308	29531
810.45	29372
810.591	29356
810.733	29147
810.875	29265
811.016	29204
811.158	29136
811.299	29337
811.441	29261
811.582	29303
811.724	29185
811.865	29204
812.007	29109
812.148	29227
812.29	29220
812.431	29455
812.573	29604
812.714	29623
812.855	29771
812.997	29939
813.138	30125
813.279	29999
813.421	29866
813.562	29600
813.703	29604
813.845	29311
813.986	29216
814.127	28999
814.268	28927
814.41	28976
814.551	28938
814.692	28965
814.833	28862
814.974	28858
815.115	28972
815.256	28767
815.397	28904
815.539	28824
815.68	28653
815.821	28672
815.962	28679
816.103	28698
816.244	28634
816.385	28626
816.526	28584
816.666	28352
816.807	28219
816.948	28158
817.089	28299
817.23	28272
817.371	28188
817.512	28249
817.653	28124
817.793	28226
817.934	28188
818.075	28261
818.216	28306
818.356	28169
818.497	28154
818.638	27960
818.778	27956
818.919	27964
819.06	28109
819.2	28101
819.341	28177
819.481	28226
819.622	28401
819.762	28584
819.903	28634
820.043	28531
820.184	28432
820.324	28375
820.465	28405
820.605	28436
820.746	28337
820.886	28192
821.026	28447
821.167	28413
821.307	28550
821.447	28265
821.588	28082
821.728	27968
821.868	27823
822.008	27679
822.149	27770
822.289	27694
822.429	27416
822.569	27359
822.709	27321
822.849	27272
822.99	27226
823.13	27165
823.27	27100
823.41	27104
823.55	26975
823.69	27024
823.83	27077
823.97	26956
824.11	26845
824.25	26876
824.389	26883
824.529	26918
824.669	26918
824.809	26986
824.949	26880
825.089	27009
825.228	26899
825.368	26739
825.508	26781
825.648	26891
825.787	26754
825.927	26826
826.067	26853
826.206	26826
826.346	26720
826.485	26868
826.625	26731
826.765	26864
826.904	26781
827.044	26488
827.183	26583
827.323	26503
827.462	26549
827.601	26404
827.741	26484
827.88	26514
828.02	26377
828.159	26571
828.298	26526
828.437	26473
828.577	26400
828.716	26507
828.855	26442
828.994	26153
829.134	26248
829.273	26218
829.412	26142
829.551	26050
829.69	26191
829.829	26225
829.968	26267
830.107	26355
830.246	26290
830.385	26199
830.524	26088
830.663	26046
830.802	25799
830.941	25696
831.08	25807
831.219	25681
831.357	25936
831.496	26054
831.635	25799
831.774	25795
831.913	25693
832.051	25495
832.19	25590
832.329	25491
832.467	25502
832.606	25445
832.744	25449
832.883	25537
833.022	25324
833.16	25510
833.299	25495
833.437	25483
833.576	25582
833.714	25381
833.852	25514
833.991	25502
834.129	25635
834.267	25460
834.406	25552
834.544	25453
834.682	25514
834.821	25381
834.959	25609
835.097	25285
835.235	25506
835.373	25540
835.511	25506
835.65	25274
835.788	25255
835.926	25145
836.064	25278
836.202	25168
836.34	25225
836.478	25563
836.615	25251
836.753	25175
836.891	25377
837.029	25308
837.167	25384
837.305	25179
837.443	25171
837.58	25148
837.718	25061
837.856	25206
837.993	25057
838.131	24989
838.269	25027
838.406	24981
838.544	24981
838.681	24757
838.819	24719
838.956	24658
839.094	24700
839.231	24677
839.369	24859
839.506	24954
839.643	24817
839.781	24612
839.918	24623
840.055	24692
840.193	24540
840.33	24437
840.467	24536
840.604	24509
840.742	24681
840.879	24357
841.016	24361
841.153	24410
841.29	24593
841.427	24574
841.564	24608
841.701	24464
841.838	24304
841.975	24308
842.112	24330
842.249	24403
842.385	24270
842.522	24437
842.659	24292
842.796	24247
842.933	24270
843.069	24167
843.206	24304
843.343	24277
843.479	24315
843.616	24319
843.752	24068
843.889	24152
844.025	24136
844.162	24098
844.298	24148
844.435	24152
844.571	24018
844.708	24091
844.844	24163
844.98	24281
845.117	24239
845.253	23893
845.389	23836
845.525	24011
845.661	23889
845.798	23874
845.934	23863
846.07	23680
846.206	23726
846.342	23821
846.478	23764
846.614	23421
846.75	23490
846.886	23436
847.022	23554
847.158	23501
847.294	23528
847.429	23551
847.565	23539
847.701	23741
847.837	23155
847.972	23113
848.108	23337
848.244	23197
848.379	23159
848.515	23075
848.65	22946
848.786	23079
848.921	23014
849.057	23181
849.192	23113
849.328	23231
849.463	23113
849.598	22965
849.734	23033
849.869	22908
850.004	22885
850.14	22900
850.275	22824
850.41	22812
850.545	22900
850.68	22831
850.815	22946
850.95	22885
851.085	23025
851.22	22949
851.355	23006
851.49	22831
851.625	22961
851.76	22923
851.895	22698
852.03	22782
852.165	22881
852.299	22873
852.434	22953
852.569	22889
852.703	22812
852.838	22797
852.973	22942
853.107	22995
853.242	22721
853.376	22755
853.511	22626
853.645	22683
853.78	22725
853.914	22672
854.048	22626
854.183	22618
854.317	22702
854.451	22797
854.585	22771
854.72	22702
854.854	22866
854.988	22538
855.122	22664
855.256	22656
855.39	22603
855.524	22839
855.658	22675
855.792	22687
855.926	22645
856.06	22790
856.194	22687
856.327	22801
856.461	22683
856.595	22710
856.729	22672
856.862	22729
856.996	22752
857.13	22782
857.263	22767
857.397	22679
857.53	22588
857.664	22771
857.797	22858
857.931	22786
858.064	22626
858.197	22786
858.331	22679
858.464	22550
858.597	22546
858.731	22637
858.864	22607
858.997	22634
859.13	22664
859.263	22626
859.396	22736
859.529	22592
859.662	22599
859.795	22725
859.928	22725
860.061	22805
860.194	22889
860.327	22736
860.46	22710
860.592	22812
860.725	22889
860.858	22755
860.99	22702
861.123	22611
861.256	22637
861.388	22664
861.521	23402
861.653	22500
861.786	22531
861.918	22363
862.05	22421
862.183	22615
862.315	22561
862.447	22630
862.58	22611
862.712	22375
862.844	22379
862.976	22489
863.108	22310
863.24	22774
863.372	22291
863.504	22284
863.636	22413
863.768	22478
863.9	22402
864.032	22344
864.164	22246
864.296	22257
864.428	22531
864.559	22462
864.691	22459
864.823	22405
864.954	22341
865.086	22253
865.217	22223
865.349	22242
865.48	22226
865.612	22333
865.743	22367
865.875	22341
866.006	22143
866.137	22299
866.269	22276
866.4	22325
866.531	22169
866.662	22078
866.793	22147
866.924	22211
867.055	22192
867.186	22322
867.317	22128
867.448	22124
867.579	22162
867.71	22200
867.841	22032
867.972	22169
868.103	22139
868.233	22154
868.364	22242
868.495	22242
868.625	22531
868.756	22462
868.886	22375
869.017	22421
869.147	22447
869.278	22679
869.408	22409
869.539	22367
869.669	22455
869.799	22432
869.929	22565
870.06	22550
870.19	22725
870.32	22733
870.45	22831
870.58	22877
870.71	22949
870.84	22930
870.97	22820
871.1	22911
871.23	23067
871.36	23006
871.489	23010
871.619	23033
871.749	22847
871.879	22984
872.008	23079
872.138	23033
872.267	23143
872.397	22820
872.526	22957
872.656	22828
872.785	22923
872.915	23105
873.044	23067
873.173	23086
873.303	23071
873.432	23060
873.561	23155
873.69	23083
873.819	23033
873.948	23083
874.077	23166
874.206	23098
874.335	22987
874.464	23242
874.593	23330
874.722	23041
874.851	23277
874.979	23124
875.108	23265
875.237	23128
875.365	23216
875.494	23223
875.623	23288
875.751	23174
875.88	23227
876.008	23288
876.136	23387
876.265	23718
876.393	23691
876.521	23695
876.65	23748
876.778	23615
876.906	23516
877.034	23539
877.162	23684
877.29	23524
877.418	23672
877.546	23615
877.674	23737
877.802	23573
877.93	23554
878.058	23524
878.185	23471
878.313	23547
878.441	23570
878.568	23429
878.696	23547
878.824	23642
878.951	23680
879.079	23821
879.206	23935
879.333	23748
879.461	23608
879.588	23627
879.715	23729
879.842	23901
879.97	23695
880.097	23356
880.224	23452
880.351	23459
880.478	23444
880.605	23360
880.732	23421
880.859	23604
880.986	23440
881.112	23421
881.239	23296
881.366	23216
881.493	23083
881.619	22999
881.746	23022
881.872	22953
881.999	22957
882.125	22911
882.252	22919
882.378	22915
882.505	23140
882.631	22774
882.757	22717
882.883	22774
883.01	22653
883.136	22557
883.262	22588
883.388	22459
883.514	22538
883.64	22535
883.766	22531
883.892	22249
884.018	22413
884.143	22394
884.269	22588
884.395	22451
884.52	22181
884.646	22226
884.772	22181
884.897	22158
885.023	22268
885.148	22402
885.274	22531
885.399	22337
885.524	22196
885.65	22436
885.775	22272
885.9	22173
886.025	22367
886.15	22382
886.275	22344
886.4	22166
886.525	22284
886.65	22101
886.775	22234
886.9	22318
887.025	22489
887.149	22325
887.274	21941
887.399	22036
887.523	21994
887.648	22063
887.773	21941
887.897	22211
888.021	22021
888.146	21884
888.27	21979
888.395	21983
888.519	22093
888.643	22177
888.767	22055
888.891	21915
889.015	21854
889.139	21926
889.263	21819
889.387	21876
889.511	21991
889.635	21903
889.759	21808
889.883	21717
890.006	21922
890.13	21983
890.254	21755
890.377	21785
890.501	21595
890.624	21564
890.748	21770
890.871	21564
890.995	21336
891.118	21279
891.241	21264
891.364	21340
891.488	21496
891.611	21408
891.734	21386
891.857	21439
891.98	21428
892.103	21272
892.226	21389
892.349	21359
892.471	21211
892.594	21329
892.717	21359
892.839	21325
892.962	21123
893.085	21233
893.207	21279
893.33	21218
893.452	21100
893.575	21306
893.697	21123
893.819	21302
893.941	21515
894.064	21378
894.186	21245
894.308	21150
894.43	21294
894.552	21321
894.674	21340
894.796	21154
894.918	21245
895.04	21100
895.161	21351
895.283	21188
895.405	21009
895.526	21245
895.648	21199
895.769	21192
895.891	21195
896.012	21424
896.134	21313
896.255	21173
896.376	21211
896.498	21150
896.619	21169
896.74	21207
896.861	21256
896.982	21519
897.103	21778
897.224	21477
897.345	21355
897.466	21355
897.587	21374
897.708	21591
897.828	21469
897.949	21435
898.07	21287
898.19	21416
898.311	21450
898.431	21439
898.552	21450
898.672	21519
898.792	21473
898.913	21431
899.033	21317
899.153	21195
899.273	21096
899.393	21032
899.513	21199
899.633	21176
899.753	21055
899.873	21142
899.993	21298
900.113	21116
900.232	21096
900.352	21127
900.472	20941
900.591	20967
900.711	21013
900.83	20887
900.95	20994
901.069	20960
901.189	20739
901.308	20712
901.427	20488
901.546	20423
901.665	20644
901.784	20427
901.904	20324
902.023	20233
902.141	20058
902.26	20092
902.379	20046
902.498	19944
902.617	20001
902.735	20077
902.854	19925
902.973	19852
903.091	19670
903.21	19685
903.328	19647
903.446	19578
903.565	19525
903.683	19426
903.801	19358
903.919	19335
904.038	19388
904.156	19209
904.274	19324
904.392	19209
904.51	19171
904.627	19213
904.745	19244
904.863	19209
904.981	18977
905.098	18897
905.216	18848
905.334	18962
905.451	18741
905.569	18840
905.686	18939
905.803	18829
905.921	18593
906.038	18654
906.155	18681
906.272	18570
906.389	18661
906.506	18369
906.623	18251
906.74	18251
906.857	18251
906.974	18285
907.091	18441
907.208	18540
907.324	18376
907.441	18277
907.557	18125
907.674	18068
907.79	18038
907.907	17988
908.023	18114
908.139	18087
908.256	18098
908.372	18034
908.488	17996
908.604	17790
908.72	17764
908.836	17798
908.952	17794
909.068	17779
909.184	17851
909.3	17840
909.415	17764
909.531	17767
909.647	17448
909.762	17448
909.878	17391
909.993	17551
910.108	17387
910.224	17353
910.339	17467
910.454	17178
910.57	17387
910.685	17208
910.8	17532
910.915	17509
911.03	17235
911.145	17166
911.259	17056
911.374	17003
911.489	16984
911.604	16866
911.718	16774
911.833	16733
911.947	16793
912.062	16618
912.176	16820
912.291	16733
912.405	16790
912.519	16930
912.633	17022
912.748	16866
912.862	16634
912.976	16588
913.09	16489
913.204	16596
913.318	16573
913.431	16580
913.545	16683
913.659	16702
913.772	16580
913.886	16440
914	16402
914.113	16436
914.226	16573
914.34	16481
914.453	16276
914.566	16432
914.68	16314
914.793	16219
914.906	16147
915.019	16021
915.132	15888
915.245	15975
915.358	15953
915.47	15998
915.583	15934
915.696	16055
915.809	16093
915.921	16181
916.034	15876
916.146	15926
916.259	15876
916.371	15953
916.483	15892
916.595	15819
916.708	15732
916.82	15679
916.932	15751
917.044	15759
917.156	15679
917.268	15606
917.38	15720
917.491	15679
917.603	15580
917.715	15625
917.826	15656
917.938	15564
918.049	15477
918.161	15618
918.272	15595
918.384	15610
918.495	15530
918.606	15359
918.717	15344
918.828	15378
918.939	15370
919.05	15188
919.161	15359
919.272	15005
919.383	15249
919.494	15370
919.604	15431
919.715	15279
919.826	15165
919.936	15264
920.047	15329
920.157	15344
920.267	15568
920.378	15264
920.488	15313
920.598	15447
920.708	15511
920.818	15443
920.928	15405
921.038	15561
921.148	15568
921.258	15180
921.368	15161
921.477	14998
921.587	14902
921.697	14941
921.806	14990
921.916	14857
922.025	14754
922.134	14636
922.244	14480
922.353	14682
922.462	14606
922.571	14442
922.68	14229
922.789	14225
922.898	14252
923.007	14157
923.116	14271
923.224	14259
923.333	14157
923.442	14218
923.55	14084
923.659	14123
923.767	14206
923.876	14092
923.984	14134
924.092	13989
924.201	14054
924.309	14005
924.417	14001
924.525	13879
924.633	13925
924.741	14648
924.849	13742
924.956	13765
925.064	13708
925.172	13540
925.279	13670
925.387	13567
925.494	13540
925.602	13734
925.709	13746
925.816	13548
925.924	13533
926.031	13696
926.138	13499
926.245	13567
926.352	13491
926.459	13616
926.566	13647
926.673	13472
926.779	13472
926.886	13362
926.993	13194
927.099	13221
927.206	13156
927.312	13168
927.419	13179
927.525	13091
927.631	13213
927.737	13080
927.843	13038
927.95	12821
928.056	12947
928.162	12943
928.267	13129
928.373	13666
928.479	13065
928.585	12814
928.69	12913
928.796	12966
928.901	12875
929.007	12662
929.112	12814
929.218	12711
929.323	12772
929.428	12722
929.533	12810
929.638	12662
929.743	12703
929.848	12677
929.953	12563
930.058	12620
930.163	12338
930.267	12471
930.372	12486
930.477	12281
930.581	12540
930.685	12338
930.79	12365
930.894	12232
930.998	12228
931.103	12296
931.207	11923
931.311	11980
931.415	11874
931.519	11665
931.623	11623
