Data from test_V78500241_2216.txt Node
Date: Fri Mar 25 15:57:09 CST 2022
User: usil
Spectrometer: V785-0024
Trigger mode: 0
Integration Time (sec): 4.000000E-1
Scans to average: 1
Nonlinearity correction enabled: false
Boxcar width: 0
Storing dark spectrum: false
XAxis mode: Wavelengths
Number of Pixels in Spectrum: 1024
>>>>>Begin Spectral Data<<<<<
801.071	28801
801.214	28763
801.356	28569
801.499	28584
801.641	28348
801.783	28363
801.926	28356
802.068	28531
802.211	28287
802.353	28207
802.496	28169
802.638	28112
802.78	28025
802.923	28090
803.065	27835
803.208	28086
803.35	28246
803.492	28379
803.635	28394
803.777	28200
803.919	28177
804.061	28512
804.204	28341
804.346	28295
804.488	28154
804.63	28405
804.773	28242
804.915	28421
805.057	28421
805.199	28322
805.341	28432
805.483	28531
805.626	28295
805.768	28455
805.91	28634
806.052	28573
806.194	28474
806.336	28554
806.478	28440
806.62	28394
806.762	28653
806.904	28850
807.046	29029
807.188	28934
807.33	28987
807.472	29079
807.614	28965
807.756	29037
807.898	28850
808.04	28866
808.182	28820
808.324	28748
808.465	28904
808.607	28957
808.749	29242
808.891	29330
809.033	29326
809.174	29296
809.316	29216
809.458	29064
809.6	29067
809.741	29227
809.883	29330
810.025	29364
810.166	29288
810.308	29516
810.45	29608
810.591	29387
810.733	29356
810.875	29147
811.016	29117
811.158	29086
811.299	29239
811.441	29433
811.582	29330
811.724	29128
811.865	29231
812.007	29284
812.148	29258
812.29	29303
812.431	29349
812.573	29535
812.714	29600
812.855	29642
812.997	29790
813.138	29980
813.279	29992
813.421	29665
813.562	29547
813.703	29501
813.845	29551
813.986	29159
814.127	29056
814.268	28820
814.41	28949
814.551	28877
814.692	28999
814.833	28850
814.974	28873
815.115	28736
815.256	28793
815.397	28831
815.539	28691
815.68	28577
815.821	28611
815.962	28694
816.103	28729
816.244	28607
816.385	28557
816.526	28577
816.666	28306
816.807	28192
816.948	28261
817.089	28382
817.23	28299
817.371	28181
817.512	28109
817.653	28268
817.793	28120
817.934	28268
818.075	28303
818.216	28200
818.356	28219
818.497	28090
818.638	27968
818.778	27998
818.919	28036
819.06	28120
819.2	28226
819.341	28211
819.481	28169
819.622	28409
819.762	28478
819.903	28447
820.043	28348
820.184	28291
820.324	28318
820.465	28466
820.605	28303
820.746	28246
820.886	28124
821.026	28348
821.167	28253
821.307	28443
821.447	28257
821.588	28101
821.728	28017
821.868	27888
822.008	27831
822.149	27690
822.289	27610
822.429	27462
822.569	27412
822.709	27359
822.849	27108
822.99	27184
823.13	27169
823.27	27195
823.41	27089
823.55	26998
823.69	27192
823.83	27051
823.97	27020
824.11	26823
824.25	26868
824.389	26967
824.529	26971
824.669	26792
824.809	27085
824.949	26910
825.089	26902
825.228	26986
825.368	26708
825.508	26792
825.648	26701
825.787	26727
825.927	26902
826.067	26693
826.206	26708
826.346	26796
826.485	26838
826.625	26777
826.765	26777
826.904	26800
827.044	26511
827.183	26568
827.323	26480
827.462	26473
827.601	26453
827.741	26511
827.88	26461
828.02	26484
828.159	26389
828.298	26552
828.437	26453
828.577	26339
828.716	26575
828.855	26351
828.994	26199
829.134	26122
829.273	26172
829.412	26024
829.551	26161
829.69	26233
829.829	26122
829.968	26225
830.107	26256
830.246	26081
830.385	26229
830.524	26035
830.663	25970
830.802	25890
830.941	25791
831.08	25639
831.219	25750
831.357	25887
831.496	26050
831.635	25723
831.774	25712
831.913	25533
832.051	25525
832.19	25533
832.329	25677
832.467	25434
832.606	25358
832.744	25419
832.883	25388
833.022	25411
833.16	25419
833.299	25506
833.437	25537
833.576	25487
833.714	25548
833.852	25628
833.991	25377
834.129	25597
834.267	25453
834.406	25388
834.544	25518
834.682	25464
834.821	25411
834.959	25597
835.097	25422
835.235	25464
835.373	25476
835.511	25392
835.65	25335
835.788	25411
835.926	25129
836.064	25015
836.202	25228
836.34	25225
836.478	25457
836.615	25263
836.753	25198
836.891	25282
837.029	25415
837.167	25346
837.305	25148
837.443	25141
837.58	25282
837.718	25171
837.856	24932
837.993	25137
838.131	25053
838.269	24951
838.406	25027
838.544	25012
838.681	24798
838.819	24692
838.956	24578
839.094	24460
839.231	24528
839.369	24726
839.506	25050
839.643	24798
839.781	24791
839.918	24582
840.055	24604
840.193	24494
840.33	24585
840.467	24429
840.604	24563
840.742	24726
840.879	24502
841.016	24445
841.153	24369
841.29	24616
841.427	24372
841.564	24521
841.701	24391
841.838	24475
841.975	24403
842.112	24304
842.249	24323
842.385	24289
842.522	24490
842.659	24254
842.796	24262
842.933	24258
843.069	24121
843.206	24220
843.343	24357
843.479	24247
843.616	24251
843.752	24045
843.889	23984
844.025	24110
844.162	23973
844.298	24159
844.435	24038
844.571	23813
844.708	24057
844.844	24167
844.98	24140
845.117	24072
845.253	23885
845.389	23897
845.525	24003
845.661	23843
845.798	23733
845.934	23703
846.07	23657
846.206	23676
846.342	23939
846.478	23680
846.614	23562
846.75	23360
846.886	23402
847.022	23596
847.158	23570
847.294	23482
847.429	23444
847.565	23486
847.701	23657
847.837	23227
847.972	23140
848.108	23239
848.244	23239
848.379	22999
848.515	23025
848.65	23060
848.786	23064
848.921	23109
849.057	23170
849.192	23208
849.328	23033
849.463	22987
849.598	22938
849.734	22987
849.869	22873
850.004	22949
850.14	22721
850.275	22889
850.41	22702
850.545	22755
850.68	22778
850.815	22942
850.95	22919
851.085	22995
851.22	22923
851.355	22797
851.49	22847
851.625	22679
851.76	22797
851.895	22733
852.03	22744
852.165	22782
852.299	22908
852.434	22873
852.569	22816
852.703	22778
852.838	22854
852.973	22816
853.107	22915
853.242	22668
853.376	22588
853.511	22405
853.645	22550
853.78	22748
853.914	22649
854.048	22645
854.183	22527
854.317	22706
854.451	22801
854.585	22573
854.72	22694
854.854	22713
854.988	22615
855.122	22713
855.256	22493
855.39	22535
855.524	22683
855.658	22752
855.792	22637
855.926	22554
856.06	22634
856.194	22649
856.327	22634
856.461	22519
856.595	22508
856.729	22550
856.862	22653
856.996	22611
857.13	22694
857.263	22634
857.397	22706
857.53	22687
857.664	22626
857.797	22588
857.931	22725
858.064	22596
858.197	22710
858.331	22546
858.464	22538
858.597	22417
858.731	22649
858.864	22565
858.997	22512
859.13	22630
859.263	22649
859.396	22596
859.529	22565
859.662	22592
859.795	22531
859.928	22618
860.061	22831
860.194	22774
860.327	22702
860.46	22706
860.592	22672
860.725	22877
860.858	22755
860.99	22679
861.123	22561
861.256	22615
861.388	22672
861.521	23242
861.653	22542
861.786	22512
861.918	22318
862.05	22561
862.183	22462
862.315	22504
862.447	22656
862.58	22535
862.712	22405
862.844	22234
862.976	22379
863.108	22348
863.24	22805
863.372	22314
863.504	22310
863.636	22356
863.768	22337
863.9	22295
864.032	22185
864.164	22363
864.296	22246
864.428	22280
864.559	22265
864.691	22424
864.823	22253
864.954	22325
865.086	22375
865.217	22238
865.349	22181
865.48	22131
865.612	22322
865.743	22314
865.875	22070
866.006	22177
866.137	22154
866.269	22188
866.4	22093
866.531	22131
866.662	21953
866.793	22158
866.924	22078
867.055	22147
867.186	22070
867.317	22109
867.448	22185
867.579	22120
867.71	22078
867.841	22063
867.972	22147
868.103	22131
868.233	22200
868.364	22002
868.495	22333
868.625	22318
868.756	22394
868.886	22265
869.017	22360
869.147	22459
869.278	22428
869.408	22348
869.539	22314
869.669	22417
869.799	22466
869.929	22538
870.06	22462
870.19	22653
870.32	22771
870.45	22622
870.58	22786
870.71	22866
870.84	22824
870.97	22679
871.1	22793
871.23	23025
871.36	22984
871.489	22812
871.619	22942
871.749	22919
871.879	23109
872.008	23151
872.138	22900
872.267	22995
872.397	22889
872.526	22847
872.656	22908
872.785	22858
872.915	23025
873.044	23166
873.173	22965
873.303	22980
873.432	23052
873.561	23185
873.69	23056
873.819	22953
873.948	23102
874.077	23064
874.206	23060
874.335	23113
874.464	23143
874.593	23109
874.722	23185
874.851	23280
874.979	23132
875.108	23341
875.237	23220
875.365	23189
875.494	23185
875.623	23246
875.751	23147
875.88	23307
876.008	23307
876.136	23277
876.265	23535
876.393	23798
876.521	23767
876.65	23699
876.778	23600
876.906	23543
877.034	23657
877.162	23592
877.29	23524
877.418	23596
877.546	23646
877.674	23611
877.802	23433
877.93	23406
878.058	23455
878.185	23543
878.313	23604
878.441	23566
878.568	23490
878.696	23543
878.824	23589
878.951	23623
879.079	23657
879.206	23752
879.333	23691
879.461	23657
879.588	23611
879.715	23726
879.842	23870
879.97	23767
880.097	23364
880.224	23353
880.351	23455
880.478	23356
880.605	23353
880.732	23471
880.859	23581
880.986	23341
881.112	23242
881.239	23239
881.366	23166
881.493	23014
881.619	22976
881.746	23033
881.872	22942
881.999	23060
882.125	22957
882.252	23048
882.378	22812
882.505	22991
882.631	22797
882.757	22675
882.883	22706
883.01	22599
883.136	22428
883.262	22519
883.388	22466
883.514	22641
883.64	22592
883.766	22527
883.892	22451
884.018	22485
884.143	22538
884.269	22725
884.395	22287
884.52	22223
884.646	22287
884.772	22226
884.897	22093
885.023	22211
885.148	22337
885.274	22402
885.399	22291
885.524	22284
885.65	22314
885.775	22090
885.9	22246
886.025	22474
886.15	22287
886.275	22295
886.4	22177
886.525	22295
886.65	22207
886.775	22173
886.9	22371
887.025	22417
887.149	22223
887.274	22032
887.399	22048
887.523	21991
887.648	21937
887.773	21987
887.897	21991
888.021	22082
888.146	21911
888.27	22078
888.395	22135
888.519	22040
888.643	22109
888.767	21899
888.891	21884
889.015	21766
889.139	21808
889.263	21720
889.387	21964
889.511	22086
889.635	21911
889.759	21709
889.883	21778
890.006	21778
890.13	21869
890.254	21778
890.377	21747
890.501	21553
890.624	21614
890.748	21561
890.871	21447
890.995	21283
891.118	21389
891.241	21283
891.364	21378
891.488	21473
891.611	21431
891.734	21272
891.857	21287
891.98	21298
892.103	21386
892.226	21199
892.349	21116
892.471	21146
892.594	21165
892.717	21348
892.839	21214
892.962	21195
893.085	21348
893.207	21192
893.33	21062
893.452	21222
893.575	21256
893.697	21207
893.819	21351
893.941	21561
894.064	21302
894.186	21214
894.308	21192
894.43	21211
894.552	21386
894.674	21279
894.796	20986
894.918	21279
895.04	21127
895.161	21306
895.283	21310
895.405	21112
895.526	21294
895.648	21093
895.769	21272
895.891	21214
896.012	21401
896.134	21222
896.255	21218
896.376	21081
896.498	21161
896.619	21184
896.74	21211
896.861	21173
896.982	21572
897.103	21728
897.224	21492
897.345	21416
897.466	21321
897.587	21332
897.708	21515
897.828	21435
897.949	21294
898.07	21260
898.19	21310
898.311	21553
898.431	21291
898.552	21317
898.672	21431
898.792	21374
898.913	21344
899.033	21291
899.153	21275
899.273	21123
899.393	21127
899.513	21119
899.633	21123
899.753	21180
899.873	21119
899.993	21127
900.113	20994
900.232	21157
900.352	20994
900.472	21005
900.591	20849
900.711	20918
900.83	20804
900.95	21051
901.069	21096
901.189	20830
901.308	20545
901.427	20457
901.546	20530
901.665	20434
901.784	20423
901.904	20377
902.023	20355
902.141	20058
902.26	20172
902.379	20001
902.498	20012
902.617	19913
902.735	19970
902.854	19894
902.973	19822
903.091	19578
903.21	19586
903.328	19620
903.446	19529
903.565	19495
903.683	19556
903.801	19422
903.919	19358
904.038	19365
904.156	19126
904.274	19255
904.392	19129
904.51	19175
904.627	19126
904.745	19232
904.863	19148
904.981	18985
905.098	18844
905.216	18958
905.334	18894
905.451	18878
905.569	18814
905.686	18806
905.803	18825
905.921	18612
906.038	18734
906.155	18616
906.272	18502
906.389	18525
906.506	18315
906.623	18319
906.74	18300
906.857	18251
906.974	18247
907.091	18460
907.208	18445
907.324	18380
907.441	18254
907.557	18144
907.674	18076
907.79	18038
907.907	18011
908.023	18125
908.139	18057
908.256	18060
908.372	17874
908.488	17882
908.604	17874
908.72	17710
908.836	17737
908.952	17836
909.068	17821
909.184	17817
909.3	17798
909.415	17817
909.531	17775
909.647	17558
909.762	17505
909.878	17455
909.993	17570
910.108	17463
910.224	17459
910.339	17360
910.454	17288
910.57	17250
910.685	17284
910.8	17452
910.915	17452
911.03	17242
911.145	17006
911.259	17029
911.374	17083
911.489	16995
911.604	16896
911.718	16717
911.833	16835
911.947	16748
912.062	16599
912.176	16740
912.291	16767
912.405	16797
912.519	17067
912.633	16904
912.748	16816
912.862	16694
912.976	16653
913.09	16481
913.204	16481
913.318	16630
913.431	16744
913.545	16584
913.659	16729
913.772	16542
913.886	16508
914	16352
914.113	16417
914.226	16440
914.34	16466
914.453	16276
914.566	16413
914.68	16280
914.793	16242
914.906	16071
915.019	16044
915.132	15888
915.245	15998
915.358	15907
915.47	15975
915.583	15842
915.696	15922
915.809	16074
915.921	16120
916.034	15800
916.146	15793
916.259	15926
916.371	15819
916.483	15911
916.595	15781
916.708	15759
916.82	15823
916.932	15804
917.044	15762
917.156	15762
917.268	15603
917.38	15610
917.491	15564
917.603	15663
917.715	15629
917.826	15606
917.938	15599
918.049	15370
918.161	15580
918.272	15644
918.384	15720
918.495	15523
918.606	15382
918.717	15268
918.828	15370
918.939	15466
919.05	15252
919.161	15287
919.272	15138
919.383	15214
919.494	15351
919.604	15572
919.715	15351
919.826	15188
919.936	15294
920.047	15298
920.157	15336
920.267	15378
920.378	15275
920.488	15237
920.598	15447
920.708	15557
920.818	15397
920.928	15393
921.038	15538
921.148	15542
921.258	15260
921.368	15180
921.477	15036
921.587	14941
921.697	14880
921.806	14982
921.916	14819
922.025	14716
922.134	14648
922.244	14530
922.353	14712
922.462	14556
922.571	14427
922.68	14259
922.789	14313
922.898	14347
923.007	14176
923.116	14237
923.224	14195
923.333	14206
923.442	14103
923.55	14142
923.659	14119
923.767	14081
923.876	14130
923.984	14031
924.092	13936
924.201	13947
924.309	14031
924.417	14020
924.525	13879
924.633	13955
924.741	14731
924.849	13761
924.956	13791
925.064	13655
925.172	13586
925.279	13636
925.387	13719
925.494	13677
925.602	13750
925.709	13719
925.816	13464
925.924	13559
926.031	13731
926.138	13616
926.245	13590
926.352	13316
926.459	13613
926.566	13655
926.673	13453
926.779	13381
926.886	13339
926.993	13206
927.099	13160
927.206	13175
927.312	13122
927.419	13198
927.525	13129
927.631	13232
927.737	13107
927.843	13027
927.95	12897
928.056	12985
928.162	13069
928.267	13008
928.373	13525
928.479	13110
928.585	12848
928.69	12890
928.796	12909
928.901	12833
929.007	12833
929.112	12825
929.218	12779
929.323	12776
929.428	12711
929.533	12821
929.638	12703
929.743	12593
929.848	12578
929.953	12635
930.058	12506
930.163	12429
930.267	12350
930.372	12483
930.477	12388
930.581	12551
930.685	12418
930.79	12300
930.894	12262
930.998	12209
931.103	12365
931.207	11988
931.311	11817
931.415	11832
931.519	11600
931.623	11558
