Data from test_V78500241_323.txt Node
Date: Fri Mar 25 15:44:02 CST 2022
User: usil
Spectrometer: V785-0024
Trigger mode: 0
Integration Time (sec): 4.000000E-1
Scans to average: 1
Nonlinearity correction enabled: false
Boxcar width: 0
Storing dark spectrum: false
XAxis mode: Wavelengths
Number of Pixels in Spectrum: 1024
>>>>>Begin Spectral Data<<<<<
801.071	29942
801.214	30003
801.356	29760
801.499	29467
801.641	29440
801.783	29596
801.926	29501
802.068	29497
802.211	29372
802.353	29440
802.496	29193
802.638	29288
802.78	29006
802.923	29094
803.065	29037
803.208	29155
803.35	29140
803.492	29140
803.635	29265
803.777	29174
803.919	29353
804.061	29661
804.204	29444
804.346	29406
804.488	29288
804.63	29379
804.773	29288
804.915	29375
805.057	29375
805.199	29296
805.341	29493
805.483	29554
805.626	29379
805.768	29284
805.91	29486
806.052	29554
806.194	29429
806.336	29668
806.478	29528
806.62	29448
806.762	29623
806.904	29821
807.046	30011
807.188	29851
807.33	30038
807.472	30167
807.614	29920
807.756	29885
807.898	29851
808.04	29684
808.182	29577
808.324	29668
808.465	29760
808.607	29973
808.749	29999
808.891	30346
809.033	30327
809.174	30247
809.316	30213
809.458	30270
809.6	30114
809.741	30232
809.883	30232
810.025	30285
810.166	30445
810.308	30429
810.45	30418
810.591	30323
810.733	30239
810.875	30155
811.016	30060
811.158	29832
811.299	30216
811.441	30289
811.582	30277
811.724	30273
811.865	30064
812.007	30159
812.148	30098
812.29	30224
812.431	30254
812.573	30380
812.714	30620
812.855	30574
812.997	30730
813.138	30909
813.279	30700
813.421	30623
813.562	30574
813.703	30483
813.845	30361
813.986	30015
814.127	29954
814.268	29714
814.41	29836
814.551	29805
814.692	29798
814.833	29634
814.974	29855
815.115	29901
815.256	29501
815.397	29691
815.539	29707
815.68	29524
815.821	29512
815.962	29665
816.103	29471
816.244	29516
816.385	29288
816.526	29395
816.666	29159
816.807	28999
816.948	29098
817.089	29094
817.23	29178
817.371	29083
817.512	28995
817.653	28866
817.793	29037
817.934	28984
818.075	28968
818.216	29056
818.356	28896
818.497	28805
818.638	28881
818.778	28896
818.919	28835
819.06	28702
819.2	28721
819.341	29033
819.481	28938
819.622	29086
819.762	29364
819.903	29220
820.043	29018
820.184	29014
820.324	29060
820.465	29299
820.605	29044
820.746	29102
820.886	29075
821.026	29029
821.167	28991
821.307	29181
821.447	29060
821.588	28930
821.728	28733
821.868	28516
822.008	28478
822.149	28424
822.289	28417
822.429	28128
822.569	28048
822.709	28200
822.849	27998
822.99	27945
823.13	27907
823.27	27895
823.41	27698
823.55	27648
823.69	27835
823.83	27675
823.97	27720
824.11	27538
824.25	27526
824.389	27599
824.529	27519
824.669	27443
824.809	27679
824.949	27629
825.089	27595
825.228	27568
825.368	27363
825.508	27325
825.648	27466
825.787	27279
825.927	27378
826.067	27416
826.206	27340
826.346	27363
826.485	27477
826.625	27420
826.765	27450
826.904	27420
827.044	27207
827.183	27093
827.323	27135
827.462	27199
827.601	27112
827.741	26933
827.88	26918
828.02	26963
828.159	27032
828.298	27032
828.437	27001
828.577	26937
828.716	27089
828.855	27085
828.994	26689
829.134	26705
829.273	26769
829.412	26712
829.551	26655
829.69	26518
829.829	26659
829.968	26914
830.107	26697
830.246	26689
830.385	26651
830.524	26571
830.663	26488
830.802	26518
830.941	26119
831.08	26278
831.219	26282
831.357	26328
831.496	26438
831.635	26142
831.774	26248
831.913	26138
832.051	25978
832.19	26054
832.329	26081
832.467	25986
832.606	25966
832.744	26062
832.883	26016
833.022	25902
833.16	25986
833.299	25989
833.437	25978
833.576	26107
833.714	25974
833.852	26024
833.991	25940
834.129	26008
834.267	26008
834.406	25913
834.544	25963
834.682	25887
834.821	26065
834.959	26229
835.097	25966
835.235	26077
835.373	25913
835.511	25814
835.65	25837
835.788	25898
835.926	25670
836.064	25514
836.202	25734
836.34	25738
836.478	25955
836.615	25761
836.753	25727
836.891	25811
837.029	25734
837.167	25769
837.305	25620
837.443	25605
837.58	25613
837.718	25658
837.856	25468
837.993	25586
838.131	25449
838.269	25460
838.406	25468
838.544	25369
838.681	25141
838.819	25209
838.956	25061
839.094	25042
839.231	25027
839.369	25187
839.506	25457
839.643	25187
839.781	24977
839.918	24916
840.055	24810
840.193	24939
840.33	24802
840.467	24924
840.604	24871
840.742	25156
840.879	24795
841.016	24924
841.153	24833
841.29	25008
841.427	24840
841.564	24951
841.701	24875
841.838	24913
841.975	24738
842.112	24738
842.249	24760
842.385	24608
842.522	24882
842.659	24726
842.796	24597
842.933	24665
843.069	24635
843.206	24555
843.343	24631
843.479	24589
843.616	24540
843.752	24361
843.889	24327
844.025	24513
844.162	24319
844.298	24376
844.435	24391
844.571	24235
844.708	24414
844.844	24494
844.98	24456
845.117	24521
845.253	24319
845.389	24277
845.525	24350
845.661	24083
845.798	24148
845.934	24159
846.07	24038
846.206	24102
846.342	24220
846.478	23908
846.614	23714
846.75	23737
846.886	23760
847.022	23889
847.158	23851
847.294	23802
847.429	23729
847.565	23745
847.701	23946
847.837	23486
847.972	23497
848.108	23501
848.244	23547
848.379	23406
848.515	23421
848.65	23360
848.786	23345
848.921	23261
849.057	23406
849.192	23520
849.328	23398
849.463	23235
849.598	23326
849.734	23246
849.869	23079
850.004	23105
850.14	23189
850.275	23010
850.41	22987
850.545	22984
850.68	22984
850.815	23151
850.95	23025
851.085	23181
851.22	23193
851.355	23079
851.49	23041
851.625	23029
851.76	23006
851.895	22995
852.03	22976
852.165	23140
852.299	23083
852.434	23086
852.569	23227
852.703	23056
852.838	23064
852.973	23170
853.107	23143
853.242	23022
853.376	22892
853.511	22672
853.645	22801
853.78	22892
853.914	22873
854.048	22778
854.183	22771
854.317	22778
854.451	22999
854.585	22949
854.72	22782
854.854	22885
854.988	22778
855.122	22877
855.256	22725
855.39	22866
855.524	22946
855.658	22812
855.792	22927
855.926	22972
856.06	22831
856.194	22835
856.327	22809
856.461	22797
856.595	22763
856.729	22866
856.862	22927
856.996	22816
857.13	22919
857.263	22858
857.397	22908
857.53	22782
857.664	22904
857.797	22866
857.931	23064
858.064	22873
858.197	22919
858.331	22809
858.464	22668
858.597	22713
858.731	22713
858.864	22774
858.997	22763
859.13	22820
859.263	22843
859.396	22824
859.529	22831
859.662	22782
859.795	22733
859.928	22805
860.061	22968
860.194	23025
860.327	22835
860.46	22790
860.592	22843
860.725	23006
860.858	22847
860.99	22801
861.123	22668
861.256	22706
861.388	22740
861.521	23501
861.653	22809
861.786	22683
861.918	22653
862.05	22573
862.183	22702
862.315	22797
862.447	22748
862.58	22847
862.712	22577
862.844	22386
862.976	22607
863.108	22561
863.24	22972
863.372	22485
863.504	22485
863.636	22485
863.768	22542
863.9	22497
864.032	22409
864.164	22398
864.296	22470
864.428	22592
864.559	22569
864.691	22588
864.823	22402
864.954	22512
865.086	22497
865.217	22280
865.349	22306
865.48	22329
865.612	22303
865.743	22462
865.875	22272
866.006	22367
866.137	22230
866.269	22360
866.4	22318
866.531	22276
866.662	22314
866.793	22238
866.924	22299
867.055	22413
867.186	22253
867.317	22154
867.448	22128
867.579	22306
867.71	22185
867.841	22101
867.972	22238
868.103	22128
868.233	22382
868.364	22196
868.495	22390
868.625	22569
868.756	22588
868.886	22394
869.017	22409
869.147	22607
869.278	22599
869.408	22409
869.539	22584
869.669	22550
869.799	22615
869.929	22637
870.06	22664
870.19	22782
870.32	22847
870.45	22828
870.58	22984
870.71	22927
870.84	22942
870.97	22839
871.1	22877
871.23	23006
871.36	23143
871.489	23025
871.619	23155
871.749	23105
871.879	23258
872.008	23231
872.138	23090
872.267	23102
872.397	22968
872.526	22873
872.656	23041
872.785	22965
872.915	23060
873.044	23242
873.173	23197
873.303	23204
873.432	23170
873.561	23151
873.69	23185
873.819	23136
873.948	23155
874.077	23128
874.206	23162
874.335	23132
874.464	23265
874.593	23261
874.722	23318
874.851	23208
874.979	23220
875.108	23406
875.237	23372
875.365	23204
875.494	23299
875.623	23376
875.751	23242
875.88	23341
876.008	23448
876.136	23512
876.265	23619
876.393	23843
876.521	23729
876.65	23935
876.778	23672
876.906	23699
877.034	23691
877.162	23615
877.29	23653
877.418	23786
877.546	23665
877.674	23665
877.802	23767
877.93	23646
878.058	23638
878.185	23482
878.313	23543
878.441	23600
878.568	23395
878.696	23627
878.824	23554
878.951	23752
879.079	23847
879.206	23961
879.333	23813
879.461	23634
879.588	23729
879.715	23741
879.842	23935
879.97	23577
880.097	23429
880.224	23444
880.351	23524
880.478	23490
880.605	23391
880.732	23505
880.859	23592
880.986	23421
881.112	23425
881.239	23337
881.366	23151
881.493	23204
881.619	23041
881.746	23189
881.872	23029
881.999	23086
882.125	22976
882.252	23033
882.378	23006
882.505	23143
882.631	22904
882.757	22774
882.883	22896
883.01	22725
883.136	22820
883.262	22630
883.388	22584
883.514	22805
883.64	22805
883.766	22588
883.892	22443
884.018	22443
884.143	22733
884.269	22900
884.395	22390
884.52	22367
884.646	22386
884.772	22344
884.897	22291
885.023	22280
885.148	22424
885.274	22516
885.399	22440
885.524	22398
885.65	22295
885.775	22352
885.9	22291
886.025	22436
886.15	22455
886.275	22242
886.4	22158
886.525	22333
886.65	22268
886.775	22253
886.9	22447
887.025	22440
887.149	22402
887.274	22207
887.399	22025
887.523	21998
887.648	22044
887.773	22097
887.897	22166
888.021	22093
888.146	22101
888.27	22226
888.395	22173
888.519	22040
888.643	22291
888.767	22070
888.891	21918
889.015	21846
889.139	21899
889.263	21918
889.387	21949
889.511	22074
889.635	21934
889.759	21838
889.883	21888
890.006	21895
890.13	21884
890.254	21728
890.377	21701
890.501	21538
890.624	21557
890.748	21587
890.871	21397
890.995	21416
891.118	21340
891.241	21393
891.364	21397
891.488	21519
891.611	21469
891.734	21325
891.857	21424
891.98	21382
892.103	21458
892.226	21473
892.349	21283
892.471	21272
892.594	21211
892.717	21211
892.839	21325
892.962	21344
893.085	21428
893.207	21131
893.33	21127
893.452	21173
893.575	21370
893.697	21245
893.819	21306
893.941	21389
894.064	21428
894.186	21157
894.308	21138
894.43	21264
894.552	21405
894.674	21249
894.796	21142
894.918	21279
895.04	21218
895.161	21302
895.283	21291
895.405	21245
895.526	21367
895.648	21154
895.769	21245
895.891	21291
896.012	21275
896.134	21363
896.255	21325
896.376	21283
896.498	21283
896.619	21272
896.74	21336
896.861	21325
896.982	21564
897.103	21800
897.224	21572
897.345	21420
897.466	21382
897.587	21553
897.708	21606
897.828	21443
897.949	21428
898.07	21355
898.19	21439
898.311	21496
898.431	21370
898.552	21336
898.672	21431
898.792	21561
898.913	21389
899.033	21313
899.153	21222
899.273	21043
899.393	21176
899.513	21291
899.633	21203
899.753	21066
899.873	21123
899.993	21157
900.113	21165
900.232	21104
900.352	21199
900.472	20895
900.591	20853
900.711	20883
900.83	21001
900.95	21043
901.069	21051
901.189	20773
901.308	20648
901.427	20606
901.546	20594
901.665	20560
901.784	20537
901.904	20294
902.023	20336
902.141	20077
902.26	20001
902.379	20092
902.498	19951
902.617	19913
902.735	20103
902.854	19902
902.973	19887
903.091	19552
903.21	19647
903.328	19635
903.446	19556
903.565	19491
903.683	19419
903.801	19377
903.919	19365
904.038	19407
904.156	19228
904.274	19209
904.392	19118
904.51	19091
904.627	19080
904.745	19145
904.863	19183
904.981	18890
905.098	18871
905.216	18825
905.334	18840
905.451	18810
905.569	18764
905.686	18958
905.803	18817
905.921	18601
906.038	18821
906.155	18601
906.272	18483
906.389	18486
906.506	18372
906.623	18433
906.74	18330
906.857	18273
906.974	18277
907.091	18300
907.208	18365
907.324	18346
907.441	18194
907.557	18022
907.674	18098
907.79	18011
907.907	18064
908.023	17992
908.139	18064
908.256	17999
908.372	17870
908.488	17851
908.604	17783
908.72	17676
908.836	17710
908.952	17726
909.068	17836
909.184	17897
909.3	17653
909.415	17733
909.531	17710
909.647	17455
909.762	17410
909.878	17406
909.993	17463
910.108	17433
910.224	17452
910.339	17372
910.454	17330
910.57	17307
910.685	17075
910.8	17486
910.915	17452
911.03	17170
911.145	17006
911.259	16957
911.374	16919
911.489	16835
911.604	16915
911.718	16645
911.833	16793
911.947	16660
912.062	16554
912.176	16790
912.291	16828
912.405	16759
912.519	16881
912.633	16889
912.748	16721
912.862	16611
912.976	16554
913.09	16367
913.204	16569
913.318	16569
913.431	16565
913.545	16584
913.659	16588
913.772	16497
913.886	16436
914	16356
914.113	16360
914.226	16363
914.34	16318
914.453	16215
914.566	16409
914.68	16200
914.793	16162
914.906	16025
915.019	15983
915.132	15895
915.245	15876
915.358	15941
915.47	15934
915.583	15937
915.696	16025
915.809	16010
915.921	16048
916.034	15751
916.146	15770
916.259	15766
916.371	15800
916.483	15819
916.595	15793
916.708	15743
916.82	15785
916.932	15713
917.044	15652
917.156	15622
917.268	15519
917.38	15549
917.491	15515
917.603	15568
917.715	15622
917.826	15622
917.938	15428
918.049	15370
918.161	15466
918.272	15618
918.384	15644
918.495	15561
918.606	15351
918.717	15256
918.828	15351
918.939	15344
919.05	15146
919.161	15188
919.272	15017
919.383	15135
919.494	15279
919.604	15488
919.715	15264
919.826	15104
919.936	15275
920.047	15329
920.157	15306
920.267	15412
920.378	15313
920.488	15298
920.598	15428
920.708	15625
920.818	15378
920.928	15317
921.038	15504
921.148	15412
921.258	15081
921.368	15036
921.477	14937
921.587	14902
921.697	14743
921.806	14971
921.916	14823
922.025	14568
922.134	14594
922.244	14598
922.353	14606
922.462	14499
922.571	14427
922.68	14313
922.789	14256
922.898	14202
923.007	14183
923.116	14282
923.224	14149
923.333	14111
923.442	14073
923.55	14008
923.659	13947
923.767	14096
923.876	13909
923.984	13932
924.092	13856
924.201	13932
924.309	13921
924.417	13913
924.525	13791
924.633	13856
924.741	14537
924.849	13677
924.956	13822
925.064	13677
925.172	13472
925.279	13556
925.387	13594
925.494	13597
925.602	13677
925.709	13624
925.816	13529
925.924	13449
926.031	13636
926.138	13407
926.245	13544
926.352	13392
926.459	13525
926.566	13571
926.673	13365
926.779	13312
926.886	13282
926.993	13168
927.099	13069
927.206	13084
927.312	13034
927.419	13209
927.525	13065
927.631	13091
927.737	13046
927.843	12871
927.95	12825
928.056	12928
928.162	12916
928.267	12894
928.373	13521
928.479	13008
928.585	12798
928.69	12871
928.796	12852
928.901	12779
929.007	12620
929.112	12768
929.218	12814
929.323	12608
929.428	12627
929.533	12783
929.638	12513
929.743	12521
929.848	12616
929.953	12555
930.058	12479
930.163	12342
930.267	12395
930.372	12407
930.477	12334
930.581	12429
930.685	12350
930.79	12182
930.894	12167
930.998	12125
931.103	12243
931.207	11828
931.311	11813
931.415	11748
931.519	11520
931.623	11528
