Data from test_V78500241_1987.txt Node
Date: Fri Mar 25 15:55:33 CST 2022
User: usil
Spectrometer: V785-0024
Trigger mode: 0
Integration Time (sec): 4.000000E-1
Scans to average: 1
Nonlinearity correction enabled: false
Boxcar width: 0
Storing dark spectrum: false
XAxis mode: Wavelengths
Number of Pixels in Spectrum: 1024
>>>>>Begin Spectral Data<<<<<
801.071	28360
801.214	28360
801.356	28013
801.499	28074
801.641	27918
801.783	27831
801.926	27975
802.068	27838
802.211	27914
802.353	27838
802.496	27728
802.638	27762
802.78	27542
802.923	27568
803.065	27485
803.208	27599
803.35	27625
803.492	27728
803.635	27816
803.777	27713
803.919	27846
804.061	28086
804.204	27861
804.346	27766
804.488	27819
804.63	27671
804.773	27671
804.915	27804
805.057	28002
805.199	27869
805.341	27835
805.483	27972
805.626	28055
805.768	27869
805.91	28044
806.052	28059
806.194	27880
806.336	28131
806.478	28002
806.62	28036
806.762	28242
806.904	28329
807.046	28630
807.188	28466
807.33	28356
807.472	28561
807.614	28409
807.756	28379
807.898	28360
808.04	28276
808.182	28341
808.324	28348
808.465	28447
808.607	28459
808.749	28717
808.891	28698
809.033	28892
809.174	28740
809.316	28607
809.458	28706
809.6	28672
809.741	28824
809.883	28881
810.025	29033
810.166	28877
810.308	28854
810.45	28885
810.591	28717
810.733	28710
810.875	28786
811.016	28622
811.158	28653
811.299	28774
811.441	28858
811.582	28790
811.724	28839
811.865	28687
812.007	28622
812.148	28675
812.29	28774
812.431	28824
812.573	28957
812.714	29105
812.855	29162
812.997	29231
813.138	29547
813.279	29379
813.421	29048
813.562	29060
813.703	28972
813.845	28930
813.986	28675
814.127	28459
814.268	28451
814.41	28337
814.551	28333
814.692	28360
814.833	28284
814.974	28211
815.115	28443
815.256	28265
815.397	28158
815.539	28158
815.68	28139
815.821	28261
815.962	28181
816.103	28105
816.244	27956
816.385	27914
816.526	27888
816.666	27774
816.807	27686
816.948	27785
817.089	27876
817.23	27789
817.371	27648
817.512	27557
817.653	27732
817.793	27660
817.934	27587
818.075	27739
818.216	27720
818.356	27724
818.497	27656
818.638	27606
818.778	27389
818.919	27401
819.06	27534
819.2	27698
819.341	27633
819.481	27667
819.622	27812
819.762	27994
819.903	27842
820.043	27827
820.184	27736
820.324	27918
820.465	27827
820.605	27880
820.746	27808
820.886	27785
821.026	27766
821.167	27679
821.307	27831
821.447	27713
821.588	27614
821.728	27355
821.868	27283
822.008	27264
822.149	27165
822.289	27131
822.429	26792
822.569	26895
822.709	26880
822.849	26571
822.99	26750
823.13	26636
823.27	26564
823.41	26404
823.55	26381
823.69	26503
823.83	26530
823.97	26427
824.11	26313
824.25	26324
824.389	26256
824.529	26412
824.669	26305
824.809	26328
824.949	26457
825.089	26453
825.228	26225
825.368	26126
825.508	26161
825.648	26263
825.787	26240
825.927	26320
826.067	26233
826.206	26142
826.346	26153
826.485	26233
826.625	26229
826.765	26225
826.904	26119
827.044	25959
827.183	25966
827.323	25860
827.462	26065
827.601	25940
827.741	25845
827.88	25841
828.02	25731
828.159	25932
828.298	25974
828.437	26054
828.577	25913
828.716	26016
828.855	25715
828.994	25487
829.134	25632
829.273	25639
829.412	25567
829.551	25624
829.69	25491
829.829	25491
829.968	25639
830.107	25590
830.246	25575
830.385	25491
830.524	25335
830.663	25377
830.802	25304
830.941	25209
831.08	25072
831.219	25171
831.357	25232
831.496	25468
831.635	25103
831.774	25156
831.913	25057
832.051	25019
832.19	25038
832.329	25008
832.467	24837
832.606	24779
832.744	24848
832.883	24825
833.022	24772
833.16	24954
833.299	24859
833.437	24829
833.576	24947
833.714	24935
833.852	24939
833.991	24905
834.129	25027
834.267	25042
834.406	24863
834.544	24859
834.682	25008
834.821	24928
834.959	25050
835.097	24753
835.235	24966
835.373	24985
835.511	24901
835.65	24833
835.788	24821
835.926	24703
836.064	24540
836.202	24681
836.34	24749
836.478	24852
836.615	24791
836.753	24806
836.891	24791
837.029	24658
837.167	24730
837.305	24582
837.443	24684
837.58	24532
837.718	24711
837.856	24639
837.993	24490
838.131	24635
838.269	24372
838.406	24532
838.544	24315
838.681	24133
838.819	24262
838.956	24152
839.094	23999
839.231	24152
839.369	24178
839.506	24445
839.643	24262
839.781	24072
839.918	23996
840.055	24155
840.193	23977
840.33	23916
840.467	24018
840.604	24064
840.742	24152
840.879	23771
841.016	23828
841.153	23798
841.29	24083
841.427	23958
841.564	24041
841.701	23969
841.838	23939
841.975	23726
842.112	23942
842.249	23779
842.385	23722
842.522	23885
842.659	23718
842.796	23775
842.933	23661
843.069	23699
843.206	23649
843.343	23710
843.479	23699
843.616	23646
843.752	23512
843.889	23474
844.025	23444
844.162	23356
844.298	23543
844.435	23486
844.571	23459
844.708	23509
844.844	23710
844.98	23562
845.117	23623
845.253	23391
845.389	23280
845.525	23395
845.661	23273
845.798	23200
845.934	23330
846.07	23105
846.206	23360
846.342	23349
846.478	23208
846.614	22949
846.75	22934
846.886	22786
847.022	22976
847.158	22927
847.294	22896
847.429	23056
847.565	22927
847.701	23121
847.837	22660
847.972	22565
848.108	22668
848.244	22691
848.379	22546
848.515	22554
848.65	22519
848.786	22577
848.921	22523
849.057	22592
849.192	22523
849.328	22508
849.463	22447
849.598	22485
849.734	22306
849.869	22318
850.004	22207
850.14	22261
850.275	22234
850.41	22143
850.545	22287
850.68	22356
850.815	22291
850.95	22265
851.085	22470
851.22	22306
851.355	22280
851.49	22303
851.625	22314
851.76	22131
851.895	22306
852.03	22150
852.165	22246
852.299	22272
852.434	22295
852.569	22325
852.703	22356
852.838	22215
852.973	22363
853.107	22329
853.242	22337
853.376	22154
853.511	21983
853.645	22036
853.78	22173
853.914	22150
854.048	21991
854.183	22070
854.317	22074
854.451	22154
854.585	22147
854.72	22093
854.854	22200
854.988	21979
855.122	22010
855.256	21964
855.39	21983
855.524	22181
855.658	22143
855.792	22101
855.926	22131
856.06	22101
856.194	22272
856.327	22101
856.461	21991
856.595	22097
856.729	22162
856.862	22150
856.996	22139
857.13	22204
857.263	22181
857.397	22246
857.53	22021
857.664	22128
857.797	22116
857.931	22219
858.064	22097
858.197	22169
858.331	22055
858.464	22048
858.597	22021
858.731	22124
858.864	22109
858.997	22032
859.13	22044
859.263	22029
859.396	22158
859.529	21941
859.662	22021
859.795	22055
859.928	22169
860.061	22223
860.194	22242
860.327	22177
860.46	22040
860.592	22158
860.725	22310
860.858	22272
860.99	22147
861.123	22021
861.256	22044
861.388	22055
861.521	22847
861.653	21930
861.786	21930
861.918	21998
862.05	21819
862.183	22055
862.315	22051
862.447	22185
862.58	21892
862.712	21857
862.844	21781
862.976	21880
863.108	21831
863.24	22257
863.372	21728
863.504	21835
863.636	21865
863.768	21793
863.9	21751
864.032	21625
864.164	21835
864.296	21766
864.428	21846
864.559	21899
864.691	21850
864.823	21808
864.954	21816
865.086	21831
865.217	21652
865.349	21595
865.48	21625
865.612	21682
865.743	21808
865.875	21724
866.006	21698
866.137	21728
866.269	21652
866.4	21732
866.531	21728
866.662	21545
866.793	21648
866.924	21610
867.055	21663
867.186	21576
867.317	21576
867.448	21458
867.579	21637
867.71	21454
867.841	21580
867.972	21576
868.103	21641
868.233	21732
868.364	21641
868.495	21736
868.625	21819
868.756	21937
868.886	21861
869.017	21736
869.147	22044
869.278	22055
869.408	21873
869.539	21915
869.669	22070
869.799	21994
869.929	21987
870.06	21983
870.19	22242
870.32	22177
870.45	22166
870.58	22295
870.71	22257
870.84	22295
870.97	22295
871.1	22207
871.23	22436
871.36	22470
871.489	22424
871.619	22424
871.749	22474
871.879	22478
872.008	22516
872.138	22485
872.267	22379
872.397	22379
872.526	22257
872.656	22325
872.785	22284
872.915	22455
873.044	22569
873.173	22474
873.303	22596
873.432	22588
873.561	22554
873.69	22512
873.819	22516
873.948	22512
874.077	22424
874.206	22375
874.335	22489
874.464	22519
874.593	22691
874.722	22607
874.851	22706
874.979	22717
875.108	22839
875.237	22706
875.365	22584
875.494	22493
875.623	22752
875.751	22611
875.88	22721
876.008	22675
876.136	22919
876.265	23185
876.393	23216
876.521	23189
876.65	23067
876.778	23098
876.906	22984
877.034	22995
877.162	23162
877.29	22999
877.418	23113
877.546	23029
877.674	23079
877.802	23098
877.93	23037
878.058	22908
878.185	22919
878.313	23018
878.441	23064
878.568	22911
878.696	22904
878.824	23098
878.951	23117
879.079	23216
879.206	23383
879.333	23132
879.461	23162
879.588	23220
879.715	23398
879.842	23277
879.97	23090
880.097	22835
880.224	22938
880.351	23014
880.478	22968
880.605	22904
880.732	22717
880.859	23071
880.986	22843
881.112	22900
881.239	22740
881.366	22577
881.493	22481
881.619	22497
881.746	22348
881.872	22500
881.999	22432
882.125	22405
882.252	22409
882.378	22280
882.505	22523
882.631	22318
882.757	22211
882.883	22169
883.01	22074
883.136	22032
883.262	21998
883.388	22051
883.514	22097
883.64	22166
883.766	21994
883.892	21793
884.018	21888
884.143	22162
884.269	22082
884.395	21869
884.52	21648
884.646	21797
884.772	21789
884.897	21713
885.023	21823
885.148	21911
885.274	21876
885.399	21831
885.524	21686
885.65	21709
885.775	21785
885.9	21842
886.025	21956
886.15	21781
886.275	21713
886.4	21755
886.525	21694
886.65	21504
886.775	21701
886.9	21835
887.025	21922
887.149	21591
887.274	21641
887.399	21523
887.523	21412
887.648	21458
887.773	21458
887.897	21568
888.021	21595
888.146	21351
888.27	21564
888.395	21576
888.519	21610
888.643	21545
888.767	21599
888.891	21424
889.015	21351
889.139	21393
889.263	21264
889.387	21405
889.511	21454
889.635	21408
889.759	21245
889.883	21249
890.006	21374
890.13	21291
890.254	21184
890.377	21256
890.501	21028
890.624	21032
890.748	21104
890.871	21013
890.995	20902
891.118	20826
891.241	20975
891.364	20857
891.488	20990
891.611	20861
891.734	20891
891.857	20937
891.98	20941
892.103	20861
892.226	20804
892.349	20735
892.471	20587
892.594	20651
892.717	20823
892.839	20651
892.962	20910
893.085	20861
893.207	20853
893.33	20590
893.452	20564
893.575	20708
893.697	20739
893.819	20902
893.941	20891
894.064	21024
894.186	20785
894.308	20724
894.43	20811
894.552	20929
894.674	20796
894.796	20720
894.918	20727
895.04	20758
895.161	20804
895.283	20823
895.405	20651
895.526	20670
895.648	20777
895.769	20785
895.891	20811
896.012	20811
896.134	20811
896.255	20686
896.376	20773
896.498	20708
896.619	20902
896.74	20811
896.861	20845
896.982	21047
897.103	21222
897.224	20944
897.345	20971
897.466	20845
897.587	20921
897.708	21199
897.828	21024
897.949	20830
898.07	20811
898.19	20785
898.311	20990
898.431	20918
898.552	20998
898.672	20956
898.792	20986
898.913	20902
899.033	20796
899.153	20834
899.273	20632
899.393	20777
899.513	20739
899.633	20746
899.753	20830
899.873	20636
899.993	20663
900.113	20678
900.232	20670
900.352	20575
900.472	20568
900.591	20423
900.711	20473
900.83	20309
900.95	20526
901.069	20522
901.189	20298
901.308	20088
901.427	19997
901.546	20107
901.665	20005
901.784	20077
901.904	19917
902.023	19715
902.141	19609
902.26	19601
902.379	19685
902.498	19556
902.617	19540
902.735	19434
902.854	19499
902.973	19415
903.091	19232
903.21	19213
903.328	19160
903.446	19099
903.565	19061
903.683	18981
903.801	18878
903.919	19008
904.038	18909
904.156	18817
904.274	18928
904.392	18764
904.51	18783
904.627	18749
904.745	18707
904.863	18783
904.981	18597
905.098	18388
905.216	18350
905.334	18395
905.451	18342
905.569	18433
905.686	18490
905.803	18429
905.921	18254
906.038	18407
906.155	18258
906.272	18133
906.389	18133
906.506	18011
906.623	18064
906.74	18015
906.857	17847
906.974	17843
907.091	18003
907.208	18045
907.324	17977
907.441	17821
907.557	17718
907.674	17726
907.79	17554
907.907	17608
908.023	17627
908.139	17627
908.256	17600
908.372	17524
908.488	17570
908.604	17395
908.72	17360
908.836	17414
908.952	17364
909.068	17398
909.184	17471
909.3	17395
909.415	17391
909.531	17387
909.647	17193
909.762	17155
909.878	17029
909.993	17124
910.108	17018
910.224	17018
910.339	16995
910.454	16919
910.57	16854
910.685	16828
910.8	17113
910.915	17025
911.03	16809
911.145	16683
911.259	16668
911.374	16748
911.489	16565
911.604	16550
911.718	16462
911.833	16436
911.947	16390
912.062	16162
912.176	16375
912.291	16394
912.405	16356
912.519	16641
912.633	16622
912.748	16451
912.862	16371
912.976	16249
913.09	16131
913.204	16154
913.318	16306
913.431	16276
913.545	16306
913.659	16295
913.772	16173
913.886	16101
914	16040
914.113	16006
914.226	16135
914.34	16105
914.453	15998
914.566	16055
914.68	15907
914.793	15926
914.906	15705
915.019	15507
915.132	15538
915.245	15671
915.358	15542
915.47	15652
915.583	15526
915.696	15679
915.809	15743
915.921	15743
916.034	15580
916.146	15416
916.259	15435
916.371	15507
916.483	15488
916.595	15496
916.708	15477
916.82	15428
916.932	15226
917.044	15359
917.156	15302
917.268	15294
917.38	15218
917.491	15218
917.603	15222
917.715	15275
917.826	15367
917.938	15218
918.049	15066
918.161	15222
918.272	15389
918.384	15298
918.495	15112
918.606	14994
918.717	14944
918.828	15032
918.939	14986
919.05	14880
919.161	14990
919.272	14781
919.383	14948
919.494	15077
919.604	15268
919.715	14963
919.826	14826
919.936	15001
920.047	15100
920.157	14998
920.267	15150
920.378	14994
920.488	14887
920.598	15062
920.708	15306
920.818	15074
920.928	15077
921.038	15184
921.148	15142
921.258	14880
921.368	14811
921.477	14731
921.587	14632
921.697	14617
921.806	14750
921.916	14526
922.025	14507
922.134	14404
922.244	14278
922.353	14214
922.462	14294
922.571	14153
922.68	13993
922.789	13913
922.898	13978
923.007	13917
923.116	13986
923.224	14065
923.333	13894
923.442	13784
923.55	13643
923.659	13750
923.767	13887
923.876	13742
923.984	13833
924.092	13674
924.201	13727
924.309	13693
924.417	13761
924.525	13636
924.633	13647
924.741	14396
924.849	13396
924.956	13571
925.064	13343
925.172	13324
925.279	13301
925.387	13251
925.494	13274
925.602	13460
925.709	13384
925.816	13244
925.924	13301
926.031	13301
926.138	13274
926.245	13354
926.352	13183
926.459	13289
926.566	13278
926.673	13194
926.779	13129
926.886	13080
926.993	13023
927.099	12966
927.206	12821
927.312	12916
927.419	12939
927.525	12905
927.631	12920
927.737	12741
927.843	12741
927.95	12616
928.056	12764
928.162	12745
928.267	12730
928.373	13468
928.479	12787
928.585	12517
928.69	12734
928.796	12669
928.901	12517
929.007	12403
929.112	12532
929.218	12486
929.323	12479
929.428	12509
929.533	12509
929.638	12311
929.743	12391
929.848	12361
929.953	12361
930.058	12311
930.163	12079
930.267	12136
930.372	12201
930.477	12091
930.581	12289
930.685	12110
930.79	11939
930.894	12041
930.998	11946
931.103	12068
931.207	11646
931.311	11570
931.415	11653
931.519	11391
931.623	11353
