Data from test_V78500241_508.txt Node
Date: Fri Mar 25 15:45:19 CST 2022
User: usil
Spectrometer: V785-0024
Trigger mode: 0
Integration Time (sec): 4.000000E-1
Scans to average: 1
Nonlinearity correction enabled: false
Boxcar width: 0
Storing dark spectrum: false
XAxis mode: Wavelengths
Number of Pixels in Spectrum: 1024
>>>>>Begin Spectral Data<<<<<
801.071	27363
801.214	27332
801.356	27089
801.499	27036
801.641	26940
801.783	26925
801.926	26998
802.068	26944
802.211	26781
802.353	26811
802.496	26575
802.638	26640
802.78	26659
802.923	26533
803.065	26393
803.208	26453
803.35	26648
803.492	26526
803.635	26720
803.777	26560
803.919	26648
804.061	26986
804.204	26724
804.346	26697
804.488	26590
804.63	26686
804.773	26526
804.915	26621
805.057	26800
805.199	26602
805.341	26811
805.483	26834
805.626	26895
805.768	26667
805.91	26845
806.052	26880
806.194	26826
806.336	27032
806.478	26845
806.62	26872
806.762	26891
806.904	26994
807.046	27287
807.188	27203
807.33	27184
807.472	27233
807.614	27222
807.756	27180
807.898	27112
808.04	27024
808.182	27066
808.324	26940
808.465	27017
808.607	27317
808.749	27519
808.891	27603
809.033	27583
809.174	27447
809.316	27443
809.458	27599
809.6	27393
809.741	27644
809.883	27599
810.025	27648
810.166	27705
810.308	27774
810.45	27679
810.591	27561
810.733	27534
810.875	27325
811.016	27340
811.158	27294
811.299	27496
811.441	27580
811.582	27652
811.724	27344
811.865	27272
812.007	27367
812.148	27378
812.29	27511
812.431	27530
812.573	27728
812.714	27831
812.855	28002
812.997	28090
813.138	28219
813.279	28109
813.421	28135
813.562	27797
813.703	27667
813.845	27641
813.986	27211
814.127	27100
814.268	27173
814.41	26960
814.551	27077
814.692	27074
814.833	27020
814.974	27119
815.115	27028
815.256	26842
815.397	26960
815.539	27017
815.68	26899
815.821	26804
815.962	26861
816.103	26838
816.244	26819
816.385	26667
816.526	26552
816.666	26484
816.807	26408
816.948	26324
817.089	26552
817.23	26492
817.371	26362
817.512	26366
817.653	26366
817.793	26351
817.934	26351
818.075	26400
818.216	26374
818.356	26309
818.497	26229
818.638	26103
818.778	26069
818.919	26046
819.06	26180
819.2	26282
819.341	26396
819.481	26275
819.622	26324
819.762	26697
819.903	26625
820.043	26499
820.184	26552
820.324	26503
820.465	26488
820.605	26533
820.746	26507
820.886	26225
821.026	26404
821.167	26351
821.307	26492
821.447	26336
821.588	26358
821.728	26176
821.868	25944
822.008	25845
822.149	25898
822.289	25791
822.429	25525
822.569	25616
822.709	25529
822.849	25354
822.99	25354
823.13	25244
823.27	25122
823.41	25148
823.55	25175
823.69	25240
823.83	25072
823.97	25053
824.11	24954
824.25	24966
824.389	24951
824.529	25076
824.669	24996
824.809	25103
824.949	25038
825.089	25088
825.228	25012
825.368	24779
825.508	24726
825.648	24783
825.787	24825
825.927	24840
826.067	24665
826.206	24795
826.346	24905
826.485	24886
826.625	24650
826.765	24878
826.904	24817
827.044	24578
827.183	24635
827.323	24441
827.462	24620
827.601	24555
827.741	24532
827.88	24448
828.02	24410
828.159	24521
828.298	24616
828.437	24654
828.577	24433
828.716	24627
828.855	24452
828.994	24220
829.134	24357
829.273	24315
829.412	24224
829.551	24346
829.69	24133
829.829	24281
829.968	24270
830.107	24281
830.246	24209
830.385	24182
830.524	24152
830.663	23958
830.802	23802
830.941	23874
831.08	23973
831.219	23847
831.357	23786
831.496	24076
831.635	23843
831.774	23741
831.913	23752
832.051	23684
832.19	23600
832.329	23600
832.467	23566
832.606	23440
832.744	23444
832.883	23566
833.022	23379
833.16	23478
833.299	23509
833.437	23463
833.576	23608
833.714	23699
833.852	23585
833.991	23619
834.129	23543
834.267	23592
834.406	23543
834.544	23741
834.682	23589
834.821	23531
834.959	23699
835.097	23463
835.235	23524
835.373	23630
835.511	23410
835.65	23452
835.788	23349
835.926	23265
836.064	23109
836.202	23231
836.34	23334
836.478	23562
836.615	23227
836.753	23345
836.891	23433
837.029	23391
837.167	23296
837.305	23307
837.443	23322
837.58	23170
837.718	23334
837.856	23372
837.993	23162
838.131	23197
838.269	23018
838.406	23113
838.544	23132
838.681	22869
838.819	22957
838.956	22721
839.094	22557
839.231	22733
839.369	22729
839.506	23128
839.643	22980
839.781	22820
839.918	22611
840.055	22672
840.193	22645
840.33	22729
840.467	22607
840.604	22717
840.742	22972
840.879	22535
841.016	22698
841.153	22565
841.29	22748
841.427	22592
841.564	22672
841.701	22535
841.838	22565
841.975	22592
842.112	22641
842.249	22474
842.385	22360
842.522	22519
842.659	22447
842.796	22344
842.933	22459
843.069	22356
843.206	22337
843.343	22489
843.479	22367
843.616	22394
843.752	22147
843.889	22143
844.025	22268
844.162	22150
844.298	22169
844.435	22192
844.571	22010
844.708	22185
844.844	22177
844.98	22192
845.117	22257
845.253	22101
845.389	21945
845.525	22101
845.661	22105
845.798	21960
845.934	21915
846.07	21827
846.206	21934
846.342	21876
846.478	21941
846.614	21622
846.75	21705
846.886	21496
847.022	21667
847.158	21675
847.294	21610
847.429	21652
847.565	21572
847.701	21850
847.837	21386
847.972	21272
848.108	21553
848.244	21435
848.379	21291
848.515	21268
848.65	21104
848.786	21192
848.921	21302
849.057	21363
849.192	21291
849.328	21313
849.463	21203
849.598	21085
849.734	21184
849.869	21024
850.004	20994
850.14	20895
850.275	21070
850.41	20914
850.545	20979
850.68	20937
850.815	20979
850.95	20914
851.085	21154
851.22	21043
851.355	20979
851.49	20864
851.625	20994
851.76	20910
851.895	21062
852.03	20925
852.165	21047
852.299	21028
852.434	21020
852.569	20994
852.703	20975
852.838	20910
852.973	21207
853.107	21100
853.242	20883
853.376	20800
853.511	20686
853.645	20651
853.78	20823
853.914	20731
854.048	20667
854.183	20640
854.317	20804
854.451	20944
854.585	20838
854.72	20697
854.854	20918
854.988	20758
855.122	20788
855.256	20659
855.39	20739
855.524	20914
855.658	20781
855.792	20880
855.926	20811
856.06	20785
856.194	20937
856.327	20773
856.461	20781
856.595	20777
856.729	20823
856.862	20925
856.996	20830
857.13	20800
857.263	20925
857.397	20883
857.53	20682
857.664	20842
857.797	20735
857.931	20956
858.064	20788
858.197	20849
858.331	20826
858.464	20739
858.597	20674
858.731	20682
858.864	20769
858.997	20785
859.13	20712
859.263	20727
859.396	20849
859.529	20807
859.662	20651
859.795	20682
859.928	20807
860.061	20914
860.194	20937
860.327	20815
860.46	20845
860.592	20925
860.725	21013
860.858	20899
860.99	20823
861.123	20769
861.256	20724
861.388	20800
861.521	21447
861.653	20651
861.786	20632
861.918	20674
862.05	20712
862.183	20838
862.315	20705
862.447	20887
862.58	20716
862.712	20617
862.844	20488
862.976	20617
863.108	20575
863.24	20986
863.372	20389
863.504	20522
863.636	20488
863.768	20434
863.9	20427
864.032	20438
864.164	20355
864.296	20526
864.428	20674
864.559	20541
864.691	20533
864.823	20522
864.954	20606
865.086	20476
865.217	20431
865.349	20381
865.48	20404
865.612	20457
865.743	20541
865.875	20446
866.006	20229
866.137	20400
866.269	20495
866.4	20339
866.531	20366
866.662	20446
866.793	20339
866.924	20351
867.055	20412
867.186	20381
867.317	20252
867.448	20355
867.579	20400
867.71	20301
867.841	20138
867.972	20438
868.103	20320
868.233	20305
868.364	20332
868.495	20461
868.625	20568
868.756	20686
868.886	20518
869.017	20564
869.147	20651
869.278	20743
869.408	20648
869.539	20587
869.669	20735
869.799	20568
869.929	20750
870.06	20720
870.19	20960
870.32	20834
870.45	20872
870.58	20948
870.71	21009
870.84	21081
870.97	21032
871.1	20975
871.23	21116
871.36	21291
871.489	21116
871.619	21100
871.749	21135
871.879	21081
872.008	21348
872.138	21157
872.267	21237
872.397	21039
872.526	21043
872.656	21032
872.785	21005
872.915	21218
873.044	21222
873.173	21211
873.303	21252
873.432	21214
873.561	21344
873.69	21302
873.819	21176
873.948	21329
874.077	21199
874.206	21237
874.335	21218
874.464	21256
874.593	21469
874.722	21473
874.851	21405
874.979	21481
875.108	21519
875.237	21428
875.365	21313
875.494	21500
875.623	21397
875.751	21428
875.88	21485
876.008	21587
876.136	21515
876.265	21869
876.393	22025
876.521	21869
876.65	22044
876.778	21819
876.906	21774
877.034	21705
877.162	21797
877.29	21747
877.418	21816
877.546	21835
877.674	21972
877.802	21846
877.93	21751
878.058	21789
878.185	21751
878.313	21762
878.441	21728
878.568	21713
878.696	21675
878.824	21766
878.951	21964
879.079	22006
879.206	22139
879.333	22017
879.461	21892
879.588	22059
879.715	21892
879.842	22185
879.97	21930
880.097	21644
880.224	21633
880.351	21679
880.478	21561
880.605	21572
880.732	21679
880.859	21892
880.986	21652
881.112	21671
881.239	21625
881.366	21306
881.493	21245
881.619	21245
881.746	21283
881.872	21226
881.999	21199
882.125	21249
882.252	21264
882.378	21165
882.505	21279
882.631	20990
882.757	21070
882.883	21001
883.01	20971
883.136	20880
883.262	20842
883.388	20735
883.514	20914
883.64	20937
883.766	20826
883.892	20670
884.018	20716
884.143	20823
884.269	20963
884.395	20674
884.52	20423
884.646	20617
884.772	20575
884.897	20609
885.023	20708
885.148	20507
885.274	20796
885.399	20644
885.524	20621
885.65	20579
885.775	20495
885.9	20446
886.025	20727
886.15	20731
886.275	20579
886.4	20484
886.525	20473
886.65	20484
886.775	20480
886.9	20693
887.025	20701
887.149	20556
887.274	20396
887.399	20332
887.523	20446
887.648	20358
887.773	20233
887.897	20434
888.021	20412
888.146	20374
888.27	20438
888.395	20400
888.519	20362
888.643	20412
888.767	20438
888.891	20233
889.015	20119
889.139	20267
889.263	20024
889.387	20252
889.511	20305
889.635	20366
889.759	20024
889.883	20096
890.006	20145
890.13	20221
890.254	20096
890.377	20027
890.501	19944
890.624	19871
890.748	19963
890.871	19788
890.995	19681
891.118	19605
891.241	19727
891.364	19662
891.488	19788
891.611	19715
891.734	19712
891.857	19700
891.98	19738
892.103	19647
892.226	19708
892.349	19540
892.471	19552
892.594	19727
892.717	19597
892.839	19632
892.962	19693
893.085	19731
893.207	19575
893.33	19567
893.452	19567
893.575	19658
893.697	19571
893.819	19811
893.941	19826
894.064	19788
894.186	19548
894.308	19613
894.43	19761
894.552	19803
894.674	19719
894.796	19537
894.918	19487
895.04	19590
895.161	19655
895.283	19635
895.405	19567
895.526	19563
895.648	19533
895.769	19647
895.891	19753
896.012	19647
896.134	19689
896.255	19628
896.376	19685
896.498	19670
896.619	19715
896.74	19757
896.861	19731
896.982	19978
897.103	20065
897.224	19913
897.345	19845
897.466	19833
897.587	19879
897.708	20077
897.828	19799
897.949	19822
898.07	19860
898.19	19727
898.311	19974
898.431	19864
898.552	19807
898.672	19925
898.792	19928
898.913	19909
899.033	19681
899.153	19651
899.273	19681
899.393	19742
899.513	19647
899.633	19708
899.753	19677
899.873	19609
899.993	19689
900.113	19559
900.232	19540
900.352	19525
900.472	19571
900.591	19400
900.711	19441
900.83	19392
900.95	19567
901.069	19495
901.189	19301
901.308	19091
901.427	19027
901.546	19061
901.665	19034
901.784	19145
901.904	18951
902.023	18734
902.141	18658
902.26	18532
902.379	18677
902.498	18612
902.617	18506
902.735	18536
902.854	18445
902.973	18414
903.091	18220
903.21	18186
903.328	18152
903.446	18079
903.565	17958
903.683	18007
903.801	17973
903.919	17996
904.038	17870
904.156	17817
904.274	17870
904.392	17786
904.51	17790
904.627	17748
904.745	17851
904.863	17809
904.981	17554
905.098	17490
905.216	17448
905.334	17474
905.451	17505
905.569	17406
905.686	17486
905.803	17493
905.921	17303
906.038	17368
906.155	17360
906.272	17227
906.389	17193
906.506	16938
906.623	16984
906.74	16968
906.857	16862
906.974	16908
907.091	17128
907.208	17162
907.324	16972
907.441	16889
907.557	16854
907.674	16622
907.79	16660
907.907	16634
908.023	16706
908.139	16767
908.256	16611
908.372	16649
908.488	16626
908.604	16413
908.72	16352
908.836	16470
908.952	16462
909.068	16512
909.184	16512
909.3	16417
909.415	16497
909.531	16516
909.647	16215
909.762	16230
909.878	16158
909.993	16192
910.108	16196
910.224	16048
910.339	16135
910.454	16006
910.57	16048
910.685	15975
910.8	16223
910.915	16112
911.03	15968
911.145	15911
911.259	15679
911.374	15648
911.489	15736
911.604	15606
911.718	15557
911.833	15534
911.947	15367
912.062	15355
912.176	15599
912.291	15595
912.405	15595
912.519	15717
912.633	15648
912.748	15481
912.862	15424
912.976	15313
913.09	15275
913.204	15294
913.318	15291
913.431	15382
913.545	15355
913.659	15374
913.772	15252
913.886	15070
914	15108
914.113	15226
914.226	15180
914.34	15108
914.453	14948
914.566	15135
914.68	14986
914.793	15119
914.906	14861
915.019	14773
915.132	14705
915.245	14701
915.358	14792
915.47	14765
915.583	14739
915.696	14708
915.809	14849
915.921	14925
916.034	14663
916.146	14644
916.259	14640
916.371	14811
916.483	14667
916.595	14689
916.708	14648
916.82	14663
916.932	14571
917.044	14598
917.156	14526
917.268	14393
917.38	14423
917.491	14343
917.603	14454
917.715	14476
917.826	14473
917.938	14259
918.049	14256
918.161	14271
918.272	14377
918.384	14377
918.495	14332
918.606	14248
918.717	14134
918.828	14218
918.939	14218
919.05	14157
919.161	14206
919.272	13986
919.383	14088
919.494	14267
919.604	14423
919.715	14126
919.826	14031
919.936	14123
920.047	14252
920.157	14100
920.267	14431
920.378	14202
920.488	14096
920.598	14256
920.708	14476
920.818	14324
920.928	14370
921.038	14503
921.148	14427
921.258	14103
921.368	14031
921.477	13864
921.587	13894
921.697	13772
921.806	13894
921.916	13757
922.025	13624
922.134	13571
922.244	13495
922.353	13620
922.462	13411
922.571	13335
922.68	13183
922.789	13141
922.898	13175
923.007	13236
923.116	13183
923.224	13152
923.333	13175
923.442	13072
923.55	12913
923.659	13069
923.767	13118
923.876	12966
923.984	13034
924.092	12867
924.201	12985
924.309	12943
924.417	12981
924.525	12894
924.633	12882
924.741	13723
924.849	12726
924.956	12852
925.064	12673
925.172	12513
925.279	12684
925.387	12707
925.494	12570
925.602	12764
925.709	12707
925.816	12509
925.924	12570
926.031	12654
926.138	12604
926.245	12677
926.352	12555
926.459	12612
926.566	12707
926.673	12456
926.779	12388
926.886	12372
926.993	12277
927.099	12201
927.206	12155
927.312	12117
927.419	12311
927.525	12247
927.631	12235
927.737	12091
927.843	12022
927.95	11939
928.056	11999
928.162	12144
928.267	12095
928.373	12745
928.479	12228
928.585	11855
928.69	11969
928.796	12003
928.901	11870
929.007	11729
929.112	11893
929.218	11817
929.323	11832
929.428	11726
929.533	11828
929.638	11668
929.743	11733
929.848	11779
929.953	11714
930.058	11589
930.163	11490
930.267	11581
930.372	11623
930.477	11425
930.581	11672
930.685	11562
930.79	11364
930.894	11372
930.998	11231
931.103	11402
931.207	11201
931.311	11105
931.415	10946
931.519	10763
931.623	10755
