Data from test_V78500241_1996.txt Node
Date: Fri Mar 25 15:55:37 CST 2022
User: usil
Spectrometer: V785-0024
Trigger mode: 0
Integration Time (sec): 4.000000E-1
Scans to average: 1
Nonlinearity correction enabled: false
Boxcar width: 0
Storing dark spectrum: false
XAxis mode: Wavelengths
Number of Pixels in Spectrum: 1024
>>>>>Begin Spectral Data<<<<<
801.071	28432
801.214	28550
801.356	28280
801.499	28325
801.641	28029
801.783	28082
801.926	28162
802.068	28029
802.211	27895
802.353	28013
802.496	27838
802.638	27713
802.78	27629
802.923	27614
803.065	27648
803.208	27690
803.35	27797
803.492	27956
803.635	27991
803.777	27823
803.919	28048
804.061	28447
804.204	27941
804.346	27903
804.488	27884
804.63	28013
804.773	27823
804.915	28070
805.057	28082
805.199	27949
805.341	27975
805.483	28150
805.626	28078
805.768	28040
805.91	28105
806.052	28185
806.194	28109
806.336	28257
806.478	28192
806.62	28086
806.762	28158
806.904	28584
807.046	28550
807.188	28535
807.33	28428
807.472	28656
807.614	28497
807.756	28577
807.898	28577
808.04	28390
808.182	28440
808.324	28405
808.465	28599
808.607	28748
808.749	28866
808.891	28869
809.033	29029
809.174	28904
809.316	28869
809.458	28771
809.6	28816
809.741	28831
809.883	28995
810.025	29086
810.166	29269
810.308	29185
810.45	29033
810.591	29018
810.733	28923
810.875	28790
811.016	28748
811.158	28858
811.299	28888
811.441	29029
811.582	29025
811.724	28797
811.865	28721
812.007	28793
812.148	28877
812.29	28831
812.431	29060
812.573	29025
812.714	29242
812.855	29292
812.997	29379
813.138	29646
813.279	29436
813.421	29288
813.562	29322
813.703	29052
813.845	28953
813.986	28778
814.127	28561
814.268	28459
814.41	28459
814.551	28519
814.692	28645
814.833	28348
814.974	28485
815.115	28508
815.256	28318
815.397	28440
815.539	28409
815.68	28325
815.821	28268
815.962	28478
816.103	28284
816.244	28131
816.385	28086
816.526	28150
816.666	27956
816.807	27797
816.948	27854
817.089	27930
817.23	27781
817.371	27762
817.512	27789
817.653	27838
817.793	27770
817.934	27713
818.075	27739
818.216	27823
818.356	27728
818.497	27648
818.638	27545
818.778	27625
818.919	27580
819.06	27591
819.2	27717
819.341	27808
819.481	27884
819.622	27922
819.762	28116
819.903	28090
820.043	28017
820.184	27808
820.324	27911
820.465	27983
820.605	28090
820.746	27941
820.886	27861
821.026	27759
821.167	27861
821.307	27926
821.447	27873
821.588	27580
821.728	27614
821.868	27507
822.008	27340
822.149	27336
822.289	27344
822.429	26948
822.569	26872
822.709	27081
822.849	26834
822.99	26800
823.13	26876
823.27	26800
823.41	26670
823.55	26492
823.69	26659
823.83	26640
823.97	26552
824.11	26339
824.25	26336
824.389	26442
824.529	26514
824.669	26476
824.809	26465
824.949	26583
825.089	26568
825.228	26503
825.368	26183
825.508	26275
825.648	26324
825.787	26370
825.927	26476
826.067	26248
826.206	26263
826.346	26423
826.485	26317
826.625	26328
826.765	26366
826.904	26404
827.044	26187
827.183	26077
827.323	25986
827.462	26100
827.601	26058
827.741	25986
827.88	26073
828.02	26027
828.159	26012
828.298	25909
828.437	26062
828.577	25989
828.716	26062
828.855	25951
828.994	25765
829.134	25769
829.273	25830
829.412	25719
829.551	25590
829.69	25734
829.829	25765
829.968	25719
830.107	25761
830.246	25651
830.385	25662
830.524	25540
830.663	25605
830.802	25434
830.941	25293
831.08	25255
831.219	25365
831.357	25407
831.496	25514
831.635	25304
831.774	25251
831.913	25179
832.051	25129
832.19	25228
832.329	25152
832.467	25099
832.606	24856
832.744	24882
832.883	24939
833.022	24909
833.16	25069
833.299	25034
833.437	24901
833.576	25076
833.714	24989
833.852	25080
833.991	25259
834.129	24977
834.267	25225
834.406	25038
834.544	25160
834.682	25027
834.821	25126
834.959	25152
835.097	24943
835.235	25015
835.373	25072
835.511	25023
835.65	24878
835.788	24871
835.926	24829
836.064	24623
836.202	24719
836.34	24875
836.478	24951
836.615	24920
836.753	24890
836.891	25004
837.029	24977
837.167	24772
837.305	24642
837.443	24795
837.58	24612
837.718	24821
837.856	24730
837.993	24715
838.131	24623
838.269	24498
838.406	24627
838.544	24525
838.681	24372
838.819	24388
838.956	24144
839.094	24167
839.231	24197
839.369	24327
839.506	24566
839.643	24361
839.781	24159
839.918	24110
840.055	24117
840.193	24121
840.33	24038
840.467	24022
840.604	24041
840.742	24319
840.879	24049
841.016	24003
841.153	24079
841.29	24171
841.427	24045
841.564	24125
841.701	24095
841.838	24129
841.975	23984
842.112	24076
842.249	23843
842.385	23840
842.522	24197
842.659	23901
842.796	23733
842.933	23836
843.069	23741
843.206	23821
843.343	23885
843.479	23832
843.616	23733
843.752	23661
843.889	23547
844.025	23805
844.162	23627
844.298	23646
844.435	23718
844.571	23638
844.708	23638
844.844	23817
844.98	23847
845.117	23623
845.253	23505
845.389	23471
845.525	23570
845.661	23433
845.798	23345
845.934	23452
846.07	23391
846.206	23509
846.342	23482
846.478	23376
846.614	23098
846.75	22957
846.886	22991
847.022	23090
847.158	23113
847.294	23098
847.429	23102
847.565	23056
847.701	23231
847.837	22816
847.972	22710
848.108	22869
848.244	22839
848.379	22645
848.515	22683
848.65	22675
848.786	22675
848.921	22748
849.057	22672
849.192	22771
849.328	22649
849.463	22634
849.598	22569
849.734	22550
849.869	22527
850.004	22493
850.14	22447
850.275	22352
850.41	22371
850.545	22341
850.68	22424
850.815	22405
850.95	22447
851.085	22687
851.22	22531
851.355	22440
851.49	22443
851.625	22432
851.76	22371
851.895	22386
852.03	22238
852.165	22489
852.299	22504
852.434	22443
852.569	22481
852.703	22390
852.838	22398
852.973	22485
853.107	22580
853.242	22390
853.376	22257
853.511	22200
853.645	22204
853.78	22356
853.914	22306
854.048	22090
854.183	22257
854.317	22314
854.451	22398
854.585	22261
854.72	22086
854.854	22314
854.988	22044
855.122	22211
855.256	22169
855.39	22215
855.524	22436
855.658	22337
855.792	22234
855.926	22421
856.06	22265
856.194	22284
856.327	22322
856.461	22249
856.595	22166
856.729	22284
856.862	22352
856.996	22249
857.13	22173
857.263	22436
857.397	22344
857.53	22234
857.664	22310
857.797	22356
857.931	22402
858.064	22344
858.197	22352
858.331	22204
858.464	22166
858.597	22044
858.731	22147
858.864	22185
858.997	22276
859.13	22211
859.263	22272
859.396	22344
859.529	22246
859.662	22169
859.795	22086
859.928	22375
860.061	22386
860.194	22409
860.327	22261
860.46	22177
860.592	22451
860.725	22466
860.858	22341
860.99	22325
861.123	22173
861.256	22276
861.388	22215
861.521	22923
861.653	22139
861.786	22029
861.918	22139
862.05	22154
862.183	22162
862.315	22204
862.447	22333
862.58	22169
862.712	21960
862.844	21937
862.976	22040
863.108	21911
863.24	22405
863.372	21941
863.504	22055
863.636	21964
863.768	22048
863.9	22044
864.032	21949
864.164	21937
864.296	22017
864.428	22051
864.559	22078
864.691	21873
864.823	21975
864.954	21968
865.086	21998
865.217	21895
865.349	21717
865.48	21739
865.612	21854
865.743	21850
865.875	21873
866.006	21778
866.137	21857
866.269	21895
866.4	21793
866.531	21800
866.662	21690
866.793	21713
866.924	21892
867.055	21762
867.186	21800
867.317	21778
867.448	21663
867.579	21656
867.71	21549
867.841	21633
867.972	21728
868.103	21682
868.233	21724
868.364	21804
868.495	21846
868.625	21926
868.756	22105
868.886	22002
869.017	22036
869.147	22128
869.278	22173
869.408	22116
869.539	22086
869.669	22021
869.799	22139
869.929	22143
870.06	22162
870.19	22348
870.32	22265
870.45	22333
870.58	22447
870.71	22390
870.84	22508
870.97	22443
871.1	22413
871.23	22561
871.36	22630
871.489	22569
871.619	22569
871.749	22660
871.879	22683
872.008	22767
872.138	22577
872.267	22679
872.397	22489
872.526	22497
872.656	22470
872.785	22447
872.915	22698
873.044	22645
873.173	22603
873.303	22797
873.432	22637
873.561	22649
873.69	22577
873.819	22641
873.948	22744
874.077	22611
874.206	22588
874.335	22645
874.464	22615
874.593	22869
874.722	22805
874.851	22812
874.979	22885
875.108	22892
875.237	22843
875.365	22702
875.494	22942
875.623	22679
875.751	22839
875.88	22771
876.008	22869
876.136	22900
876.265	23288
876.393	23284
876.521	23337
876.65	23372
876.778	23223
876.906	23189
877.034	23094
877.162	23136
877.29	23094
877.418	23181
877.546	23178
877.674	23220
877.802	23178
877.93	23174
878.058	23204
878.185	23102
878.313	23147
878.441	23105
878.568	23098
878.696	23018
878.824	23326
878.951	23227
879.079	23337
879.206	23539
879.333	23490
879.461	23181
879.588	23345
879.715	23250
879.842	23649
879.97	23341
880.097	22949
880.224	22953
880.351	22995
880.478	22968
880.605	22930
880.732	22991
880.859	23041
880.986	23044
881.112	23003
881.239	22831
881.366	22710
881.493	22592
881.619	22561
881.746	22694
881.872	22546
881.999	22588
882.125	22462
882.252	22630
882.378	22493
882.505	22516
882.631	22466
882.757	22238
882.883	22360
883.01	22375
883.136	22173
883.262	22074
883.388	22063
883.514	22322
883.64	22356
883.766	22124
883.892	21994
884.018	22063
884.143	22230
884.269	22215
884.395	21979
884.52	21884
884.646	21835
884.772	21812
884.897	21888
885.023	21880
885.148	22002
885.274	22074
885.399	22135
885.524	21903
885.65	21876
885.775	21949
885.9	21785
886.025	21987
886.15	21922
886.275	21720
886.4	21838
886.525	21876
886.65	21736
886.775	21850
886.9	21968
887.025	22086
887.149	21869
887.274	21701
887.399	21515
887.523	21713
887.648	21614
887.773	21599
887.897	21686
888.021	21610
888.146	21523
888.27	21739
888.395	21717
888.519	21690
888.643	21610
888.767	21580
888.891	21568
889.015	21405
889.139	21481
889.263	21367
889.387	21530
889.511	21564
889.635	21515
889.759	21477
889.883	21351
890.006	21530
890.13	21431
890.254	21310
890.377	21424
890.501	21203
890.624	21218
890.748	21176
890.871	21214
890.995	20967
891.118	21043
891.241	21131
891.364	20948
891.488	21116
891.611	20937
891.734	21051
891.857	21077
891.98	21074
892.103	21020
892.226	21005
892.349	20906
892.471	20693
892.594	20948
892.717	20952
892.839	20902
892.962	20887
893.085	20914
893.207	20804
893.33	20743
893.452	20697
893.575	20861
893.697	20857
893.819	20990
893.941	21028
894.064	20956
894.186	20785
894.308	20769
894.43	20921
894.552	20921
894.674	20933
894.796	20857
894.918	20746
895.04	20842
895.161	20937
895.283	20765
895.405	20754
895.526	20826
895.648	20921
895.769	20921
895.891	20769
896.012	20944
896.134	20842
896.255	20883
896.376	20750
896.498	20826
896.619	20910
896.74	20876
896.861	20864
896.982	21207
897.103	21268
897.224	21180
897.345	21127
897.466	21112
897.587	20952
897.708	21108
897.828	21165
897.949	20929
898.07	20891
898.19	20952
898.311	21169
898.431	21093
898.552	21146
898.672	21119
898.792	21207
898.913	21066
899.033	20944
899.153	20845
899.273	20735
899.393	20792
899.513	20902
899.633	20918
899.753	20902
899.873	20765
899.993	20883
900.113	20804
900.232	20807
900.352	20735
900.472	20606
900.591	20454
900.711	20568
900.83	20594
900.95	20765
901.069	20594
901.189	20480
901.308	20210
901.427	20157
901.546	20157
901.665	20168
901.784	20161
901.904	20027
902.023	19883
902.141	19693
902.26	19738
902.379	19753
902.498	19605
902.617	19567
902.735	19662
902.854	19635
902.973	19582
903.091	19400
903.21	19331
903.328	19369
903.446	19251
903.565	19156
903.683	19152
903.801	18954
903.919	19057
904.038	18993
904.156	18764
904.274	19069
904.392	18856
904.51	18871
904.627	18833
904.745	18916
904.863	18913
904.981	18642
905.098	18555
905.216	18551
905.334	18601
905.451	18513
905.569	18426
905.686	18574
905.803	18486
905.921	18296
906.038	18357
906.155	18258
906.272	18346
906.389	18273
906.506	18125
906.623	18072
906.74	18060
906.857	18019
906.974	18022
907.091	18064
907.208	18129
907.324	18045
907.441	17980
907.557	17836
907.674	17714
907.79	17691
907.907	17756
908.023	17805
908.139	17840
908.256	17737
908.372	17676
908.488	17661
908.604	17493
908.72	17463
908.836	17497
908.952	17440
909.068	17505
909.184	17520
909.3	17497
909.415	17581
909.531	17459
909.647	17185
909.762	17246
909.878	17071
909.993	17189
910.108	17185
910.224	17105
910.339	17128
910.454	17025
910.57	17025
910.685	17018
910.8	17208
910.915	17170
911.03	17014
911.145	16831
911.259	16900
911.374	16694
911.489	16717
911.604	16622
911.718	16527
911.833	16481
911.947	16379
912.062	16284
912.176	16459
912.291	16542
912.405	16443
912.519	16694
912.633	16717
912.748	16531
912.862	16516
912.976	16303
913.09	16272
913.204	16246
913.318	16310
913.431	16371
913.545	16333
913.659	16436
913.772	16333
913.886	16234
914	16287
914.113	16192
914.226	16173
914.34	16105
914.453	15975
914.566	16120
914.68	15934
914.793	16021
914.906	15751
915.019	15682
915.132	15679
915.245	15747
915.358	15698
915.47	15743
915.583	15800
915.696	15724
915.809	15778
915.921	15857
916.034	15736
916.146	15644
916.259	15591
916.371	15641
916.483	15572
916.595	15576
916.708	15511
916.82	15496
916.932	15416
917.044	15450
917.156	15382
917.268	15359
917.38	15386
917.491	15351
917.603	15336
917.715	15481
917.826	15435
917.938	15287
918.049	15142
918.161	15294
918.272	15458
918.384	15412
918.495	15226
918.606	15127
918.717	14914
918.828	15062
918.939	15146
919.05	15013
919.161	15070
919.272	14838
919.383	14845
919.494	15173
919.604	15264
919.715	15146
919.826	14921
919.936	14990
920.047	15108
920.157	15131
920.267	15207
920.378	15017
920.488	15070
920.598	15165
920.708	15382
920.818	15131
920.928	15214
921.038	15283
921.148	15279
921.258	14941
921.368	14929
921.477	14872
921.587	14758
921.697	14686
921.806	14826
921.916	14533
922.025	14473
922.134	14423
922.244	14263
922.353	14454
922.462	14336
922.571	14183
922.68	13909
922.789	13986
922.898	14008
923.007	14020
923.116	14046
923.224	14073
923.333	14008
923.442	13925
923.55	13799
923.659	13864
923.767	14008
923.876	13822
923.984	13982
924.092	13761
924.201	13807
924.309	13727
924.417	13708
924.525	13776
924.633	13666
924.741	14400
924.849	13438
924.956	13540
925.064	13453
925.172	13400
925.279	13354
925.387	13407
925.494	13472
925.602	13563
925.709	13483
925.816	13327
925.924	13331
926.031	13415
926.138	13339
926.245	13384
926.352	13278
926.459	13369
926.566	13396
926.673	13247
926.779	13206
926.886	13095
926.993	13122
927.099	13076
927.206	12932
927.312	12935
927.419	13023
927.525	13053
927.631	12939
927.737	12856
927.843	12776
927.95	12730
928.056	12738
928.162	12791
928.267	12795
928.373	13411
928.479	12760
928.585	12715
928.69	12684
928.796	12768
928.901	12582
929.007	12506
929.112	12612
929.218	12540
929.323	12521
929.428	12456
929.533	12540
929.638	12479
929.743	12433
929.848	12540
929.953	12410
930.058	12342
930.163	12121
930.267	12159
930.372	12300
930.477	12186
930.581	12315
930.685	12178
930.79	12057
930.894	12114
930.998	11992
931.103	12079
931.207	11695
931.311	11729
931.415	11657
931.519	11440
931.623	11440
