Data from test_V78500241_1759.txt Node
Date: Fri Mar 25 15:53:59 CST 2022
User: usil
Spectrometer: V785-0024
Trigger mode: 0
Integration Time (sec): 4.000000E-1
Scans to average: 1
Nonlinearity correction enabled: false
Boxcar width: 0
Storing dark spectrum: false
XAxis mode: Wavelengths
Number of Pixels in Spectrum: 1024
>>>>>Begin Spectral Data<<<<<
801.071	28729
801.214	28691
801.356	28375
801.499	28394
801.641	28386
801.783	28150
801.926	28287
802.068	28147
802.211	28135
802.353	28268
802.496	28013
802.638	27949
802.78	27869
802.923	28006
803.065	27804
803.208	27949
803.35	27968
803.492	28029
803.635	28207
803.777	28112
803.919	28120
804.061	28554
804.204	28284
804.346	28284
804.488	28238
804.63	28177
804.773	28181
804.915	28268
805.057	28424
805.199	28261
805.341	28405
805.483	28428
805.626	28329
805.768	28226
805.91	28413
806.052	28417
806.194	28306
806.336	28561
806.478	28432
806.62	28432
806.762	28573
806.904	28668
807.046	28748
807.188	28771
807.33	28850
807.472	28744
807.614	28733
807.756	28812
807.898	28679
808.04	28664
808.182	28729
808.324	28531
808.465	28797
808.607	28774
808.749	29117
808.891	29170
809.033	29143
809.174	29079
809.316	29079
809.458	29136
809.6	29086
809.741	29204
809.883	29223
810.025	29269
810.166	29334
810.308	29296
810.45	29288
810.591	29322
810.733	29132
810.875	29041
811.016	28934
811.158	28938
811.299	29204
811.441	29250
811.582	29303
811.724	28930
811.865	28923
812.007	29132
812.148	29018
812.29	29216
812.431	29231
812.573	29512
812.714	29402
812.855	29493
812.997	29737
813.138	29790
813.279	29809
813.421	29638
813.562	29509
813.703	29391
813.845	29239
813.986	29098
814.127	28885
814.268	28733
814.41	28881
814.551	28702
814.692	28850
814.833	28774
814.974	28736
815.115	28630
815.256	28675
815.397	28710
815.539	28656
815.68	28653
815.821	28371
815.962	28577
816.103	28603
816.244	28341
816.385	28367
816.526	28356
816.666	28223
816.807	28017
816.948	28207
817.089	28223
817.23	28059
817.371	28078
817.512	28139
817.653	28188
817.793	28067
817.934	28166
818.075	28036
818.216	28078
818.356	28234
818.497	27953
818.638	27793
818.778	27808
818.919	27937
819.06	27823
819.2	27953
819.341	28124
819.481	28040
819.622	28246
819.762	28470
819.903	28500
820.043	28386
820.184	28242
820.324	28196
820.465	28261
820.605	28185
820.746	28162
820.886	28166
821.026	28249
821.167	28181
821.307	28265
821.447	28128
821.588	27945
821.728	27922
821.868	27713
822.008	27572
822.149	27667
822.289	27534
822.429	27431
822.569	27146
822.709	27241
822.849	27024
822.99	27188
823.13	27104
823.27	27043
823.41	26933
823.55	26758
823.69	26899
823.83	27093
823.97	26746
824.11	26724
824.25	26655
824.389	26663
824.529	26773
824.669	26727
824.809	26982
824.949	26899
825.089	26845
825.228	26811
825.368	26598
825.508	26556
825.648	26739
825.787	26701
825.927	26571
826.067	26632
826.206	26629
826.346	26712
826.485	26648
826.625	26579
826.765	26678
826.904	26545
827.044	26324
827.183	26328
827.323	26328
827.462	26377
827.601	26427
827.741	26404
827.88	26351
828.02	26275
828.159	26400
828.298	26298
828.437	26343
828.577	26191
828.716	26446
828.855	26168
828.994	26039
829.134	25974
829.273	26058
829.412	26016
829.551	26043
829.69	26084
829.829	26001
829.968	26122
830.107	26142
830.246	26092
830.385	25955
830.524	25902
830.663	25845
830.802	25799
830.941	25628
831.08	25647
831.219	25788
831.357	25651
831.496	25776
831.635	25666
831.774	25506
831.913	25529
832.051	25453
832.19	25403
832.329	25457
832.467	25350
832.606	25316
832.744	25259
832.883	25278
833.022	25285
833.16	25232
833.299	25403
833.437	25255
833.576	25282
833.714	25316
833.852	25419
833.991	25422
834.129	25586
834.267	25502
834.406	25339
834.544	25426
834.682	25324
834.821	25270
834.959	25472
835.097	25320
835.235	25487
835.373	25392
835.511	25350
835.65	25282
835.788	25259
835.926	24951
836.064	25023
836.202	25080
836.34	25225
836.478	25304
836.615	25114
836.753	25095
836.891	25225
837.029	25225
837.167	25133
837.305	25015
837.443	25103
837.58	24928
837.718	25103
837.856	25053
837.993	25042
838.131	24996
838.269	24871
838.406	24985
838.544	24802
838.681	24585
838.819	24616
838.956	24437
839.094	24475
839.231	24544
839.369	24658
839.506	24913
839.643	24711
839.781	24532
839.918	24403
840.055	24384
840.193	24445
840.33	24566
840.467	24471
840.604	24346
840.742	24673
840.879	24296
841.016	24414
841.153	24285
841.29	24574
841.427	24369
841.564	24429
841.701	24452
841.838	24277
841.975	24190
842.112	24369
842.249	24235
842.385	24243
842.522	24323
842.659	24182
842.796	24095
842.933	24140
843.069	23946
843.206	24003
843.343	24174
843.479	24083
843.616	24095
843.752	23935
843.889	24011
844.025	24022
844.162	23798
844.298	23908
844.435	23897
844.571	23729
844.708	23885
844.844	24095
844.98	23969
845.117	24022
845.253	23878
845.389	23817
845.525	23737
845.661	23893
845.798	23661
845.934	23577
846.07	23672
846.206	23745
846.342	23726
846.478	23630
846.614	23318
846.75	23303
846.886	23303
847.022	23410
847.158	23467
847.294	23322
847.429	23398
847.565	23376
847.701	23505
847.837	23193
847.972	23075
848.108	23113
848.244	23269
848.379	22790
848.515	22980
848.65	22961
848.786	22816
848.921	22942
849.057	23117
849.192	23006
849.328	22911
849.463	22900
849.598	22778
849.734	22755
849.869	22782
850.004	22672
850.14	22710
850.275	22797
850.41	22519
850.545	22683
850.68	22706
850.815	22649
850.95	22702
851.085	22816
851.22	22877
851.355	22679
851.49	22725
851.625	22713
851.76	22744
851.895	22546
852.03	22660
852.165	22653
852.299	22744
852.434	22733
852.569	22656
852.703	22679
852.838	22725
852.973	22896
853.107	22641
853.242	22755
853.376	22607
853.511	22367
853.645	22474
853.78	22569
853.914	22615
854.048	22474
854.183	22478
854.317	22557
854.451	22713
854.585	22512
854.72	22512
854.854	22637
854.988	22500
855.122	22474
855.256	22280
855.39	22500
855.524	22565
855.658	22519
855.792	22497
855.926	22455
856.06	22546
856.194	22557
856.327	22599
856.461	22527
856.595	22618
856.729	22577
856.862	22615
856.996	22577
857.13	22542
857.263	22565
857.397	22618
857.53	22626
857.664	22596
857.797	22500
857.931	22645
858.064	22557
858.197	22599
858.331	22455
858.464	22455
858.597	22588
858.731	22462
858.864	22497
858.997	22478
859.13	22413
859.263	22531
859.396	22588
859.529	22508
859.662	22382
859.795	22470
859.928	22409
860.061	22618
860.194	22752
860.327	22538
860.46	22512
860.592	22645
860.725	22706
860.858	22599
860.99	22523
861.123	22470
861.256	22436
861.388	22660
861.521	23223
861.653	22409
861.786	22234
861.918	22280
862.05	22402
862.183	22405
862.315	22611
862.447	22516
862.58	22459
862.712	22150
862.844	22181
862.976	22230
863.108	22185
863.24	22554
863.372	22078
863.504	22287
863.636	22306
863.768	22284
863.9	22287
864.032	22090
864.164	22265
864.296	22272
864.428	22234
864.559	22333
864.691	22337
864.823	22246
864.954	22154
865.086	22173
865.217	22147
865.349	22070
865.48	22162
865.612	22063
865.743	22265
865.875	22154
866.006	22143
866.137	22086
866.269	22048
866.4	22070
866.531	22055
866.662	21876
866.793	22029
866.924	22070
867.055	22006
867.186	22044
867.317	21964
867.448	21937
867.579	21983
867.71	21949
867.841	21903
867.972	22036
868.103	21968
868.233	21975
868.364	22048
868.495	22067
868.625	22211
868.756	22402
868.886	22284
869.017	22272
869.147	22344
869.278	22428
869.408	22246
869.539	22215
869.669	22363
869.799	22226
869.929	22424
870.06	22344
870.19	22596
870.32	22615
870.45	22816
870.58	22683
870.71	22599
870.84	22805
870.97	22649
871.1	22508
871.23	22828
871.36	22869
871.489	22733
871.619	22919
871.749	22820
871.879	22881
872.008	22976
872.138	22729
872.267	22862
872.397	22584
872.526	22683
872.656	22744
872.785	22649
872.915	22854
873.044	23014
873.173	22759
873.303	22847
873.432	22847
873.561	22938
873.69	22869
873.819	22873
873.948	22968
874.077	22850
874.206	22862
874.335	22919
874.464	23018
874.593	23044
874.722	23140
874.851	23193
874.979	23109
875.108	23121
875.237	23052
875.365	22995
875.494	23010
875.623	23159
875.751	23052
875.88	23223
876.008	23330
876.136	23311
876.265	23463
876.393	23528
876.521	23558
876.65	23444
876.778	23391
876.906	23516
877.034	23345
877.162	23410
877.29	23356
877.418	23497
877.546	23436
877.674	23452
877.802	23467
877.93	23387
878.058	23349
878.185	23341
878.313	23410
878.441	23391
878.568	23258
878.696	23368
878.824	23349
878.951	23497
879.079	23539
879.206	23729
879.333	23627
879.461	23486
879.588	23501
879.715	23573
879.842	23634
879.97	23410
880.097	23299
880.224	23277
880.351	23212
880.478	23132
880.605	23273
880.732	23166
880.859	23421
880.986	23299
881.112	23421
881.239	23162
881.366	23094
881.493	22881
881.619	22828
881.746	22828
881.872	22816
881.999	22831
882.125	22691
882.252	22763
882.378	22729
882.505	22866
882.631	22569
882.757	22535
882.883	22622
883.01	22550
883.136	22459
883.262	22344
883.388	22352
883.514	22481
883.64	22421
883.766	22310
883.892	22207
884.018	22303
884.143	22428
884.269	22512
884.395	22086
884.52	22090
884.646	22166
884.772	22166
884.897	21964
885.023	22158
885.148	22185
885.274	22261
885.399	22124
885.524	22181
885.65	22166
885.775	22070
885.9	22048
886.025	22238
886.15	22196
886.275	22048
886.4	22002
886.525	22101
886.65	22101
886.775	22105
886.9	22215
887.025	22367
887.149	22029
887.274	21918
887.399	21915
887.523	21873
887.648	21705
887.773	21842
887.897	21892
888.021	21953
888.146	21774
888.27	22040
888.395	21987
888.519	21819
888.643	21884
888.767	21857
888.891	21747
889.015	21568
889.139	21656
889.263	21644
889.387	21766
889.511	21854
889.635	21766
889.759	21656
889.883	21736
890.006	21751
890.13	21743
890.254	21553
890.377	21553
890.501	21485
890.624	21477
890.748	21351
890.871	21173
890.995	21173
891.118	21112
891.241	21275
891.364	21351
891.488	21298
891.611	21310
891.734	21222
891.857	21302
891.98	21230
892.103	21272
892.226	21131
892.349	21150
892.471	21032
892.594	21123
892.717	21157
892.839	21211
892.962	21085
893.085	21154
893.207	20967
893.33	21013
893.452	20998
893.575	21184
893.697	21096
893.819	21245
893.941	21298
894.064	21142
894.186	20967
894.308	21028
894.43	21264
894.552	21184
894.674	21161
894.796	20925
894.918	21142
895.04	21131
895.161	21180
895.283	21291
895.405	21104
895.526	21180
895.648	21093
895.769	21047
895.891	21222
896.012	21207
896.134	20994
896.255	20982
896.376	21039
896.498	21138
896.619	21192
896.74	21085
896.861	21150
896.982	21428
897.103	21561
897.224	21405
897.345	21256
897.466	21207
897.587	21382
897.708	21450
897.828	21336
897.949	21195
898.07	21123
898.19	21230
898.311	21298
898.431	21195
898.552	21363
898.672	21222
898.792	21374
898.913	21279
899.033	21127
899.153	21062
899.273	20986
899.393	21001
899.513	21039
899.633	21024
899.753	21108
899.873	21039
899.993	21001
900.113	21024
900.232	20971
900.352	20998
900.472	20720
900.591	20811
900.711	20956
900.83	20815
900.95	20754
901.069	20823
901.189	20758
901.308	20381
901.427	20324
901.546	20366
901.665	20366
901.784	20347
901.904	20202
902.023	20202
902.141	19955
902.26	19856
902.379	19982
902.498	19826
902.617	19784
902.735	19864
902.854	19936
902.973	19879
903.091	19521
903.21	19510
903.328	19578
903.446	19510
903.565	19343
903.683	19206
903.801	19263
903.919	19308
904.038	19232
904.156	19076
904.274	19053
904.392	19061
904.51	19050
904.627	19114
904.745	19145
904.863	19091
904.981	18916
905.098	18760
905.216	18692
905.334	18768
905.451	18772
905.569	18703
905.686	18711
905.803	18745
905.921	18578
906.038	18635
906.155	18464
906.272	18403
906.389	18464
906.506	18209
906.623	18319
906.74	18334
906.857	18152
906.974	18140
907.091	18262
907.208	18346
907.324	18380
907.441	18190
907.557	18003
907.674	18057
907.79	17912
907.907	18015
908.023	17950
908.139	17992
908.256	17996
908.372	17802
908.488	17870
908.604	17764
908.72	17638
908.836	17668
908.952	17585
909.068	17832
909.184	17745
909.3	17691
909.415	17771
909.531	17672
909.647	17452
909.762	17520
909.878	17337
909.993	17463
910.108	17372
910.224	17433
910.339	17326
910.454	17254
910.57	17227
910.685	17208
910.8	17356
910.915	17341
911.03	17193
911.145	16961
911.259	16999
911.374	16980
911.489	16965
911.604	16828
911.718	16668
911.833	16759
911.947	16618
912.062	16653
912.176	16839
912.291	16759
912.405	16679
912.519	16972
912.633	16869
912.748	16919
912.862	16706
912.976	16512
913.09	16535
913.204	16558
913.318	16607
913.431	16672
913.545	16626
913.659	16611
913.772	16508
913.886	16329
914	16261
914.113	16375
914.226	16459
914.34	16398
914.453	16169
914.566	16337
914.68	16249
914.793	16223
914.906	16006
915.019	15876
915.132	15804
915.245	15846
915.358	15960
915.47	15854
915.583	15930
915.696	15884
915.809	15934
915.921	16097
916.034	15926
916.146	15762
916.259	15819
916.371	15816
916.483	15743
916.595	15720
916.708	15774
916.82	15724
916.932	15690
917.044	15591
917.156	15743
917.268	15485
917.38	15580
917.491	15485
917.603	15500
917.715	15534
917.826	15500
917.938	15492
918.049	15287
918.161	15561
918.272	15538
918.384	15587
918.495	15538
918.606	15325
918.717	15169
918.828	15283
918.939	15245
919.05	15279
919.161	15184
919.272	15074
919.383	15123
919.494	15344
919.604	15462
919.715	15260
919.826	15116
919.936	15176
920.047	15192
920.157	15218
920.267	15458
920.378	15222
920.488	15131
920.598	15313
920.708	15488
920.818	15317
920.928	15329
921.038	15507
921.148	15500
921.258	15085
921.368	15055
921.477	14963
921.587	14941
921.697	14792
921.806	14902
921.916	14838
922.025	14655
922.134	14541
922.244	14488
922.353	14507
922.462	14492
922.571	14328
922.68	14202
922.789	14301
922.898	14298
923.007	14092
923.116	14339
923.224	14172
923.333	14164
923.442	14111
923.55	13993
923.659	14046
923.767	14126
923.876	13967
923.984	14043
924.092	13898
924.201	13951
924.309	13974
924.417	13947
924.525	14001
924.633	13887
924.741	14556
924.849	13624
924.956	13852
925.064	13658
925.172	13506
925.279	13559
925.387	13624
925.494	13651
925.602	13776
925.709	13632
925.816	13495
925.924	13483
926.031	13571
926.138	13525
926.245	13468
926.352	13430
926.459	13552
926.566	13590
926.673	13392
926.779	13259
926.886	13362
926.993	13240
927.099	13190
927.206	13008
927.312	13076
927.419	13198
927.525	13171
927.631	13175
927.737	13019
927.843	12943
927.95	12844
928.056	12905
928.162	13023
928.267	12977
928.373	13609
928.479	13015
928.585	12757
928.69	12844
928.796	12894
928.901	12795
929.007	12692
929.112	12757
929.218	12753
929.323	12696
929.428	12528
929.533	12749
929.638	12589
929.743	12509
929.848	12707
929.953	12585
930.058	12498
930.163	12403
930.267	12311
930.372	12521
930.477	12315
930.581	12509
930.685	12395
930.79	12178
930.894	12190
930.998	12194
931.103	12353
931.207	11912
931.311	11946
931.415	11714
931.519	11653
931.623	11501
