Data from test_V78500241_3652.txt Node
Date: Fri Mar 25 16:07:06 CST 2022
User: usil
Spectrometer: V785-0024
Trigger mode: 0
Integration Time (sec): 4.000000E-1
Scans to average: 1
Nonlinearity correction enabled: false
Boxcar width: 0
Storing dark spectrum: false
XAxis mode: Wavelengths
Number of Pixels in Spectrum: 1024
>>>>>Begin Spectral Data<<<<<
801.071	28531
801.214	28398
801.356	28147
801.499	27945
801.641	28063
801.783	28078
801.926	28246
802.068	27857
802.211	27892
802.353	27831
802.496	27732
802.638	27698
802.78	27671
802.923	27439
803.065	27557
803.208	27599
803.35	27781
803.492	27899
803.635	27804
803.777	27743
803.919	27861
804.061	28230
804.204	28025
804.346	27869
804.488	27808
804.63	27884
804.773	27690
804.915	27831
805.057	27964
805.199	27975
805.341	27888
805.483	27994
805.626	28002
805.768	27945
805.91	28078
806.052	28135
806.194	27975
806.336	28223
806.478	28147
806.62	27937
806.762	28139
806.904	28394
807.046	28645
807.188	28443
807.33	28413
807.472	28668
807.614	28531
807.756	28554
807.898	28337
808.04	28310
808.182	28310
808.324	28447
808.465	28409
808.607	28763
808.749	28660
808.891	28752
809.033	28934
809.174	28858
809.316	28790
809.458	28706
809.6	28664
809.741	28778
809.883	28919
810.025	29033
810.166	29033
810.308	29025
810.45	29010
810.591	28854
810.733	28649
810.875	28717
811.016	28721
811.158	28653
811.299	28869
811.441	28858
811.582	28881
811.724	28755
811.865	28702
812.007	28805
812.148	28862
812.29	28740
812.431	28976
812.573	29155
812.714	29284
812.855	29288
812.997	29524
813.138	29455
813.279	29493
813.421	29436
813.562	29143
813.703	28995
813.845	29083
813.986	28649
814.127	28611
814.268	28405
814.41	28390
814.551	28451
814.692	28512
814.833	28306
814.974	28466
815.115	28417
815.256	28344
815.397	28371
815.539	28261
815.68	28196
815.821	28322
815.962	28284
816.103	28303
816.244	28105
816.385	28090
816.526	28017
816.666	27804
816.807	27808
816.948	27850
817.089	27804
817.23	27778
817.371	27751
817.512	27789
817.653	27793
817.793	27618
817.934	27679
818.075	27941
818.216	27797
818.356	27732
818.497	27572
818.638	27431
818.778	27523
818.919	27572
819.06	27652
819.2	27698
819.341	27743
819.481	27755
819.622	27903
819.762	28109
819.903	28074
820.043	27918
820.184	27895
820.324	27968
820.465	27998
820.605	28010
820.746	27934
820.886	27816
821.026	27846
821.167	27770
821.307	27854
821.447	27755
821.588	27660
821.728	27549
821.868	27329
822.008	27310
822.149	27169
822.289	27252
822.429	26967
822.569	26971
822.709	26971
822.849	26708
822.99	26750
823.13	26826
823.27	26754
823.41	26651
823.55	26450
823.69	26609
823.83	26617
823.97	26476
824.11	26362
824.25	26305
824.389	26442
824.529	26488
824.669	26377
824.809	26434
824.949	26499
825.089	26400
825.228	26404
825.368	26195
825.508	26294
825.648	26332
825.787	26259
825.927	26343
826.067	26176
826.206	26180
826.346	26419
826.485	26298
826.625	26119
826.765	26393
826.904	26389
827.044	26119
827.183	25982
827.323	25951
827.462	26206
827.601	25963
827.741	26008
827.88	26008
828.02	25814
828.159	25928
828.298	26115
828.437	26054
828.577	25818
828.716	26084
828.855	25830
828.994	25666
829.134	25677
829.273	25772
829.412	25620
829.551	25662
829.69	25616
829.829	25704
829.968	25712
830.107	25715
830.246	25795
830.385	25655
830.524	25563
830.663	25590
830.802	25449
830.941	25236
831.08	25392
831.219	25362
831.357	25327
831.496	25479
831.635	25362
831.774	25244
831.913	25206
832.051	25080
832.19	25236
832.329	25027
832.467	24943
832.606	24806
832.744	24981
832.883	25046
833.022	24958
833.16	24996
833.299	25103
833.437	24897
833.576	25103
833.714	25171
833.852	25164
833.991	25027
834.129	25198
834.267	25103
834.406	24977
834.544	25065
834.682	25031
834.821	24928
834.959	25202
835.097	25000
835.235	24985
835.373	24973
835.511	25057
835.65	24837
835.788	24973
835.926	24726
836.064	24582
836.202	24677
836.34	24973
836.478	24848
836.615	24825
836.753	24840
836.891	24840
837.029	24741
837.167	24817
837.305	24825
837.443	24608
837.58	24703
837.718	24745
837.856	24753
837.993	24658
838.131	24650
838.269	24612
838.406	24593
838.544	24536
838.681	24433
838.819	24330
838.956	24171
839.094	24251
839.231	24140
839.369	24232
839.506	24528
839.643	24475
839.781	24190
839.918	24159
840.055	24213
840.193	24110
840.33	24125
840.467	23977
840.604	24072
840.742	24315
840.879	23980
841.016	24011
841.153	23882
841.29	24079
841.427	24018
841.564	24144
841.701	23996
841.838	23931
841.975	23992
842.112	23878
842.249	24015
842.385	23836
842.522	24171
842.659	23931
842.796	23714
842.933	23916
843.069	23752
843.206	23809
843.343	23950
843.479	23790
843.616	23901
843.752	23505
843.889	23516
844.025	23722
844.162	23672
844.298	23596
844.435	23554
844.571	23543
844.708	23657
844.844	23767
844.98	23661
845.117	23657
845.253	23497
845.389	23467
845.525	23486
845.661	23391
845.798	23349
845.934	23429
846.07	23296
846.206	23452
846.342	23429
846.478	23360
846.614	23147
846.75	22980
846.886	23113
847.022	23067
847.158	23117
847.294	22987
847.429	23010
847.565	23067
847.701	23296
847.837	22847
847.972	22744
848.108	22915
848.244	22831
848.379	22759
848.515	22622
848.65	22500
848.786	22580
848.921	22660
849.057	22721
849.192	22683
849.328	22607
849.463	22713
849.598	22611
849.734	22485
849.869	22424
850.004	22451
850.14	22554
850.275	22413
850.41	22428
850.545	22394
850.68	22348
850.815	22470
850.95	22398
851.085	22588
851.22	22489
851.355	22535
851.49	22314
851.625	22424
851.76	22344
851.895	22181
852.03	22382
852.165	22436
852.299	22333
852.434	22413
852.569	22550
852.703	22474
852.838	22417
852.973	22508
853.107	22561
853.242	22333
853.376	22181
853.511	22105
853.645	22128
853.78	22265
853.914	22211
854.048	22303
854.183	22086
854.317	22253
854.451	22295
854.585	22226
854.72	22223
854.854	22306
854.988	22147
855.122	22246
855.256	22135
855.39	22162
855.524	22322
855.658	22181
855.792	22314
855.926	22124
856.06	22257
856.194	22261
856.327	22204
856.461	22234
856.595	22188
856.729	22150
856.862	22344
856.996	22230
857.13	22246
857.263	22363
857.397	22242
857.53	22131
857.664	22257
857.797	22291
857.931	22375
858.064	22329
858.197	22337
858.331	22234
858.464	22177
858.597	22230
858.731	22169
858.864	22120
858.997	22105
859.13	22143
859.263	22295
859.396	22295
859.529	22150
859.662	22150
859.795	22158
859.928	22139
860.061	22462
860.194	22424
860.327	22303
860.46	22280
860.592	22219
860.725	22341
860.858	22325
860.99	22196
861.123	22090
861.256	22192
861.388	22234
861.521	22915
861.653	22051
861.786	22017
861.918	21987
862.05	22090
862.183	22116
862.315	22192
862.447	22253
862.58	22169
862.712	21823
862.844	21907
862.976	22013
863.108	21991
863.24	22417
863.372	21762
863.504	21926
863.636	21888
863.768	22006
863.9	22040
864.032	21903
864.164	22017
864.296	21911
864.428	22105
864.559	22025
864.691	21918
864.823	21892
864.954	21972
865.086	21915
865.217	21854
865.349	21964
865.48	21903
865.612	21850
865.743	21888
865.875	21789
866.006	21705
866.137	21804
866.269	21759
866.4	21698
866.531	21781
866.662	21622
866.793	21663
866.924	21778
867.055	21800
867.186	21751
867.317	21747
867.448	21507
867.579	21705
867.71	21648
867.841	21660
867.972	21778
868.103	21515
868.233	21720
868.364	21873
868.495	21880
868.625	21972
868.756	22177
868.886	21972
869.017	21869
869.147	22078
869.278	22177
869.408	22021
869.539	22082
869.669	22070
869.799	22051
869.929	22055
870.06	22070
870.19	22238
870.32	22284
870.45	22249
870.58	22344
870.71	22424
870.84	22561
870.97	22432
871.1	22512
871.23	22516
871.36	22569
871.489	22523
871.619	22455
871.749	22603
871.879	22679
872.008	22653
872.138	22584
872.267	22630
872.397	22489
872.526	22421
872.656	22409
872.785	22356
872.915	22557
873.044	22740
873.173	22615
873.303	22611
873.432	22649
873.561	22736
873.69	22641
873.819	22645
873.948	22713
874.077	22592
874.206	22508
874.335	22664
874.464	22729
874.593	22896
874.722	22778
874.851	22896
874.979	22976
875.108	22805
875.237	22759
875.365	22694
875.494	22778
875.623	22820
875.751	22664
875.88	22911
876.008	22877
876.136	23079
876.265	23204
876.393	23395
876.521	23254
876.65	23303
876.778	23208
876.906	23147
877.034	23124
877.162	23155
877.29	23208
877.418	23075
877.546	23242
877.674	23109
877.802	23193
877.93	23189
878.058	23121
878.185	23014
878.313	23075
878.441	23147
878.568	22919
878.696	23067
878.824	23151
878.951	23235
879.079	23395
879.206	23551
879.333	23288
879.461	23200
879.588	23307
879.715	23284
879.842	23459
879.97	23292
880.097	22961
880.224	23018
880.351	22957
880.478	22957
880.605	22987
880.732	23029
880.859	23090
880.986	22995
881.112	23079
881.239	22885
881.366	22740
881.493	22618
881.619	22504
881.746	22546
881.872	22577
881.999	22580
882.125	22554
882.252	22424
882.378	22546
882.505	22675
882.631	22371
882.757	22253
882.883	22291
883.01	22287
883.136	22109
883.262	22116
883.388	22196
883.514	22223
883.64	22257
883.766	22082
883.892	22090
884.018	21994
884.143	22067
884.269	22333
884.395	21861
884.52	21911
884.646	21842
884.772	21808
884.897	21774
885.023	21838
885.148	21892
885.274	21918
885.399	21880
885.524	21759
885.65	21892
885.775	21850
885.9	21720
886.025	21964
886.15	21884
886.275	21618
886.4	21766
886.525	21816
886.65	21808
886.775	21701
886.9	21975
887.025	21972
887.149	21812
887.274	21595
887.399	21583
887.523	21713
887.648	21542
887.773	21519
887.897	21652
888.021	21751
888.146	21576
888.27	21720
888.395	21701
888.519	21652
888.643	21682
888.767	21686
888.891	21564
889.015	21568
889.139	21378
889.263	21382
889.387	21507
889.511	21736
889.635	21637
889.759	21393
889.883	21389
890.006	21443
890.13	21439
890.254	21405
890.377	21378
890.501	21195
890.624	21188
890.748	21127
890.871	20956
890.995	20887
891.118	20868
891.241	20960
891.364	20880
891.488	21173
891.611	20933
891.734	21039
891.857	20914
891.98	21009
892.103	21066
892.226	21020
892.349	20941
892.471	20830
892.594	20906
892.717	20944
892.839	20838
892.962	20838
893.085	21001
893.207	20845
893.33	20773
893.452	20788
893.575	20971
893.697	20765
893.819	21066
893.941	21039
894.064	21024
894.186	20807
894.308	20731
894.43	21081
894.552	21028
894.674	20975
894.796	20796
894.918	20762
895.04	20830
895.161	20887
895.283	20807
895.405	20868
895.526	20849
895.648	20880
895.769	20895
895.891	20902
896.012	20906
896.134	21043
896.255	20765
896.376	20815
896.498	20819
896.619	20944
896.74	20838
896.861	20785
896.982	21154
897.103	21348
897.224	21005
897.345	21135
897.466	21020
897.587	21157
897.708	21214
897.828	21039
897.949	21036
898.07	20807
898.19	20876
898.311	21074
898.431	20941
898.552	21062
898.672	21161
898.792	21043
898.913	21077
899.033	20994
899.153	20838
899.273	20800
899.393	20830
899.513	20781
899.633	20842
899.753	20758
899.873	20678
899.993	20876
900.113	20788
900.232	20739
900.352	20651
900.472	20579
900.591	20667
900.711	20587
900.83	20526
900.95	20735
901.069	20689
901.189	20400
901.308	20233
901.427	20081
901.546	20263
901.665	20183
901.784	20107
901.904	19955
902.023	19944
902.141	19624
902.26	19765
902.379	19727
902.498	19681
902.617	19674
902.735	19605
902.854	19681
902.973	19453
903.091	19289
903.21	19308
903.328	19369
903.446	19308
903.565	19137
903.683	19164
903.801	19053
903.919	19118
904.038	19168
904.156	18916
904.274	18913
904.392	18825
904.51	18897
904.627	18810
904.745	18932
904.863	18806
904.981	18707
905.098	18471
905.216	18452
905.334	18582
905.451	18574
905.569	18604
905.686	18623
905.803	18532
905.921	18342
906.038	18315
906.155	18262
906.272	18235
906.389	18197
906.506	18098
906.623	18038
906.74	18148
906.857	17988
906.974	18064
907.091	18121
907.208	18220
907.324	18076
907.441	17901
907.557	17764
907.674	17687
907.79	17699
907.907	17817
908.023	17672
908.139	17802
908.256	17737
908.372	17707
908.488	17630
908.604	17524
908.72	17581
908.836	17570
908.952	17524
909.068	17474
909.184	17627
909.3	17490
909.415	17509
909.531	17440
909.647	17220
909.762	17151
909.878	17189
909.993	17242
910.108	17147
910.224	17105
910.339	17162
910.454	17025
910.57	16991
910.685	16847
910.8	17162
910.915	17181
911.03	16908
911.145	16873
911.259	16717
911.374	16733
911.489	16710
911.604	16656
911.718	16546
911.833	16508
911.947	16436
912.062	16333
912.176	16497
912.291	16611
912.405	16432
912.519	16736
912.633	16611
912.748	16554
912.862	16421
912.976	16337
913.09	16230
913.204	16272
913.318	16299
913.431	16405
913.545	16443
913.659	16363
913.772	16265
913.886	16116
914	16105
914.113	16177
914.226	16280
914.34	16192
914.453	15945
914.566	16223
914.68	15983
914.793	15941
914.906	15774
915.019	15766
915.132	15644
915.245	15705
915.358	15682
915.47	15686
915.583	15656
915.696	15713
915.809	15819
915.921	15850
916.034	15671
916.146	15675
916.259	15660
916.371	15663
916.483	15610
916.595	15606
916.708	15584
916.82	15542
916.932	15386
917.044	15530
917.156	15389
917.268	15310
917.38	15389
917.491	15348
917.603	15306
917.715	15424
917.826	15359
917.938	15249
918.049	15192
918.161	15237
918.272	15462
918.384	15401
918.495	15226
918.606	15062
918.717	14941
918.828	15028
918.939	15154
919.05	15009
919.161	15074
919.272	14963
919.383	14910
919.494	15135
919.604	15233
919.715	15013
919.826	15013
919.936	14944
920.047	15138
920.157	15020
920.267	15188
920.378	15085
920.488	15005
920.598	15119
920.708	15241
920.818	15169
920.928	15081
921.038	15214
921.148	15275
921.258	14952
921.368	14910
921.477	14743
921.587	14739
921.697	14575
921.806	14762
921.916	14632
922.025	14427
922.134	14286
922.244	14404
922.353	14412
922.462	14362
922.571	14210
922.68	14123
922.789	14016
922.898	14073
923.007	13906
923.116	14096
923.224	14107
923.333	13955
923.442	13997
923.55	13841
923.659	13898
923.767	13887
923.876	13814
923.984	13852
924.092	13693
924.201	13738
924.309	13662
924.417	13780
924.525	13708
924.633	13651
924.741	14636
924.849	13537
924.956	13590
925.064	13468
925.172	13384
925.279	13365
925.387	13468
925.494	13384
925.602	13582
925.709	13407
925.816	13354
925.924	13335
926.031	13388
926.138	13301
926.245	13308
926.352	13232
926.459	13453
926.566	13369
926.673	13324
926.779	13091
926.886	13152
926.993	12924
927.099	12996
927.206	12932
927.312	12871
927.419	13084
927.525	12924
927.631	12977
927.737	12863
927.843	12715
927.95	12677
928.056	12745
928.162	12696
928.267	12844
928.373	13468
928.479	12821
928.585	12620
928.69	12722
928.796	12791
928.901	12597
929.007	12452
929.112	12589
929.218	12532
929.323	12437
929.428	12494
929.533	12650
929.638	12380
929.743	12422
929.848	12483
929.953	12388
930.058	12224
930.163	12068
930.267	12076
930.372	12315
930.477	12155
930.581	12334
930.685	12262
930.79	12038
930.894	12034
930.998	11996
931.103	12136
931.207	11767
931.311	11699
931.415	11649
931.519	11448
931.623	11414
