Data from test_V78500241_3447.txt Node
Date: Fri Mar 25 16:05:40 CST 2022
User: usil
Spectrometer: V785-0024
Trigger mode: 0
Integration Time (sec): 4.000000E-1
Scans to average: 1
Nonlinearity correction enabled: false
Boxcar width: 0
Storing dark spectrum: false
XAxis mode: Wavelengths
Number of Pixels in Spectrum: 1024
>>>>>Begin Spectral Data<<<<<
801.071	28820
801.214	28767
801.356	28489
801.499	28538
801.641	28535
801.783	28204
801.926	28538
802.068	28379
802.211	28485
802.353	28306
802.496	28109
802.638	28120
802.78	28086
802.923	28105
803.065	27968
803.208	28139
803.35	28051
803.492	28257
803.635	28348
803.777	28162
803.919	28325
804.061	28672
804.204	28462
804.346	28211
804.488	28314
804.63	28337
804.773	28238
804.915	28451
805.057	28531
805.199	28348
805.341	28386
805.483	28626
805.626	28512
805.768	28470
805.91	28588
806.052	28538
806.194	28417
806.336	28736
806.478	28443
806.62	28489
806.762	28645
806.904	28888
807.046	29121
807.188	28972
807.33	28957
807.472	29052
807.614	28873
807.756	28885
807.898	28854
808.04	28721
808.182	28725
808.324	28854
808.465	28824
808.607	29258
808.749	29307
808.891	29288
809.033	29322
809.174	29185
809.316	29265
809.458	29197
809.6	29174
809.741	29280
809.883	29337
810.025	29535
810.166	29467
810.308	29421
810.45	29562
810.591	29269
810.733	29330
810.875	29242
811.016	29071
811.158	29231
811.299	29261
811.441	29398
811.582	29391
811.724	29330
811.865	29098
812.007	29296
812.148	29277
812.29	29383
812.431	29558
812.573	29524
812.714	29703
812.855	29821
812.997	29878
813.138	29939
813.279	29897
813.421	29760
813.562	29668
813.703	29581
813.845	29246
813.986	29128
814.127	28953
814.268	28930
814.41	28957
814.551	28953
814.692	29029
814.833	28816
814.974	28858
815.115	28980
815.256	28805
815.397	28850
815.539	28755
815.68	28653
815.821	28577
815.962	28793
816.103	28847
816.244	28497
816.385	28470
816.526	28417
816.666	28432
816.807	28128
816.948	28230
817.089	28295
817.23	28367
817.371	28428
817.512	28086
817.653	28223
817.793	28257
817.934	28246
818.075	28204
818.216	28242
818.356	28131
818.497	28196
818.638	27945
818.778	28017
818.919	28067
819.06	28162
819.2	28090
819.341	28314
819.481	28226
819.622	28451
819.762	28713
819.903	28455
820.043	28428
820.184	28478
820.324	28466
820.465	28428
820.605	28417
820.746	28246
820.886	28356
821.026	28379
821.167	28253
821.307	28440
821.447	28249
821.588	28200
821.728	28188
821.868	28021
822.008	27816
822.149	27835
822.289	27641
822.429	27534
822.569	27397
822.709	27214
822.849	27412
822.99	27401
823.13	27150
823.27	27294
823.41	27211
823.55	27009
823.69	27123
823.83	26979
823.97	27009
824.11	26872
824.25	26758
824.389	26979
824.529	27017
824.669	26842
824.809	27047
824.949	26914
825.089	27020
825.228	27089
825.368	26568
825.508	26754
825.648	26845
825.787	26807
825.927	26804
826.067	26693
826.206	26693
826.346	26979
826.485	26952
826.625	26834
826.765	26830
826.904	26743
827.044	26518
827.183	26590
827.323	26412
827.462	26476
827.601	26632
827.741	26362
827.88	26651
828.02	26476
828.159	26469
828.298	26511
828.437	26492
828.577	26571
828.716	26648
828.855	26339
828.994	26248
829.134	26115
829.273	26225
829.412	26084
829.551	26142
829.69	26107
829.829	26267
829.968	26244
830.107	26282
830.246	26237
830.385	26229
830.524	26130
830.663	25970
830.802	26046
830.941	25814
831.08	25780
831.219	25925
831.357	25871
831.496	26050
831.635	25814
831.774	25757
831.913	25746
832.051	25552
832.19	25647
832.329	25605
832.467	25586
832.606	25445
832.744	25426
832.883	25479
833.022	25464
833.16	25449
833.299	25571
833.437	25400
833.576	25445
833.714	25472
833.852	25544
833.991	25537
834.129	25635
834.267	25647
834.406	25453
834.544	25521
834.682	25533
834.821	25605
834.959	25712
835.097	25518
835.235	25529
835.373	25525
835.511	25518
835.65	25324
835.788	25236
835.926	25312
836.064	25266
836.202	25091
836.34	25285
836.478	25449
836.615	25244
836.753	25388
836.891	25487
837.029	25327
837.167	25343
837.305	25247
837.443	25278
837.58	25103
837.718	25236
837.856	25183
837.993	25069
838.131	25187
838.269	25069
838.406	25084
838.544	24871
838.681	24833
838.819	24928
838.956	24536
839.094	24696
839.231	24654
839.369	24867
839.506	25031
839.643	24867
839.781	24730
839.918	24547
840.055	24585
840.193	24639
840.33	24536
840.467	24525
840.604	24578
840.742	24749
840.879	24429
841.016	24414
841.153	24422
841.29	24593
841.427	24513
841.564	24673
841.701	24547
841.838	24521
841.975	24471
842.112	24437
842.249	24426
842.385	24224
842.522	24483
842.659	24243
842.796	24304
842.933	24342
843.069	24254
843.206	24296
843.343	24475
843.479	24304
843.616	24300
843.752	24064
843.889	24117
844.025	24251
844.162	24155
844.298	24136
844.435	24079
844.571	24026
844.708	24129
844.844	24232
844.98	24194
845.117	24315
845.253	24098
845.389	23992
845.525	23939
845.661	24011
845.798	23939
845.934	23832
846.07	23741
846.206	23897
846.342	23939
846.478	23840
846.614	23608
846.75	23471
846.886	23482
847.022	23596
847.158	23573
847.294	23474
847.429	23505
847.565	23486
847.701	23737
847.837	23292
847.972	23235
848.108	23311
848.244	23311
848.379	23223
848.515	23140
848.65	23151
848.786	23083
848.921	23155
849.057	23258
849.192	23212
849.328	23124
849.463	23022
849.598	23003
849.734	23010
849.869	22942
850.004	22858
850.14	22889
850.275	23014
850.41	22881
850.545	22771
850.68	22797
850.815	22820
850.95	22843
851.085	23064
851.22	22953
851.355	22892
851.49	22820
851.625	22892
851.76	22919
851.895	22793
852.03	22793
852.165	22930
852.299	22824
852.434	22904
852.569	22900
852.703	22984
852.838	22927
852.973	22965
853.107	22957
853.242	22858
853.376	22729
853.511	22584
853.645	22717
853.78	22869
853.914	22763
854.048	22645
854.183	22713
854.317	22801
854.451	22946
854.585	22611
854.72	22733
854.854	22790
854.988	22607
855.122	22656
855.256	22683
855.39	22721
855.524	22790
855.658	22763
855.792	22740
855.926	22713
856.06	22869
856.194	22809
856.327	22592
856.461	22672
856.595	22599
856.729	22668
856.862	22782
856.996	22843
857.13	22793
857.263	22763
857.397	22824
857.53	22649
857.664	22733
857.797	22828
857.931	22767
858.064	22603
858.197	22828
858.331	22812
858.464	22668
858.597	22687
858.731	22706
858.864	22767
858.997	22653
859.13	22679
859.263	22691
859.396	22869
859.529	22618
859.662	22649
859.795	22683
859.928	22713
860.061	22767
860.194	22984
860.327	22771
860.46	22786
860.592	22812
860.725	22862
860.858	22869
860.99	22740
861.123	22554
861.256	22755
861.388	22694
861.521	23341
861.653	22618
861.786	22462
861.918	22497
862.05	22596
862.183	22675
862.315	22618
862.447	22649
862.58	22599
862.712	22447
862.844	22417
862.976	22466
863.108	22569
863.24	22740
863.372	22223
863.504	22478
863.636	22500
863.768	22447
863.9	22436
864.032	22356
864.164	22287
864.296	22432
864.428	22592
864.559	22443
864.691	22569
864.823	22371
864.954	22538
865.086	22379
865.217	22284
865.349	22249
865.48	22257
865.612	22421
865.743	22375
865.875	22413
866.006	22226
866.137	22325
866.269	22223
866.4	22299
866.531	22306
866.662	22154
866.793	22261
866.924	22329
867.055	22204
867.186	22154
867.317	22154
867.448	22166
867.579	22109
867.71	22070
867.841	22116
867.972	22185
868.103	22158
868.233	22238
868.364	22333
868.495	22272
868.625	22489
868.756	22615
868.886	22329
869.017	22424
869.147	22626
869.278	22592
869.408	22424
869.539	22440
869.669	22516
869.799	22565
869.929	22626
870.06	22535
870.19	22778
870.32	22736
870.45	22790
870.58	22725
870.71	22999
870.84	22984
870.97	22843
871.1	22919
871.23	22961
871.36	23006
871.489	22942
871.619	22995
871.749	23113
871.879	23124
872.008	23083
872.138	23022
872.267	23170
872.397	22961
872.526	22850
872.656	22866
872.785	22824
872.915	23018
873.044	23117
873.173	23033
873.303	23124
873.432	23239
873.561	23079
873.69	23189
873.819	23048
873.948	23117
874.077	23181
874.206	23189
874.335	23098
874.464	23212
874.593	23402
874.722	23181
874.851	23349
874.979	23402
875.108	23337
875.237	23124
875.365	23200
875.494	23280
875.623	23387
875.751	23296
875.88	23292
876.008	23391
876.136	23554
876.265	23691
876.393	23798
876.521	23752
876.65	23813
876.778	23779
876.906	23619
877.034	23649
877.162	23691
877.29	23665
877.418	23596
877.546	23718
877.674	23501
877.802	23691
877.93	23638
878.058	23539
878.185	23444
878.313	23623
878.441	23676
878.568	23589
878.696	23604
878.824	23676
878.951	23627
879.079	23790
879.206	24022
879.333	23733
879.461	23836
879.588	23733
879.715	23741
879.842	23923
879.97	23764
880.097	23478
880.224	23482
880.351	23474
880.478	23501
880.605	23539
880.732	23356
880.859	23615
880.986	23402
881.112	23501
881.239	23318
881.366	23197
881.493	23083
881.619	23067
881.746	23033
881.872	22942
881.999	22999
882.125	22987
882.252	23041
882.378	23075
882.505	23113
882.631	22892
882.757	22634
882.883	22824
883.01	22755
883.136	22611
883.262	22546
883.388	22512
883.514	22725
883.64	22778
883.766	22508
883.892	22497
884.018	22508
884.143	22584
884.269	22733
884.395	22253
884.52	22223
884.646	22386
884.772	22402
884.897	22230
885.023	22253
885.148	22394
885.274	22493
885.399	22500
885.524	22234
885.65	22337
885.775	22268
885.9	22341
886.025	22474
886.15	22348
886.275	22276
886.4	22291
886.525	22128
886.65	22215
886.775	22200
886.9	22500
887.025	22470
887.149	22135
887.274	22147
887.399	22105
887.523	22143
887.648	21979
887.773	21941
887.897	22143
888.021	22078
888.146	22120
888.27	22074
888.395	22230
888.519	22040
888.643	22135
888.767	22059
888.891	22067
889.015	21808
889.139	21846
889.263	21804
889.387	21934
889.511	22093
889.635	21915
889.759	21728
889.883	21804
890.006	21869
890.13	22055
890.254	21903
890.377	21728
890.501	21595
890.624	21568
890.748	21644
890.871	21530
890.995	21298
891.118	21313
891.241	21458
891.364	21412
891.488	21553
891.611	21412
891.734	21351
891.857	21416
891.98	21431
892.103	21507
892.226	21523
892.349	21397
892.471	21116
892.594	21279
892.717	21313
892.839	21188
892.962	21310
893.085	21351
893.207	21237
893.33	21260
893.452	21233
893.575	21226
893.697	21317
893.819	21447
893.941	21431
894.064	21401
894.186	21233
894.308	21298
894.43	21420
894.552	21332
894.674	21275
894.796	21184
894.918	21100
895.04	21370
895.161	21226
895.283	21199
895.405	21150
895.526	21363
895.648	21298
895.769	21275
895.891	21408
896.012	21169
896.134	21291
896.255	21359
896.376	21249
896.498	21279
896.619	21298
896.74	21252
896.861	21226
896.982	21561
897.103	21641
897.224	21485
897.345	21310
897.466	21439
897.587	21462
897.708	21576
897.828	21462
897.949	21408
898.07	21344
898.19	21412
898.311	21545
898.431	21233
898.552	21447
898.672	21599
898.792	21549
898.913	21488
899.033	21249
899.153	21313
899.273	21039
899.393	21184
899.513	21199
899.633	21074
899.753	21252
899.873	21066
899.993	21214
900.113	21146
900.232	21154
900.352	21108
900.472	21013
900.591	20807
900.711	20994
900.83	20834
900.95	20998
901.069	21051
901.189	20746
901.308	20579
901.427	20362
901.546	20556
901.665	20514
901.784	20484
901.904	20404
902.023	20267
902.141	20107
902.26	20031
902.379	20046
902.498	20008
902.617	20027
902.735	20134
902.854	19967
902.973	20039
903.091	19784
903.21	19594
903.328	19788
903.446	19537
903.565	19426
903.683	19415
903.801	19384
903.919	19415
904.038	19476
904.156	19270
904.274	19293
904.392	19255
904.51	19168
904.627	19152
904.745	19209
904.863	19221
904.981	19084
905.098	18954
905.216	18928
905.334	18943
905.451	18947
905.569	18916
905.686	18894
905.803	18844
905.921	18711
906.038	18753
906.155	18734
906.272	18528
906.389	18506
906.506	18471
906.623	18384
906.74	18380
906.857	18285
906.974	18372
907.091	18445
907.208	18479
907.324	18525
907.441	18384
907.557	18163
907.674	18144
907.79	18072
907.907	18030
908.023	18148
908.139	18125
908.256	18155
908.372	18011
908.488	18034
908.604	17882
908.72	17790
908.836	17893
908.952	17756
909.068	17836
909.184	17927
909.3	17843
909.415	17878
909.531	17783
909.647	17672
909.762	17493
909.878	17444
909.993	17520
910.108	17406
910.224	17421
910.339	17482
910.454	17490
910.57	17315
910.685	17265
910.8	17661
910.915	17539
911.03	17315
911.145	17197
911.259	17170
911.374	17071
911.489	17010
911.604	16980
911.718	16752
911.833	16744
911.947	16774
912.062	16668
912.176	16771
912.291	16915
912.405	16908
912.519	17105
912.633	17060
912.748	16767
912.862	16824
912.976	16577
913.09	16512
913.204	16580
913.318	16615
913.431	16786
913.545	16736
913.659	16603
913.772	16615
913.886	16440
914	16432
914.113	16603
914.226	16516
914.34	16459
914.453	16318
914.566	16470
914.68	16348
914.793	16272
914.906	16154
915.019	15926
915.132	15926
915.245	16029
915.358	15998
915.47	16029
915.583	15964
915.696	16078
915.809	16131
915.921	16120
916.034	15953
916.146	15873
916.259	15854
916.371	15960
916.483	15949
916.595	15762
916.708	15812
916.82	15812
916.932	15770
917.044	15842
917.156	15766
917.268	15652
917.38	15652
917.491	15637
917.603	15542
917.715	15679
917.826	15743
917.938	15622
918.049	15389
918.161	15564
918.272	15743
918.384	15663
918.495	15614
918.606	15428
918.717	15359
918.828	15458
918.939	15382
919.05	15268
919.161	15302
919.272	15055
919.383	15192
919.494	15454
919.604	15568
919.715	15340
919.826	15268
919.936	15241
920.047	15424
920.157	15268
920.267	15477
920.378	15275
920.488	15325
920.598	15447
920.708	15584
920.818	15477
920.928	15462
921.038	15648
921.148	15572
921.258	15378
921.368	15283
921.477	15169
921.587	14948
921.697	14918
921.806	15066
921.916	14902
922.025	14785
922.134	14785
922.244	14819
922.353	14777
922.462	14667
922.571	14552
922.68	14423
922.789	14362
922.898	14431
923.007	14199
923.116	14347
923.224	14343
923.333	14377
923.442	14199
923.55	14176
923.659	14145
923.767	14328
923.876	14084
923.984	14145
924.092	14065
924.201	14134
924.309	14096
924.417	14073
924.525	13940
924.633	13967
924.741	14861
924.849	13814
924.956	13940
925.064	13833
925.172	13658
925.279	13700
925.387	13860
925.494	13723
925.602	13772
925.709	13864
925.816	13624
925.924	13727
926.031	13715
926.138	13723
926.245	13655
926.352	13502
926.459	13636
926.566	13639
926.673	13571
926.779	13525
926.886	13457
926.993	13312
927.099	13263
927.206	13209
927.312	13122
927.419	13335
927.525	13152
927.631	13236
927.737	13118
927.843	13099
927.95	12977
928.056	13053
928.162	13168
928.267	13118
928.373	13746
928.479	13088
928.585	12935
928.69	12943
928.796	13057
928.901	12905
929.007	12787
929.112	12932
929.218	12856
929.323	12840
929.428	12844
929.533	12871
929.638	12764
929.743	12650
929.848	12802
929.953	12662
930.058	12696
930.163	12437
930.267	12437
930.372	12521
930.477	12445
930.581	12479
930.685	12506
930.79	12273
930.894	12346
930.998	12247
931.103	12410
931.207	12072
931.311	12007
931.415	11954
931.519	11695
931.623	11710
