Data from test_V78500241_3000.txt Node
Date: Fri Mar 25 16:02:34 CST 2022
User: usil
Spectrometer: V785-0024
Trigger mode: 0
Integration Time (sec): 4.000000E-1
Scans to average: 1
Nonlinearity correction enabled: false
Boxcar width: 0
Storing dark spectrum: false
XAxis mode: Wavelengths
Number of Pixels in Spectrum: 1024
>>>>>Begin Spectral Data<<<<<
801.071	28850
801.214	28641
801.356	28481
801.499	28580
801.641	28356
801.783	28390
801.926	28409
802.068	28401
802.211	28284
802.353	28322
802.496	28150
802.638	28093
802.78	27998
802.923	28059
803.065	27979
803.208	28055
803.35	28063
803.492	28166
803.635	28333
803.777	28169
803.919	28166
804.061	28504
804.204	28379
804.346	28257
804.488	28177
804.63	28485
804.773	28166
804.915	28310
805.057	28512
805.199	28249
805.341	28344
805.483	28466
805.626	28500
805.768	28459
805.91	28466
806.052	28512
806.194	28371
806.336	28622
806.478	28390
806.62	28546
806.762	28542
806.904	28729
807.046	28976
807.188	28923
807.33	28873
807.472	28915
807.614	28946
807.756	28816
807.898	28862
808.04	28736
808.182	28809
808.324	28702
808.465	28900
808.607	28923
808.749	29128
808.891	29227
809.033	29220
809.174	29151
809.316	29079
809.458	29181
809.6	29132
809.741	29181
809.883	29372
810.025	29414
810.166	29433
810.308	29436
810.45	29368
810.591	29208
810.733	29094
810.875	29204
811.016	29109
811.158	29147
811.299	29311
811.441	29318
811.582	29353
811.724	29227
811.865	29083
812.007	29284
812.148	29193
812.29	29185
812.431	29379
812.573	29585
812.714	29604
812.855	29836
812.997	29866
813.138	29798
813.279	29882
813.421	29752
813.562	29687
813.703	29524
813.845	29520
813.986	29060
814.127	28991
814.268	28873
814.41	29060
814.551	29022
814.692	28942
814.833	28740
814.974	28805
815.115	28805
815.256	28713
815.397	28797
815.539	28744
815.68	28588
815.821	28744
815.962	28630
816.103	28683
816.244	28512
816.385	28493
816.526	28489
816.666	28246
816.807	28169
816.948	28306
817.089	28261
817.23	28128
817.371	28223
817.512	28207
817.653	28055
817.793	28196
817.934	28333
818.075	28219
818.216	28230
818.356	28192
818.497	27964
818.638	27884
818.778	27842
818.919	27987
819.06	27914
819.2	28021
819.341	28226
819.481	28135
819.622	28436
819.762	28580
819.903	28645
820.043	28478
820.184	28276
820.324	28341
820.465	28401
820.605	28306
820.746	28238
820.886	28101
821.026	28417
821.167	28329
821.307	28382
821.447	28215
821.588	28128
821.728	27972
821.868	27945
822.008	27785
822.149	27709
822.289	27694
822.429	27488
822.569	27287
822.709	27507
822.849	27233
822.99	27355
823.13	27298
823.27	27131
823.41	27043
823.55	26994
823.69	27001
823.83	27055
823.97	27070
824.11	26864
824.25	26796
824.389	26826
824.529	26948
824.669	26849
824.809	27047
824.949	26940
825.089	26982
825.228	26857
825.368	26564
825.508	26689
825.648	26796
825.787	26845
825.927	26792
826.067	26686
826.206	26758
826.346	26823
826.485	26769
826.625	26781
826.765	26861
826.904	26720
827.044	26484
827.183	26366
827.323	26351
827.462	26640
827.601	26374
827.741	26423
827.88	26370
828.02	26450
828.159	26495
828.298	26488
828.437	26495
828.577	26419
828.716	26503
828.855	26362
828.994	26183
829.134	26176
829.273	26317
829.412	25963
829.551	26065
829.69	26218
829.829	26172
829.968	26206
830.107	26199
830.246	26233
830.385	26065
830.524	26031
830.663	26031
830.802	25951
830.941	25727
831.08	25822
831.219	25928
831.357	25860
831.496	25871
831.635	25712
831.774	25712
831.913	25689
832.051	25559
832.19	25616
832.329	25597
832.467	25441
832.606	25293
832.744	25297
832.883	25388
833.022	25441
833.16	25457
833.299	25495
833.437	25479
833.576	25381
833.714	25487
833.852	25495
833.991	25479
834.129	25632
834.267	25499
834.406	25666
834.544	25567
834.682	25529
834.821	25487
834.959	25685
835.097	25407
835.235	25506
835.373	25445
835.511	25533
835.65	25403
835.788	25369
835.926	25255
836.064	25057
836.202	25160
836.34	25403
836.478	25259
836.615	25225
836.753	25339
836.891	25537
837.029	25285
837.167	25362
837.305	25183
837.443	25213
837.58	25209
837.718	25209
837.856	25103
837.993	25217
838.131	25023
838.269	25069
838.406	25084
838.544	24962
838.681	24760
838.819	24897
838.956	24601
839.094	24646
839.231	24802
839.369	24795
839.506	24943
839.643	24802
839.781	24673
839.918	24578
840.055	24608
840.193	24635
840.33	24540
840.467	24654
840.604	24798
840.742	24772
840.879	24296
841.016	24513
841.153	24300
841.29	24498
841.427	24513
841.564	24536
841.701	24544
841.838	24429
841.975	24456
842.112	24429
842.249	24338
842.385	24403
842.522	24528
842.659	24311
842.796	24262
842.933	24262
843.069	24262
843.206	24247
843.343	24186
843.479	24239
843.616	24251
843.752	24079
843.889	24190
844.025	24057
844.162	24057
844.298	24213
844.435	24007
844.571	23988
844.708	24102
844.844	24277
844.98	24148
845.117	24053
845.253	23980
845.389	23931
845.525	23950
845.661	23935
845.798	23855
845.934	23889
846.07	23790
846.206	23832
846.342	23802
846.478	23684
846.614	23615
846.75	23341
846.886	23467
847.022	23539
847.158	23520
847.294	23417
847.429	23524
847.565	23596
847.701	23714
847.837	23162
847.972	23189
848.108	23220
848.244	23307
848.379	23117
848.515	23117
848.65	23079
848.786	23105
848.921	23090
849.057	23159
849.192	23204
849.328	23064
849.463	23147
849.598	22892
849.734	23094
849.869	22972
850.004	22809
850.14	23022
850.275	22869
850.41	22717
850.545	22763
850.68	22866
850.815	22877
850.95	22858
851.085	22968
851.22	23083
851.355	22793
851.49	22820
851.625	22843
851.76	22850
851.895	22721
852.03	22805
852.165	22835
852.299	22938
852.434	23052
852.569	22908
852.703	22873
852.838	22869
852.973	23025
853.107	22999
853.242	22755
853.376	22672
853.511	22664
853.645	22573
853.78	22778
853.914	22702
854.048	22618
854.183	22748
854.317	22759
854.451	22972
854.585	22706
854.72	22698
854.854	22713
854.988	22694
855.122	22717
855.256	22569
855.39	22489
855.524	22596
855.658	22733
855.792	22698
855.926	22561
856.06	22702
856.194	22786
856.327	22679
856.461	22630
856.595	22588
856.729	22565
856.862	22717
856.996	22691
857.13	22653
857.263	22763
857.397	22831
857.53	22713
857.664	22717
857.797	22660
857.931	22744
858.064	22740
858.197	22752
858.331	22649
858.464	22637
858.597	22516
858.731	22607
858.864	22637
858.997	22630
859.13	22672
859.263	22641
859.396	22748
859.529	22641
859.662	22675
859.795	22645
859.928	22725
860.061	22774
860.194	22911
860.327	22656
860.46	22634
860.592	22816
860.725	22801
860.858	22892
860.99	22824
861.123	22672
861.256	22603
861.388	22649
861.521	23455
861.653	22607
861.786	22451
861.918	22577
862.05	22626
862.183	22615
862.315	22550
862.447	22687
862.58	22516
862.712	22303
862.844	22493
862.976	22436
863.108	22466
863.24	22698
863.372	22394
863.504	22371
863.636	22402
863.768	22516
863.9	22447
864.032	22402
864.164	22295
864.296	22356
864.428	22455
864.559	22455
864.691	22504
864.823	22440
864.954	22405
865.086	22314
865.217	22310
865.349	22147
865.48	22329
865.612	22341
865.743	22462
865.875	22348
866.006	22234
866.137	22363
866.269	22276
866.4	22268
866.531	22135
866.662	22135
866.793	22204
866.924	22200
867.055	22223
867.186	22238
867.317	22150
867.448	22143
867.579	22128
867.71	22044
867.841	22078
867.972	22135
868.103	22242
868.233	22367
868.364	22223
868.495	22295
868.625	22440
868.756	22451
868.886	22341
869.017	22421
869.147	22542
869.278	22474
869.408	22382
869.539	22436
869.669	22466
869.799	22554
869.929	22630
870.06	22641
870.19	22786
870.32	22767
870.45	22877
870.58	22889
870.71	22987
870.84	22915
870.97	22850
871.1	22911
871.23	23044
871.36	23025
871.489	22885
871.619	22980
871.749	23090
871.879	23162
872.008	23140
872.138	23014
872.267	23003
872.397	23022
872.526	22984
872.656	22805
872.785	22919
872.915	23094
873.044	23105
873.173	23181
873.303	23064
873.432	23098
873.561	23162
873.69	23025
873.819	23022
873.948	23147
874.077	23140
874.206	23003
874.335	23204
874.464	23178
874.593	23273
874.722	23299
874.851	23246
874.979	23265
875.108	23292
875.237	23197
875.365	23185
875.494	23269
875.623	23269
875.751	23204
875.88	23360
876.008	23406
876.136	23417
876.265	23657
876.393	23832
876.521	23729
876.65	23779
876.778	23707
876.906	23733
877.034	23566
877.162	23577
877.29	23608
877.418	23600
877.546	23570
877.674	23623
877.802	23600
877.93	23668
878.058	23600
878.185	23444
878.313	23528
878.441	23585
878.568	23353
878.696	23482
878.824	23600
878.951	23729
879.079	23821
879.206	23893
879.333	23874
879.461	23786
879.588	23817
879.715	23771
879.842	23866
879.97	23737
880.097	23474
880.224	23406
880.351	23478
880.478	23528
880.605	23474
880.732	23478
880.859	23699
880.986	23440
881.112	23493
881.239	23299
881.366	23220
881.493	23136
881.619	22976
881.746	23018
881.872	22999
881.999	22942
882.125	22858
882.252	23033
882.378	22968
882.505	23094
882.631	22908
882.757	22771
882.883	22733
883.01	22786
883.136	22664
883.262	22554
883.388	22569
883.514	22649
883.64	22733
883.766	22542
883.892	22337
884.018	22493
884.143	22542
884.269	22706
884.395	22451
884.52	22333
884.646	22238
884.772	22318
884.897	22150
885.023	22314
885.148	22417
885.274	22375
885.399	22421
885.524	22253
885.65	22272
885.775	22246
885.9	22303
886.025	22386
886.15	22337
886.275	22181
886.4	22143
886.525	22344
886.65	22196
886.775	22207
886.9	22440
887.025	22409
887.149	22257
887.274	22128
887.399	22150
887.523	22070
887.648	22051
887.773	21968
887.897	22055
888.021	22128
888.146	21907
888.27	22082
888.395	22112
888.519	22093
888.643	22082
888.767	22109
888.891	22021
889.015	21888
889.139	21926
889.263	21778
889.387	21884
889.511	22044
889.635	21949
889.759	21915
889.883	21804
890.006	21770
890.13	22002
890.254	21663
890.377	21762
890.501	21603
890.624	21534
890.748	21618
890.871	21500
890.995	21462
891.118	21424
891.241	21515
891.364	21477
891.488	21492
891.611	21336
891.734	21431
891.857	21408
891.98	21332
892.103	21310
892.226	21367
892.349	21310
892.471	21146
892.594	21222
892.717	21431
892.839	21279
892.962	21325
893.085	21405
893.207	21412
893.33	21207
893.452	21272
893.575	21233
893.697	21291
893.819	21378
893.941	21580
894.064	21393
894.186	21272
894.308	21180
894.43	21264
894.552	21431
894.674	21279
894.796	21310
894.918	21222
895.04	21249
895.161	21294
895.283	21260
895.405	21142
895.526	21283
895.648	21233
895.769	21336
895.891	21188
896.012	21275
896.134	21260
896.255	21245
896.376	21310
896.498	21222
896.619	21275
896.74	21142
896.861	21332
896.982	21644
897.103	21743
897.224	21454
897.345	21481
897.466	21424
897.587	21420
897.708	21606
897.828	21485
897.949	21367
898.07	21260
898.19	21420
898.311	21530
898.431	21389
898.552	21530
898.672	21530
898.792	21507
898.913	21416
899.033	21317
899.153	21256
899.273	21055
899.393	21230
899.513	21214
899.633	21249
899.753	21211
899.873	21123
899.993	21317
900.113	21157
900.232	21077
900.352	21093
900.472	20994
900.591	21047
900.711	20956
900.83	20902
900.95	21066
901.069	20933
901.189	20902
901.308	20568
901.427	20594
901.546	20640
901.665	20526
901.784	20492
901.904	20389
902.023	20210
902.141	20016
902.26	20016
902.379	20096
902.498	19970
902.617	20084
902.735	20005
902.854	20043
902.973	19978
903.091	19685
903.21	19616
903.328	19552
903.446	19628
903.565	19533
903.683	19282
903.801	19388
903.919	19415
904.038	19400
904.156	19247
904.274	19335
904.392	19156
904.51	19031
904.627	19217
904.745	19228
904.863	19270
904.981	18909
905.098	18962
905.216	18825
905.334	18932
905.451	18875
905.569	18817
905.686	18970
905.803	18958
905.921	18719
906.038	18753
906.155	18715
906.272	18738
906.389	18563
906.506	18467
906.623	18486
906.74	18369
906.857	18304
906.974	18361
907.091	18490
907.208	18559
907.324	18422
907.441	18289
907.557	18167
907.674	18133
907.79	17973
907.907	18076
908.023	18197
908.139	18155
908.256	18106
908.372	17870
908.488	18011
908.604	17874
908.72	17786
908.836	17916
908.952	17691
909.068	17786
909.184	17958
909.3	17840
909.415	17859
909.531	17882
909.647	17642
909.762	17547
909.878	17433
909.993	17581
910.108	17505
910.224	17463
910.339	17425
910.454	17387
910.57	17303
910.685	17220
910.8	17524
910.915	17433
911.03	17307
911.145	17223
911.259	17052
911.374	17048
911.489	16976
911.604	16938
911.718	16911
911.833	16828
911.947	16645
912.062	16710
912.176	16828
912.291	16908
912.405	16850
912.519	17048
912.633	16987
912.748	16866
912.862	16858
912.976	16668
913.09	16558
913.204	16592
913.318	16615
913.431	16755
913.545	16820
913.659	16634
913.772	16668
913.886	16535
914	16462
914.113	16451
914.226	16634
914.34	16432
914.453	16348
914.566	16523
914.68	16284
914.793	16291
914.906	16059
915.019	15972
915.132	15937
915.245	16059
915.358	15994
915.47	16044
915.583	16109
915.696	16162
915.809	16112
915.921	16101
916.034	16017
916.146	15922
916.259	15903
916.371	15911
916.483	15880
916.595	15857
916.708	15838
916.82	15873
916.932	15831
917.044	15800
917.156	15637
917.268	15580
917.38	15587
917.491	15629
917.603	15644
917.715	15656
917.826	15755
917.938	15576
918.049	15519
918.161	15618
918.272	15694
918.384	15644
918.495	15663
918.606	15443
918.717	15260
918.828	15393
918.939	15378
919.05	15287
919.161	15332
919.272	15275
919.383	15222
919.494	15439
919.604	15618
919.715	15344
919.826	15222
919.936	15355
920.047	15401
920.157	15340
920.267	15473
920.378	15378
920.488	15367
920.598	15576
920.708	15561
920.818	15523
920.928	15416
921.038	15561
921.148	15580
921.258	15306
921.368	15108
921.477	15055
921.587	15180
921.697	14830
921.806	15013
921.916	14902
922.025	14697
922.134	14674
922.244	14571
922.353	14686
922.462	14545
922.571	14431
922.68	14400
922.789	14256
922.898	14412
923.007	14256
923.116	14305
923.224	14259
923.333	14267
923.442	14187
923.55	14065
923.659	14157
923.767	14199
923.876	14077
923.984	14096
924.092	13879
924.201	14138
924.309	13997
924.417	14027
924.525	13894
924.633	13982
924.741	14705
924.849	13765
924.956	13856
925.064	13734
925.172	13571
925.279	13742
925.387	13681
925.494	13708
925.602	13795
925.709	13677
925.816	13597
925.924	13586
926.031	13731
926.138	13590
926.245	13700
926.352	13533
926.459	13662
926.566	13677
926.673	13552
926.779	13491
926.886	13441
926.993	13289
927.099	13247
927.206	13160
927.312	13183
927.419	13263
927.525	13213
927.631	13160
927.737	13118
927.843	13095
927.95	12913
928.056	12947
928.162	13053
928.267	13099
928.373	13643
928.479	13171
928.585	12878
928.69	12905
928.796	12954
928.901	12795
929.007	12817
929.112	12852
929.218	12905
929.323	12749
929.428	12703
929.533	12821
929.638	12696
929.743	12696
929.848	12745
929.953	12719
930.058	12528
930.163	12346
930.267	12494
930.372	12486
930.477	12426
930.581	12639
930.685	12433
930.79	12315
930.894	12369
930.998	12334
931.103	12429
931.207	12079
931.311	11996
931.415	11935
931.519	11608
931.623	11649
