Data from test_V78500241_3454.txt Node
Date: Fri Mar 25 16:05:43 CST 2022
User: usil
Spectrometer: V785-0024
Trigger mode: 0
Integration Time (sec): 4.000000E-1
Scans to average: 1
Nonlinearity correction enabled: false
Boxcar width: 0
Storing dark spectrum: false
XAxis mode: Wavelengths
Number of Pixels in Spectrum: 1024
>>>>>Begin Spectral Data<<<<<
801.071	28892
801.214	28710
801.356	28599
801.499	28611
801.641	28394
801.783	28367
801.926	28470
802.068	28451
802.211	28310
802.353	28436
802.496	28192
802.638	28112
802.78	28040
802.923	28059
803.065	27998
803.208	28109
803.35	28166
803.492	28280
803.635	28474
803.777	28147
803.919	28318
804.061	28675
804.204	28462
804.346	28162
804.488	28246
804.63	28382
804.773	28428
804.915	28489
805.057	28611
805.199	28356
805.341	28573
805.483	28744
805.626	28516
805.768	28348
805.91	28481
806.052	28584
806.194	28428
806.336	28694
806.478	28569
806.62	28527
806.762	28630
806.904	28816
807.046	29086
807.188	28911
807.33	29044
807.472	29128
807.614	28930
807.756	29067
807.898	28809
808.04	28778
808.182	28927
808.324	28927
808.465	28866
808.607	29220
808.749	29284
808.891	29216
809.033	29478
809.174	29334
809.316	29296
809.458	29162
809.6	29250
809.741	29440
809.883	29353
810.025	29554
810.166	29570
810.308	29596
810.45	29547
810.591	29440
810.733	29482
810.875	29246
811.016	29208
811.158	29261
811.299	29303
811.441	29478
811.582	29417
811.724	29292
811.865	29292
812.007	29277
812.148	29345
812.29	29284
812.431	29558
812.573	29596
812.714	29570
812.855	29642
812.997	29783
813.138	30015
813.279	29813
813.421	29893
813.562	29794
813.703	29585
813.845	29528
813.986	29197
814.127	29098
814.268	29079
814.41	29014
814.551	28995
814.692	29178
814.833	28915
814.974	29124
815.115	28942
815.256	28904
815.397	29018
815.539	28847
815.68	28866
815.821	28755
815.962	28847
816.103	28835
816.244	28683
816.385	28618
816.526	28508
816.666	28268
816.807	28207
816.948	28386
817.089	28535
817.23	28284
817.371	28204
817.512	28276
817.653	28306
817.793	28303
817.934	28360
818.075	28401
818.216	28329
818.356	28234
818.497	28268
818.638	28120
818.778	28044
818.919	28048
819.06	28177
819.2	28219
819.341	28211
819.481	28367
819.622	28447
819.762	28805
819.903	28683
820.043	28542
820.184	28497
820.324	28398
820.465	28561
820.605	28440
820.746	28352
820.886	28272
821.026	28413
821.167	28306
821.307	28451
821.447	28284
821.588	28215
821.728	28051
821.868	27903
822.008	27732
822.149	27747
822.289	27663
822.429	27519
822.569	27450
822.709	27458
822.849	27386
822.99	27138
823.13	27393
823.27	27443
823.41	27321
823.55	26925
823.69	27192
823.83	27119
823.97	27081
824.11	26921
824.25	26887
824.389	26861
824.529	26986
824.669	26971
824.809	27173
824.949	27051
825.089	26925
825.228	27157
825.368	26940
825.508	26651
825.648	26834
825.787	27001
825.927	26891
826.067	26762
826.206	26826
826.346	26937
826.485	26952
826.625	26872
826.765	27039
826.904	26921
827.044	26689
827.183	26590
827.323	26678
827.462	26511
827.601	26644
827.741	26746
827.88	26583
828.02	26358
828.159	26568
828.298	26708
828.437	26686
828.577	26587
828.716	26674
828.855	26434
828.994	26233
829.134	26237
829.273	26126
829.412	26256
829.551	26286
829.69	26180
829.829	26377
829.968	26438
830.107	26351
830.246	26180
830.385	26309
830.524	26225
830.663	26077
830.802	25913
830.941	25944
831.08	25932
831.219	25883
831.357	25963
831.496	26050
831.635	25970
831.774	25811
831.913	25772
832.051	25734
832.19	25833
832.329	25742
832.467	25468
832.606	25533
832.744	25597
832.883	25537
833.022	25457
833.16	25495
833.299	25681
833.437	25613
833.576	25704
833.714	25738
833.852	25597
833.991	25685
834.129	25830
834.267	25795
834.406	25658
834.544	25681
834.682	25647
834.821	25689
834.959	25795
835.097	25510
835.235	25609
835.373	25548
835.511	25601
835.65	25392
835.788	25510
835.926	25381
836.064	25304
836.202	25403
836.34	25453
836.478	25605
836.615	25472
836.753	25369
836.891	25533
837.029	25518
837.167	25365
837.305	25289
837.443	25343
837.58	25483
837.718	25354
837.856	25343
837.993	25194
838.131	25217
838.269	25148
838.406	25110
838.544	25080
838.681	24996
838.819	24837
838.956	24776
839.094	24722
839.231	24779
839.369	24958
839.506	25183
839.643	25031
839.781	24814
839.918	24661
840.055	24669
840.193	24772
840.33	24563
840.467	24703
840.604	24696
840.742	24833
840.879	24559
841.016	24623
841.153	24585
841.29	24665
841.427	24616
841.564	24631
841.701	24627
841.838	24521
841.975	24559
842.112	24620
842.249	24433
842.385	24486
842.522	24578
842.659	24445
842.796	24334
842.933	24262
843.069	24292
843.206	24353
843.343	24566
843.479	24407
843.616	24403
843.752	24174
843.889	24216
844.025	24407
844.162	24152
844.298	24296
844.435	24155
844.571	24114
844.708	24174
844.844	24235
844.98	24376
845.117	24270
845.253	24076
845.389	24057
845.525	24045
845.661	24034
845.798	23969
845.934	24018
846.07	23961
846.206	23847
846.342	24060
846.478	23901
846.614	23790
846.75	23577
846.886	23543
847.022	23672
847.158	23733
847.294	23611
847.429	23615
847.565	23634
847.701	23832
847.837	23391
847.972	23246
848.108	23379
848.244	23592
848.379	23242
848.515	23223
848.65	23223
848.786	23121
848.921	23284
849.057	23356
849.192	23364
849.328	23280
849.463	23292
849.598	23200
849.734	23159
849.869	22995
850.004	23071
850.14	22991
850.275	22881
850.41	22972
850.545	22919
850.68	22866
850.815	23071
850.95	23052
851.085	23151
851.22	23185
851.355	23025
851.49	22999
851.625	22904
851.76	22873
851.895	22987
852.03	22843
852.165	22889
852.299	23006
852.434	23071
852.569	23064
852.703	22892
852.838	23044
852.973	23105
853.107	23155
853.242	22911
853.376	22858
853.511	22717
853.645	22774
853.78	22927
853.914	22991
854.048	22740
854.183	22744
854.317	22797
854.451	23025
854.585	22889
854.72	22904
854.854	22934
854.988	22797
855.122	22820
855.256	22512
855.39	22892
855.524	22866
855.658	22904
855.792	22889
855.926	22847
856.06	22820
856.194	22904
856.327	22843
856.461	22721
856.595	22702
856.729	22767
856.862	22881
856.996	22873
857.13	22885
857.263	22957
857.397	22866
857.53	22801
857.664	22984
857.797	22892
857.931	22965
858.064	22831
858.197	22927
858.331	22835
858.464	22664
858.597	22565
858.731	22797
858.864	22782
858.997	22835
859.13	22774
859.263	22850
859.396	22828
859.529	22812
859.662	22660
859.795	22679
859.928	22752
860.061	22987
860.194	23064
860.327	22854
860.46	22873
860.592	22968
860.725	22900
860.858	22949
860.99	22839
861.123	22801
861.256	22706
861.388	22782
861.521	23284
861.653	22618
861.786	22554
861.918	22618
862.05	22679
862.183	22759
862.315	22717
862.447	22805
862.58	22694
862.712	22561
862.844	22451
862.976	22493
863.108	22554
863.24	22843
863.372	22466
863.504	22481
863.636	22485
863.768	22527
863.9	22363
864.032	22379
864.164	22516
864.296	22573
864.428	22561
864.559	22531
864.691	22599
864.823	22580
864.954	22497
865.086	22447
865.217	22413
865.349	22417
865.48	22272
865.612	22413
865.743	22466
865.875	22306
866.006	22428
866.137	22356
866.269	22382
866.4	22367
866.531	22344
866.662	22291
866.793	22276
866.924	22295
867.055	22390
867.186	22299
867.317	22348
867.448	22196
867.579	22314
867.71	22116
867.841	22348
867.972	22398
868.103	22291
868.233	22337
868.364	22356
868.495	22432
868.625	22402
868.756	22664
868.886	22508
869.017	22653
869.147	22615
869.278	22713
869.408	22538
869.539	22573
869.669	22622
869.799	22561
869.929	22736
870.06	22592
870.19	22869
870.32	22816
870.45	22820
870.58	22881
870.71	23056
870.84	23132
870.97	22908
871.1	22828
871.23	23022
871.36	23037
871.489	23037
871.619	23109
871.749	23086
871.879	23128
872.008	23208
872.138	23083
872.267	23220
872.397	22991
872.526	23014
872.656	22854
872.785	22984
872.915	23105
873.044	23326
873.173	23102
873.303	23185
873.432	23155
873.561	23204
873.69	23170
873.819	23174
873.948	23181
874.077	23147
874.206	23181
874.335	23208
874.464	23307
874.593	23436
874.722	23292
874.851	23372
874.979	23478
875.108	23520
875.237	23360
875.365	23261
875.494	23311
875.623	23459
875.751	23490
875.88	23353
876.008	23539
876.136	23440
876.265	23760
876.393	23870
876.521	23863
876.65	23821
876.778	23817
876.906	23703
877.034	23802
877.162	23722
877.29	23615
877.418	23745
877.546	23668
877.674	23642
877.802	23661
877.93	23687
878.058	23668
878.185	23592
878.313	23592
878.441	23821
878.568	23429
878.696	23657
878.824	23836
878.951	23707
879.079	23973
879.206	23969
879.333	23920
879.461	23699
879.588	23809
879.715	23973
879.842	23992
879.97	23840
880.097	23391
880.224	23505
880.351	23596
880.478	23535
880.605	23395
880.732	23398
880.859	23718
880.986	23471
881.112	23657
881.239	23345
881.366	23261
881.493	23197
881.619	23155
881.746	23124
881.872	23197
881.999	22984
882.125	23048
882.252	23124
882.378	22900
882.505	23235
882.631	22957
882.757	22831
882.883	22999
883.01	22801
883.136	22607
883.262	22573
883.388	22611
883.514	22930
883.64	22892
883.766	22725
883.892	22489
884.018	22546
884.143	22706
884.269	22816
884.395	22459
884.52	22337
884.646	22535
884.772	22421
884.897	22337
885.023	22500
885.148	22443
885.274	22474
885.399	22405
885.524	22318
885.65	22352
885.775	22485
885.9	22299
886.025	22409
886.15	22382
886.275	22405
886.4	22398
886.525	22268
886.65	22234
886.775	22185
886.9	22348
887.025	22550
887.149	22337
887.274	22185
887.399	22063
887.523	22120
887.648	22093
887.773	22029
887.897	22204
888.021	22105
888.146	22006
888.27	22112
888.395	22268
888.519	22196
888.643	22207
888.767	22139
888.891	22112
889.015	21941
889.139	21972
889.263	21937
889.387	22082
889.511	22097
889.635	22093
889.759	21869
889.883	21892
890.006	21892
890.13	22086
890.254	21949
890.377	21888
890.501	21557
890.624	21766
890.748	21679
890.871	21641
890.995	21625
891.118	21504
891.241	21538
891.364	21439
891.488	21637
891.611	21542
891.734	21428
891.857	21534
891.98	21473
892.103	21618
892.226	21458
892.349	21397
892.471	21245
892.594	21401
892.717	21363
892.839	21275
892.962	21412
893.085	21332
893.207	21283
893.33	21195
893.452	21313
893.575	21378
893.697	21351
893.819	21325
893.941	21545
894.064	21530
894.186	21306
894.308	21245
894.43	21386
894.552	21420
894.674	21397
894.796	21237
894.918	21355
895.04	21313
895.161	21408
895.283	21401
895.405	21287
895.526	21302
895.648	21344
895.769	21386
895.891	21336
896.012	21348
896.134	21317
896.255	21386
896.376	21218
896.498	21325
896.619	21374
896.74	21344
896.861	21275
896.982	21709
897.103	21743
897.224	21599
897.345	21542
897.466	21405
897.587	21599
897.708	21637
897.828	21561
897.949	21481
898.07	21389
898.19	21466
898.311	21675
898.431	21439
898.552	21428
898.672	21530
898.792	21629
898.913	21481
899.033	21393
899.153	21298
899.273	21192
899.393	21180
899.513	21226
899.633	21192
899.753	21272
899.873	21211
899.993	21256
900.113	21150
900.232	21142
900.352	21165
900.472	21028
900.591	21017
900.711	21062
900.83	20941
900.95	21058
901.069	21020
901.189	20853
901.308	20659
901.427	20602
901.546	20499
901.665	20568
901.784	20518
901.904	20400
902.023	20324
902.141	20191
902.26	20126
902.379	20084
902.498	20043
902.617	20069
902.735	20138
902.854	19860
902.973	19925
903.091	19803
903.21	19677
903.328	19757
903.446	19624
903.565	19537
903.683	19540
903.801	19464
903.919	19529
904.038	19487
904.156	19278
904.274	19407
904.392	19198
904.51	19240
904.627	19232
904.745	19293
904.863	19320
904.981	19034
905.098	19027
905.216	18954
905.334	19000
905.451	19019
905.569	18852
905.686	18958
905.803	18928
905.921	18741
906.038	18757
906.155	18688
906.272	18608
906.389	18563
906.506	18540
906.623	18452
906.74	18464
906.857	18456
906.974	18422
907.091	18521
907.208	18528
907.324	18486
907.441	18243
907.557	18213
907.674	18213
907.79	18087
907.907	18102
908.023	18186
908.139	18292
908.256	18022
908.372	18129
908.488	18015
908.604	17946
908.72	17942
908.836	17843
908.952	17923
909.068	17961
909.184	17973
909.3	17813
909.415	17874
909.531	17821
909.647	17573
909.762	17627
909.878	17532
909.993	17627
910.108	17528
910.224	17558
910.339	17478
910.454	17501
910.57	17364
910.685	17318
910.8	17608
910.915	17444
911.03	17417
911.145	17216
911.259	17174
911.374	17193
911.489	17075
911.604	17052
911.718	16984
911.833	16942
911.947	16729
912.062	16862
912.176	16835
912.291	16892
912.405	16877
912.519	17048
912.633	16980
912.748	16949
912.862	16877
912.976	16744
913.09	16592
913.204	16713
913.318	16752
913.431	16801
913.545	16740
913.659	16797
913.772	16558
913.886	16493
914	16538
914.113	16542
914.226	16588
914.34	16577
914.453	16451
914.566	16478
914.68	16402
914.793	16367
914.906	16219
915.019	16109
915.132	16071
915.245	16055
915.358	16055
915.47	16021
915.583	16021
915.696	15972
915.809	16177
915.921	16207
916.034	15941
916.146	16029
916.259	15873
916.371	16078
916.483	16002
916.595	15930
916.708	15899
916.82	15793
916.932	15816
917.044	15778
917.156	15759
917.268	15751
917.38	15698
917.491	15622
917.603	15713
917.715	15770
917.826	15755
917.938	15576
918.049	15561
918.161	15690
918.272	15732
918.384	15709
918.495	15580
918.606	15462
918.717	15340
918.828	15473
918.939	15439
919.05	15332
919.161	15321
919.272	15100
919.383	15283
919.494	15435
919.604	15526
919.715	15306
919.826	15287
919.936	15256
920.047	15450
920.157	15359
920.267	15614
920.378	15344
920.488	15283
920.598	15553
920.708	15580
920.818	15542
920.928	15511
921.038	15652
921.148	15538
921.258	15359
921.368	15154
921.477	15123
921.587	15066
921.697	14876
921.806	15085
921.916	14948
922.025	14689
922.134	14758
922.244	14625
922.353	14773
922.462	14552
922.571	14541
922.68	14332
922.789	14282
922.898	14324
923.007	14336
923.116	14366
923.224	14309
923.333	14286
923.442	14180
923.55	14046
923.659	14199
923.767	14145
923.876	14050
923.984	14157
924.092	14039
924.201	14077
924.309	14126
924.417	14084
924.525	13947
924.633	13997
924.741	14902
924.849	13753
924.956	13883
925.064	13693
925.172	13632
925.279	13670
925.387	13837
925.494	13753
925.602	13784
925.709	13784
925.816	13636
925.924	13609
926.031	13708
926.138	13601
926.245	13647
926.352	13556
926.459	13708
926.566	13757
926.673	13502
926.779	13430
926.886	13460
926.993	13293
927.099	13285
927.206	13209
927.312	13183
927.419	13308
927.525	13266
927.631	13301
927.737	13114
927.843	13038
927.95	13053
928.056	13042
928.162	13046
928.267	13050
928.373	13708
928.479	13149
928.585	12825
928.69	12951
928.796	13084
928.901	12932
929.007	12753
929.112	12928
929.218	12916
929.323	12779
929.428	12707
929.533	12932
929.638	12665
929.743	12700
929.848	12757
929.953	12684
930.058	12620
930.163	12456
930.267	12460
930.372	12616
930.477	12418
930.581	12681
930.685	12475
930.79	12346
930.894	12357
930.998	12285
931.103	12429
931.207	11992
931.311	11961
931.415	11893
931.519	11691
931.623	11707
