Data from test_V78500241_2053.txt Node
Date: Fri Mar 25 15:56:01 CST 2022
User: usil
Spectrometer: V785-0024
Trigger mode: 0
Integration Time (sec): 4.000000E-1
Scans to average: 1
Nonlinearity correction enabled: false
Boxcar width: 0
Storing dark spectrum: false
XAxis mode: Wavelengths
Number of Pixels in Spectrum: 1024
>>>>>Begin Spectral Data<<<<<
801.071	29029
801.214	29064
801.356	28748
801.499	28797
801.641	28580
801.783	28577
801.926	28641
802.068	28744
802.211	28550
802.353	28694
802.496	28409
802.638	28401
802.78	28291
802.923	28166
803.065	28219
803.208	28253
803.35	28287
803.492	28573
803.635	28710
803.777	28531
803.919	28538
804.061	28904
804.204	28687
804.346	28565
804.488	28409
804.63	28485
804.773	28565
804.915	28691
805.057	28862
805.199	28557
805.341	28744
805.483	28664
805.626	28729
805.768	28706
805.91	28793
806.052	28778
806.194	28752
806.336	28797
806.478	28725
806.62	28797
806.762	28923
806.904	28976
807.046	29231
807.188	29337
807.33	29303
807.472	29064
807.614	29151
807.756	29227
807.898	29098
808.04	29014
808.182	28987
808.324	29090
808.465	29162
808.607	29330
808.749	29337
808.891	29512
809.033	29478
809.174	29623
809.316	29429
809.458	29375
809.6	29429
809.741	29600
809.883	29695
810.025	29691
810.166	29726
810.308	29630
810.45	29695
810.591	29600
810.733	29585
810.875	29589
811.016	29375
811.158	29459
811.299	29680
811.441	29619
811.582	29661
811.724	29360
811.865	29478
812.007	29589
812.148	29478
812.29	29570
812.431	29615
812.573	29752
812.714	29992
812.855	30079
812.997	30163
813.138	30003
813.279	30247
813.421	30125
813.562	30011
813.703	29783
813.845	29726
813.986	29406
814.127	29254
814.268	29181
814.41	29254
814.551	29102
814.692	29170
814.833	29242
814.974	29296
815.115	29159
815.256	29056
815.397	28984
815.539	29250
815.68	29014
815.821	28961
815.962	28968
816.103	28968
816.244	28873
816.385	28790
816.526	28835
816.666	28634
816.807	28424
816.948	28630
817.089	28561
817.23	28485
817.371	28592
817.512	28478
817.653	28413
817.793	28436
817.934	28508
818.075	28504
818.216	28565
818.356	28386
818.497	28379
818.638	28234
818.778	28409
818.919	28238
819.06	28265
819.2	28401
819.341	28455
819.481	28538
819.622	28744
819.762	28873
819.903	28816
820.043	28778
820.184	28630
820.324	28733
820.465	28611
820.605	28626
820.746	28485
820.886	28405
821.026	28763
821.167	28637
821.307	28721
821.447	28424
821.588	28531
821.728	28234
821.868	28257
822.008	28150
822.149	28048
822.289	28017
822.429	27808
822.569	27686
822.709	27679
822.849	27549
822.99	27450
823.13	27561
823.27	27496
823.41	27397
823.55	27287
823.69	27416
823.83	27386
823.97	27431
824.11	27169
824.25	27066
824.389	27176
824.529	27226
824.669	27218
824.809	27340
824.949	27294
825.089	27211
825.228	27203
825.368	27066
825.508	27032
825.648	26990
825.787	27169
825.927	27157
826.067	26979
826.206	27028
826.346	27028
826.485	27108
826.625	26948
826.765	27077
826.904	27017
827.044	26880
827.183	26861
827.323	26823
827.462	26811
827.601	26674
827.741	26807
827.88	26777
828.02	26632
828.159	26739
828.298	26823
828.437	26724
828.577	26697
828.716	26872
828.855	26670
828.994	26495
829.134	26484
829.273	26583
829.412	26404
829.551	26351
829.69	26549
829.829	26495
829.968	26480
830.107	26564
830.246	26469
830.385	26309
830.524	26320
830.663	26301
830.802	26233
830.941	26065
831.08	25932
831.219	26039
831.357	26024
831.496	26328
831.635	26069
831.774	25963
831.913	25928
832.051	25868
832.19	25860
832.329	25925
832.467	25670
832.606	25510
832.744	25727
832.883	25719
833.022	25761
833.16	25761
833.299	25818
833.437	25864
833.576	25750
833.714	25791
833.852	25822
833.991	25795
834.129	25909
834.267	25826
834.406	25788
834.544	25826
834.682	25864
834.821	25647
834.959	25837
835.097	25727
835.235	25906
835.373	25734
835.511	25708
835.65	25613
835.788	25635
835.926	25525
836.064	25438
836.202	25590
836.34	25594
836.478	25776
836.615	25460
836.753	25639
836.891	25696
837.029	25681
837.167	25544
837.305	25419
837.443	25381
837.58	25502
837.718	25472
837.856	25575
837.993	25430
838.131	25373
838.269	25388
838.406	25308
838.544	25183
838.681	25099
838.819	25118
838.956	24825
839.094	24798
839.231	24886
839.369	25141
839.506	25350
839.643	25133
839.781	24894
839.918	24852
840.055	24947
840.193	24909
840.33	24700
840.467	24875
840.604	24859
840.742	25050
840.879	24555
841.016	24700
841.153	24623
841.29	24859
841.427	24661
841.564	24734
841.701	24856
841.838	24776
841.975	24604
842.112	24684
842.249	24582
842.385	24532
842.522	24772
842.659	24585
842.796	24536
842.933	24525
843.069	24551
843.206	24456
843.343	24551
843.479	24582
843.616	24616
843.752	24395
843.889	24429
844.025	24441
844.162	24213
844.298	24494
844.435	24369
844.571	24289
844.708	24319
844.844	24448
844.98	24448
845.117	24445
845.253	24167
845.389	24133
845.525	24277
845.661	24129
845.798	24068
845.934	24091
846.07	23988
846.206	24155
846.342	24197
846.478	23950
846.614	23786
846.75	23630
846.886	23752
847.022	23920
847.158	23882
847.294	23741
847.429	23767
847.565	23722
847.701	23824
847.837	23490
847.972	23448
848.108	23615
848.244	23501
848.379	23440
848.515	23364
848.65	23459
848.786	23337
848.921	23414
849.057	23395
849.192	23440
849.328	23383
849.463	23254
849.598	23296
849.734	23273
849.869	23178
850.004	23170
850.14	23098
850.275	23166
850.41	22949
850.545	23022
850.68	23166
850.815	23083
850.95	23117
851.085	23258
851.22	23284
851.355	23140
851.49	23166
851.625	23067
851.76	23185
851.895	22938
852.03	23071
852.165	23124
852.299	23147
852.434	23083
852.569	23239
852.703	23136
852.838	23212
852.973	23258
853.107	23246
853.242	23025
853.376	22812
853.511	22961
853.645	22904
853.78	22987
853.914	23010
854.048	23033
854.183	22919
854.317	23025
854.451	23147
854.585	22904
854.72	23048
854.854	22961
854.988	22908
855.122	23056
855.256	22889
855.39	22873
855.524	22980
855.658	22946
855.792	22930
855.926	22900
856.06	22961
856.194	22908
856.327	22957
856.461	22759
856.595	22828
856.729	23086
856.862	22961
856.996	23022
857.13	22987
857.263	23010
857.397	23025
857.53	22900
857.664	22930
857.797	22961
857.931	22965
858.064	22930
858.197	23094
858.331	22824
858.464	22877
858.597	22847
858.731	22896
858.864	22908
858.997	22839
859.13	22953
859.263	22934
859.396	23022
859.529	22896
859.662	22854
859.795	22869
859.928	22843
860.061	22961
860.194	23216
860.327	23018
860.46	22942
860.592	23071
860.725	23124
860.858	23067
860.99	22953
861.123	22774
861.256	22858
861.388	22869
861.521	23642
861.653	22771
861.786	22664
861.918	22717
862.05	22725
862.183	22820
862.315	22835
862.447	23006
862.58	22740
862.712	22778
862.844	22615
862.976	22736
863.108	22679
863.24	23113
863.372	22653
863.504	22767
863.636	22626
863.768	22721
863.9	22565
864.032	22508
864.164	22512
864.296	22649
864.428	22550
864.559	22752
864.691	22733
864.823	22577
864.954	22493
865.086	22611
865.217	22584
865.349	22405
865.48	22417
865.612	22428
865.743	22637
865.875	22417
866.006	22535
866.137	22569
866.269	22390
866.4	22462
866.531	22352
866.662	22500
866.793	22508
866.924	22299
867.055	22481
867.186	22474
867.317	22386
867.448	22398
867.579	22352
867.71	22417
867.841	22344
867.972	22390
868.103	22398
868.233	22371
868.364	22474
868.495	22637
868.625	22645
868.756	22672
868.886	22527
869.017	22557
869.147	22759
869.278	22801
869.408	22611
869.539	22542
869.669	22812
869.799	22626
869.929	22763
870.06	22748
870.19	22930
870.32	22862
870.45	23010
870.58	23075
870.71	23220
870.84	23113
870.97	23094
871.1	23041
871.23	23299
871.36	23178
871.489	23067
871.619	23178
871.749	23147
871.879	23265
872.008	23337
872.138	23227
872.267	23181
872.397	23174
872.526	23143
872.656	23140
872.785	23033
872.915	23273
873.044	23280
873.173	23296
873.303	23322
873.432	23311
873.561	23326
873.69	23349
873.819	23185
873.948	23299
874.077	23220
874.206	23284
874.335	23288
874.464	23364
874.593	23463
874.722	23414
874.851	23600
874.979	23425
875.108	23558
875.237	23482
875.365	23410
875.494	23600
875.623	23531
875.751	23448
875.88	23509
876.008	23634
876.136	23657
876.265	23836
876.393	24064
876.521	23889
876.65	24034
876.778	23866
876.906	23889
877.034	23741
877.162	23863
877.29	23802
877.418	23965
877.546	23790
877.674	23851
877.802	23851
877.93	23729
878.058	23817
878.185	23649
878.313	23729
878.441	23794
878.568	23623
878.696	23824
878.824	23939
878.951	23863
879.079	23920
879.206	24148
879.333	24114
879.461	23802
879.588	23855
879.715	24022
879.842	24076
879.97	23790
880.097	23634
880.224	23596
880.351	23657
880.478	23718
880.605	23623
880.732	23630
880.859	23851
880.986	23581
881.112	23627
881.239	23535
881.366	23353
881.493	23231
881.619	23277
881.746	23208
881.872	23102
881.999	23181
882.125	23223
882.252	23277
882.378	23124
882.505	23299
882.631	23075
882.757	22927
882.883	22965
883.01	22877
883.136	22908
883.262	22740
883.388	22740
883.514	22793
883.64	22835
883.766	22786
883.892	22485
884.018	22733
884.143	22850
884.269	22885
884.395	22637
884.52	22497
884.646	22546
884.772	22478
884.897	22451
885.023	22428
885.148	22565
885.274	22500
885.399	22569
885.524	22508
885.65	22455
885.775	22485
885.9	22329
886.025	22508
886.15	22561
886.275	22382
886.4	22474
886.525	22455
886.65	22268
886.775	22474
886.9	22565
887.025	22611
887.149	22352
887.274	22375
887.399	22230
887.523	22253
887.648	22261
887.773	22051
887.897	22185
888.021	22306
888.146	22093
888.27	22280
888.395	22371
888.519	22337
888.643	22363
888.767	22322
888.891	22192
889.015	21888
889.139	22112
889.263	22109
889.387	22166
889.511	22310
889.635	22169
889.759	21857
889.883	22143
890.006	21968
890.13	22185
890.254	21949
890.377	22044
890.501	21644
890.624	21675
890.748	21743
890.871	21625
890.995	21663
891.118	21500
891.241	21595
891.364	21553
891.488	21709
891.611	21587
891.734	21644
891.857	21633
891.98	21614
892.103	21724
892.226	21595
892.349	21557
892.471	21321
892.594	21435
892.717	21374
892.839	21454
892.962	21511
893.085	21599
893.207	21382
893.33	21386
893.452	21313
893.575	21610
893.697	21329
893.819	21625
893.941	21686
894.064	21545
894.186	21344
894.308	21272
894.43	21576
894.552	21561
894.674	21466
894.796	21355
894.918	21424
895.04	21435
895.161	21439
895.283	21481
895.405	21336
895.526	21511
895.648	21450
895.769	21481
895.891	21294
896.012	21485
896.134	21515
896.255	21367
896.376	21268
896.498	21420
896.619	21420
896.74	21355
896.861	21545
896.982	21603
897.103	21899
897.224	21766
897.345	21679
897.466	21561
897.587	21580
897.708	21774
897.828	21663
897.949	21561
898.07	21454
898.19	21545
898.311	21709
898.431	21622
898.552	21633
898.672	21690
898.792	21701
898.913	21717
899.033	21515
899.153	21462
899.273	21310
899.393	21355
899.513	21435
899.633	21329
899.753	21313
899.873	21252
899.993	21389
900.113	21230
900.232	21272
900.352	21287
900.472	21275
900.591	21100
900.711	21180
900.83	21108
900.95	21199
901.069	21077
901.189	21039
901.308	20655
901.427	20659
901.546	20686
901.665	20716
901.784	20750
901.904	20590
902.023	20419
902.141	20370
902.26	20153
902.379	20221
902.498	20142
902.617	20176
902.735	20218
902.854	20138
902.973	20027
903.091	19795
903.21	19795
903.328	19917
903.446	19597
903.565	19674
903.683	19594
903.801	19445
903.919	19586
904.038	19525
904.156	19415
904.274	19453
904.392	19270
904.51	19419
904.627	19278
904.745	19445
904.863	19377
904.981	19247
905.098	18977
905.216	19053
905.334	19031
905.451	18966
905.569	19019
905.686	19046
905.803	18943
905.921	18886
906.038	18943
906.155	18837
906.272	18745
906.389	18738
906.506	18551
906.623	18601
906.74	18452
906.857	18563
906.974	18445
907.091	18551
907.208	18734
907.324	18563
907.441	18509
907.557	18254
907.674	18289
907.79	18273
907.907	18133
908.023	18369
908.139	18243
908.256	18216
908.372	18201
908.488	18095
908.604	18079
908.72	17939
908.836	17999
908.952	17984
909.068	17939
909.184	18007
909.3	17904
909.415	17996
909.531	17866
909.647	17707
909.762	17608
909.878	17687
909.993	17684
910.108	17532
910.224	17566
910.339	17627
910.454	17501
910.57	17448
910.685	17482
910.8	17604
910.915	17566
911.03	17505
911.145	17223
911.259	17204
911.374	17265
911.489	17090
911.604	17052
911.718	17060
911.833	17048
911.947	16847
912.062	16927
912.176	16968
912.291	16927
912.405	16976
912.519	17162
912.633	17128
912.748	17014
912.862	16911
912.976	16797
913.09	16649
913.204	16812
913.318	16793
913.431	16866
913.545	16930
913.659	16763
913.772	16854
913.886	16622
914	16523
914.113	16618
914.226	16759
914.34	16694
914.453	16462
914.566	16611
914.68	16451
914.793	16421
914.906	16169
915.019	16154
915.132	16063
915.245	16105
915.358	16139
915.47	16173
915.583	16074
915.696	16200
915.809	16295
915.921	16200
916.034	16207
916.146	16059
916.259	16006
916.371	16124
916.483	15987
916.595	15964
916.708	15949
916.82	15907
916.932	15899
917.044	15854
917.156	15880
917.268	15717
917.38	15838
917.491	15774
917.603	15739
917.715	15911
917.826	15880
917.938	15732
918.049	15568
918.161	15595
918.272	15823
918.384	15747
918.495	15656
918.606	15511
918.717	15374
918.828	15469
918.939	15428
919.05	15412
919.161	15458
919.272	15245
919.383	15325
919.494	15485
919.604	15789
919.715	15481
919.826	15325
919.936	15458
920.047	15542
920.157	15408
920.267	15663
920.378	15435
920.488	15416
920.598	15622
920.708	15682
920.818	15545
920.928	15572
921.038	15785
921.148	15667
921.258	15439
921.368	15310
921.477	15157
921.587	15020
921.697	14994
921.806	15085
921.916	15028
922.025	14872
922.134	14796
922.244	14895
922.353	14811
922.462	14598
922.571	14686
922.68	14465
922.789	14438
922.898	14320
923.007	14381
923.116	14431
923.224	14358
923.333	14370
923.442	14278
923.55	14244
923.659	14366
923.767	14290
923.876	14202
923.984	14267
924.092	14062
924.201	14153
924.309	14111
924.417	14081
924.525	14046
924.633	14020
924.741	14910
924.849	13860
924.956	14020
925.064	13791
925.172	13742
925.279	13795
925.387	13814
925.494	13776
925.602	13906
925.709	13830
925.816	13674
925.924	13788
926.031	13833
926.138	13753
926.245	13765
926.352	13582
926.459	13757
926.566	13803
926.673	13616
926.779	13586
926.886	13502
926.993	13354
927.099	13346
927.206	13278
927.312	13289
927.419	13316
927.525	13327
927.631	13324
927.737	13213
927.843	13141
927.95	13023
928.056	13122
928.162	13247
928.267	13236
928.373	13704
928.479	13160
928.585	12989
928.69	13061
928.796	13076
928.901	12985
929.007	12844
929.112	12909
929.218	12985
929.323	12837
929.428	12863
929.533	12913
929.638	12779
929.743	12722
929.848	12878
929.953	12776
930.058	12662
930.163	12494
930.267	12399
930.372	12555
930.477	12464
930.581	12734
930.685	12441
930.79	12403
930.894	12426
930.998	12251
931.103	12483
931.207	12057
931.311	11996
931.415	11961
931.519	11821
931.623	11703
