Data from test_V78500241_281.txt Node
Date: Fri Mar 25 15:43:44 CST 2022
User: usil
Spectrometer: V785-0024
Trigger mode: 0
Integration Time (sec): 4.000000E-1
Scans to average: 1
Nonlinearity correction enabled: false
Boxcar width: 0
Storing dark spectrum: false
XAxis mode: Wavelengths
Number of Pixels in Spectrum: 1024
>>>>>Begin Spectral Data<<<<<
801.071	29566
801.214	29672
801.356	29478
801.499	29387
801.641	29227
801.783	29273
801.926	29364
802.068	29239
802.211	29056
802.353	29071
802.496	28900
802.638	28801
802.78	28946
802.923	28934
803.065	28869
803.208	28946
803.35	28908
803.492	29064
803.635	29094
803.777	29178
803.919	29102
804.061	29372
804.204	29197
804.346	29029
804.488	28908
804.63	29033
804.773	28980
804.915	29064
805.057	29181
805.199	29151
805.341	29265
805.483	29227
805.626	29098
805.768	29147
805.91	29086
806.052	29261
806.194	29102
806.336	29387
806.478	29273
806.62	29124
806.762	29353
806.904	29486
807.046	29672
807.188	29691
807.33	29676
807.472	29623
807.614	29395
807.756	29699
807.898	29402
808.04	29490
808.182	29273
808.324	29478
808.465	29448
808.607	29608
808.749	29691
808.891	29920
809.033	29901
809.174	29840
809.316	29862
809.458	29821
809.6	29718
809.741	29931
809.883	29946
810.025	29996
810.166	30205
810.308	30091
810.45	29961
810.591	30022
810.733	29843
810.875	29893
811.016	29668
811.158	29733
811.299	29988
811.441	29855
811.582	29954
811.724	29843
811.865	29680
812.007	29710
812.148	29809
812.29	29859
812.431	29798
812.573	30076
812.714	30182
812.855	30433
812.997	30509
813.138	30585
813.279	30399
813.421	30380
813.562	30163
813.703	30117
813.845	29840
813.986	29764
814.127	29455
814.268	29402
814.41	29421
814.551	29345
814.692	29436
814.833	29212
814.974	29273
815.115	29471
815.256	29360
815.397	29060
815.539	29402
815.68	28991
815.821	29220
815.962	29299
816.103	29136
816.244	29037
816.385	29079
816.526	28873
816.666	28637
816.807	28687
816.948	28717
817.089	28862
817.23	28565
817.371	28717
817.512	28675
817.653	28706
817.793	28683
817.934	28733
818.075	28664
818.216	28752
818.356	28519
818.497	28413
818.638	28291
818.778	28211
818.919	28478
819.06	28409
819.2	28569
819.341	28626
819.481	28569
819.622	28755
819.762	28930
819.903	28915
820.043	28888
820.184	28736
820.324	28782
820.465	28831
820.605	28774
820.746	28759
820.886	28538
821.026	28497
821.167	28649
821.307	28778
821.447	28550
821.588	28375
821.728	28443
821.868	28219
822.008	28051
822.149	27941
822.289	27983
822.429	27823
822.569	27580
822.709	27705
822.849	27485
822.99	27549
823.13	27561
823.27	27424
823.41	27310
823.55	27165
823.69	27332
823.83	27264
823.97	27359
824.11	27157
824.25	27020
824.389	27180
824.529	27325
824.669	27009
824.809	27218
824.949	27192
825.089	27222
825.228	27184
825.368	26979
825.508	27036
825.648	27013
825.787	26986
825.927	27184
826.067	26933
826.206	26967
826.346	27062
826.485	27096
826.625	26883
826.765	27017
826.904	26994
827.044	26682
827.183	26670
827.323	26598
827.462	26739
827.601	26705
827.741	26689
827.88	26640
828.02	26537
828.159	26602
828.298	26708
828.437	26758
828.577	26488
828.716	26720
828.855	26526
828.994	26309
829.134	26442
829.273	26309
829.412	26351
829.551	26313
829.69	26278
829.829	26290
829.968	26442
830.107	26377
830.246	26244
830.385	26259
830.524	26145
830.663	26202
830.802	25955
830.941	25932
831.08	25826
831.219	26054
831.357	26005
831.496	26073
831.635	25932
831.774	25826
831.913	25845
832.051	25677
832.19	25655
832.329	25704
832.467	25415
832.606	25537
832.744	25616
832.883	25453
833.022	25491
833.16	25441
833.299	25578
833.437	25540
833.576	25552
833.714	25552
833.852	25738
833.991	25544
834.129	25540
834.267	25597
834.406	25487
834.544	25586
834.682	25544
834.821	25354
834.959	25731
835.097	25441
835.235	25479
835.373	25518
835.511	25453
835.65	25354
835.788	25316
835.926	25263
836.064	25122
836.202	25141
836.34	25316
836.478	25392
836.615	25320
836.753	25331
836.891	25445
837.029	25251
837.167	25400
837.305	25350
837.443	25236
837.58	25129
837.718	25270
837.856	25209
837.993	25042
838.131	25148
838.269	24981
838.406	24935
838.544	24859
838.681	24757
838.819	24719
838.956	24627
839.094	24612
839.231	24616
839.369	24745
839.506	24985
839.643	24745
839.781	24494
839.918	24471
840.055	24528
840.193	24578
840.33	24502
840.467	24418
840.604	24502
840.742	24707
840.879	24388
841.016	24361
841.153	24414
841.29	24540
841.427	24563
841.564	24608
841.701	24559
841.838	24418
841.975	24323
842.112	24448
842.249	24296
842.385	24205
842.522	24471
842.659	24327
842.796	24197
842.933	24213
843.069	24102
843.206	24068
843.343	24228
843.479	24194
843.616	24251
843.752	23992
843.889	23954
844.025	24060
844.162	23969
844.298	24140
844.435	23942
844.571	23889
844.708	23904
844.844	24110
844.98	24110
845.117	24064
845.253	23828
845.389	23767
845.525	23775
845.661	23779
845.798	23661
845.934	23726
846.07	23646
846.206	23680
846.342	23767
846.478	23615
846.614	23391
846.75	23208
846.886	23246
847.022	23448
847.158	23490
847.294	23277
847.429	23414
847.565	23208
847.701	23524
847.837	23067
847.972	22999
848.108	23067
848.244	23098
848.379	22942
848.515	22930
848.65	23048
848.786	22980
848.921	23022
849.057	23071
849.192	22987
849.328	23018
849.463	22923
849.598	22908
849.734	22801
849.869	22691
850.004	22588
850.14	22645
850.275	22694
850.41	22592
850.545	22569
850.68	22603
850.815	22683
850.95	22683
851.085	22801
851.22	22664
851.355	22641
851.49	22588
851.625	22634
851.76	22596
851.895	22523
852.03	22474
852.165	22618
852.299	22554
852.434	22771
852.569	22713
852.703	22626
852.838	22607
852.973	22729
853.107	22752
853.242	22569
853.376	22489
853.511	22394
853.645	22314
853.78	22538
853.914	22451
854.048	22466
854.183	22504
854.317	22436
854.451	22641
854.585	22413
854.72	22466
854.854	22462
854.988	22417
855.122	22443
855.256	22333
855.39	22386
855.524	22512
855.658	22459
855.792	22261
855.926	22390
856.06	22481
856.194	22504
856.327	22436
856.461	22341
856.595	22344
856.729	22291
856.862	22447
856.996	22352
857.13	22478
857.263	22603
857.397	22409
857.53	22405
857.664	22497
857.797	22519
857.931	22596
858.064	22409
858.197	22516
858.331	22291
858.464	22421
858.597	22257
858.731	22390
858.864	22432
858.997	22314
859.13	22360
859.263	22485
859.396	22516
859.529	22322
859.662	22287
859.795	22318
859.928	22291
860.061	22489
860.194	22497
860.327	22287
860.46	22306
860.592	22470
860.725	22402
860.858	22489
860.99	22284
861.123	22371
861.256	22299
861.388	22474
861.521	22930
861.653	22249
861.786	22188
861.918	22181
862.05	22295
862.183	22276
862.315	22371
862.447	22436
862.58	22367
862.712	22124
862.844	21998
862.976	22207
863.108	22135
863.24	22455
863.372	22063
863.504	22128
863.636	22120
863.768	22055
863.9	22082
864.032	22051
864.164	21979
864.296	22036
864.428	22105
864.559	22120
864.691	22181
864.823	22109
864.954	21987
865.086	21956
865.217	21968
865.349	21956
865.48	21987
865.612	21968
865.743	22051
865.875	21956
866.006	21854
866.137	21930
866.269	21892
866.4	21884
866.531	21854
866.662	21926
866.793	21800
866.924	21945
867.055	21873
867.186	21884
867.317	21865
867.448	21656
867.579	21873
867.71	21652
867.841	21865
867.972	21880
868.103	21781
868.233	21827
868.364	21751
868.495	21949
868.625	22013
868.756	22059
868.886	22128
869.017	22055
869.147	22135
869.278	22177
869.408	22253
869.539	22070
869.669	22105
869.799	22090
869.929	22257
870.06	22295
870.19	22333
870.32	22329
870.45	22352
870.58	22417
870.71	22580
870.84	22481
870.97	22402
871.1	22542
871.23	22767
871.36	22786
871.489	22485
871.619	22584
871.749	22607
871.879	22656
872.008	22801
872.138	22740
872.267	22645
872.397	22554
872.526	22413
872.656	22531
872.785	22443
872.915	22706
873.044	22774
873.173	22683
873.303	22767
873.432	22774
873.561	22755
873.69	22672
873.819	22797
873.948	22889
874.077	22687
874.206	22637
874.335	22740
874.464	22877
874.593	22930
874.722	22847
874.851	23022
874.979	23006
875.108	22942
875.237	22839
875.365	22683
875.494	22889
875.623	22862
875.751	22915
875.88	22961
876.008	23159
876.136	23117
876.265	23307
876.393	23459
876.521	23421
876.65	23311
876.778	23395
876.906	23197
877.034	23166
877.162	23345
877.29	23311
877.418	23318
877.546	23258
877.674	23284
877.802	23220
877.93	23246
878.058	23239
878.185	23235
878.313	23280
878.441	23307
878.568	23220
878.696	23121
878.824	23277
878.951	23277
879.079	23440
879.206	23619
879.333	23402
879.461	23273
879.588	23341
879.715	23551
879.842	23566
879.97	23356
880.097	23048
880.224	23056
880.351	23178
880.478	23029
880.605	22946
880.732	23044
880.859	23200
880.986	22995
881.112	23151
881.239	23014
881.366	22824
881.493	22691
881.619	22645
881.746	22721
881.872	22569
881.999	22535
882.125	22687
882.252	22679
882.378	22607
882.505	22763
882.631	22504
882.757	22310
882.883	22375
883.01	22440
883.136	22291
883.262	22360
883.388	22162
883.514	22322
883.64	22371
883.766	22219
883.892	22196
884.018	22044
884.143	22272
884.269	22348
884.395	22173
884.52	21964
884.646	21983
884.772	21895
884.897	21850
885.023	22013
885.148	22109
885.274	22128
885.399	21998
885.524	21903
885.65	21972
885.775	21873
885.9	21869
886.025	22021
886.15	22040
886.275	21956
886.4	21899
886.525	21899
886.65	21903
886.775	21945
886.9	22150
887.025	22139
887.149	21899
887.274	21709
887.399	21755
887.523	21682
887.648	21717
887.773	21587
887.897	21736
888.021	21808
888.146	21724
888.27	21781
888.395	21819
888.519	21675
888.643	21797
888.767	21736
888.891	21599
889.015	21488
889.139	21591
889.263	21542
889.387	21557
889.511	21656
889.635	21534
889.759	21378
889.883	21389
890.006	21637
890.13	21610
890.254	21382
890.377	21374
890.501	21272
890.624	21199
890.748	21317
890.871	21214
890.995	20990
891.118	21017
891.241	21032
891.364	21066
891.488	21203
891.611	21203
891.734	21093
891.857	21028
891.98	21032
892.103	21013
892.226	21070
892.349	20956
892.471	20815
892.594	20899
892.717	20986
892.839	21085
892.962	21017
893.085	20933
893.207	20845
893.33	20826
893.452	20857
893.575	20933
893.697	20838
893.819	21036
893.941	21104
894.064	21089
894.186	20910
894.308	20838
894.43	21009
894.552	21089
894.674	20960
894.796	20937
894.918	20735
895.04	20944
895.161	21047
895.283	20986
895.405	20967
895.526	20952
895.648	20815
895.769	20895
895.891	21070
896.012	21085
896.134	20941
896.255	21009
896.376	20979
896.498	20921
896.619	21005
896.74	20921
896.861	20971
896.982	21275
897.103	21428
897.224	21226
897.345	21283
897.466	21066
897.587	21161
897.708	21260
897.828	21127
897.949	20929
898.07	20921
898.19	21074
898.311	21245
898.431	20986
898.552	21100
898.672	21119
898.792	21150
898.913	21108
899.033	20849
899.153	20895
899.273	20651
899.393	20921
899.513	20899
899.633	20781
899.753	20796
899.873	20758
899.993	20781
900.113	20575
900.232	20796
900.352	20754
900.472	20788
900.591	20575
900.711	20678
900.83	20526
900.95	20693
901.069	20773
901.189	20545
901.308	20256
901.427	20122
901.546	20168
901.665	20221
901.784	20168
901.904	19940
902.023	19921
902.141	19803
902.26	19571
902.379	19833
902.498	19605
902.617	19666
902.735	19712
902.854	19521
902.973	19472
903.091	19365
903.21	19346
903.328	19373
903.446	19110
903.565	19103
903.683	19107
903.801	19004
903.919	19080
904.038	19027
904.156	18829
904.274	18859
904.392	18806
904.51	18825
904.627	18779
904.745	18856
904.863	18829
904.981	18642
905.098	18582
905.216	18528
905.334	18570
905.451	18525
905.569	18479
905.686	18513
905.803	18498
905.921	18350
906.038	18433
906.155	18384
906.272	18178
906.389	18228
906.506	17977
906.623	18038
906.74	18045
906.857	17958
906.974	17961
907.091	18155
907.208	18102
907.324	18102
907.441	17885
907.557	17866
907.674	17714
907.79	17653
907.907	17608
908.023	17695
908.139	17733
908.256	17764
908.372	17497
908.488	17570
908.604	17440
908.72	17391
908.836	17455
908.952	17387
909.068	17440
909.184	17501
909.3	17341
909.415	17364
909.531	17368
909.647	17102
909.762	17166
909.878	17067
909.993	17277
910.108	16995
910.224	17006
910.339	17113
910.454	16991
910.57	16896
910.685	16843
910.8	17052
910.915	16987
911.03	16885
911.145	16744
911.259	16683
911.374	16725
911.489	16675
911.604	16531
911.718	16318
911.833	16561
911.947	16375
912.062	16215
912.176	16371
912.291	16394
912.405	16440
912.519	16656
912.633	16538
912.748	16348
912.862	16367
912.976	16272
913.09	16112
913.204	16181
913.318	16306
913.431	16272
913.545	16299
913.659	16306
913.772	16067
913.886	16143
914	15979
914.113	16017
914.226	16162
914.34	16082
914.453	15888
914.566	16040
914.68	15930
914.793	15979
914.906	15713
915.019	15644
915.132	15648
915.245	15648
915.358	15614
915.47	15637
915.583	15519
915.696	15694
915.809	15633
915.921	15774
916.034	15538
916.146	15504
916.259	15500
916.371	15599
916.483	15603
916.595	15507
916.708	15458
916.82	15401
916.932	15325
917.044	15386
917.156	15348
917.268	15199
917.38	15336
917.491	15214
917.603	15195
917.715	15355
917.826	15374
917.938	15154
918.049	15112
918.161	15154
918.272	15279
918.384	15313
918.495	15211
918.606	15013
918.717	14933
918.828	14887
918.939	14975
919.05	14948
919.161	14937
919.272	14716
919.383	14811
919.494	14918
919.604	15165
919.715	14857
919.826	14819
919.936	14842
920.047	15039
920.157	14918
920.267	15032
920.378	14986
920.488	14883
920.598	15032
920.708	15249
920.818	15062
920.928	14982
921.038	15077
921.148	15150
921.258	14948
921.368	14815
921.477	14659
921.587	14571
921.697	14434
921.806	14571
921.916	14488
922.025	14313
922.134	14172
922.244	14278
922.353	14183
922.462	14096
922.571	14195
922.68	13913
922.789	13788
922.898	13917
923.007	13925
923.116	13932
923.224	13947
923.333	13772
923.442	13761
923.55	13742
923.659	13700
923.767	13738
923.876	13666
923.984	13689
924.092	13575
924.201	13674
924.309	13609
924.417	13616
924.525	13510
924.633	13495
924.741	14480
924.849	13346
924.956	13411
925.064	13392
925.172	13232
925.279	13335
925.387	13247
925.494	13209
925.602	13487
925.709	13327
925.816	13110
925.924	13259
926.031	13247
926.138	13255
926.245	13266
926.352	13080
926.459	13285
926.566	13293
926.673	13126
926.779	13015
926.886	12970
926.993	12951
927.099	12871
927.206	12814
927.312	12738
927.419	12810
927.525	12783
927.631	12798
927.737	12749
927.843	12654
927.95	12566
928.056	12612
928.162	12589
928.267	12642
928.373	13384
928.479	12646
928.585	12414
928.69	12544
928.796	12658
928.901	12384
929.007	12296
929.112	12490
929.218	12536
929.323	12361
929.428	12330
929.533	12494
929.638	12369
929.743	12346
929.848	12403
929.953	12361
930.058	12171
930.163	12144
930.267	12136
930.372	12144
930.477	11980
930.581	12201
930.685	12148
930.79	11904
930.894	11912
930.998	11870
931.103	11977
931.207	11634
931.311	11581
931.415	11509
931.519	11261
931.623	11269
