Data from test_V78500241_992.txt Node
Date: Fri Mar 25 15:48:40 CST 2022
User: usil
Spectrometer: V785-0024
Trigger mode: 0
Integration Time (sec): 4.000000E-1
Scans to average: 1
Nonlinearity correction enabled: false
Boxcar width: 0
Storing dark spectrum: false
XAxis mode: Wavelengths
Number of Pixels in Spectrum: 1024
>>>>>Begin Spectral Data<<<<<
801.071	28367
801.214	28329
801.356	28013
801.499	28128
801.641	27838
801.783	27922
801.926	27907
802.068	27873
802.211	27899
802.353	27629
802.496	27599
802.638	27652
802.78	27610
802.923	27568
803.065	27492
803.208	27462
803.35	27705
803.492	27614
803.635	27728
803.777	27637
803.919	27762
804.061	28147
804.204	27743
804.346	27755
804.488	27606
804.63	27835
804.773	27717
804.915	27644
805.057	27888
805.199	27759
805.341	27819
805.483	27983
805.626	27937
805.768	27736
805.91	27934
806.052	27816
806.194	27686
806.336	28139
806.478	28036
806.62	27960
806.762	28048
806.904	28166
807.046	28382
807.188	28329
807.33	28409
807.472	28303
807.614	28310
807.756	28375
807.898	28291
808.04	28192
808.182	28284
808.324	28265
808.465	28249
808.607	28489
808.749	28436
808.891	28672
809.033	28637
809.174	28542
809.316	28622
809.458	28694
809.6	28561
809.741	28672
809.883	28729
810.025	28892
810.166	28991
810.308	28801
810.45	28748
810.591	28828
810.733	28580
810.875	28596
811.016	28474
811.158	28379
811.299	28721
811.441	28790
811.582	28820
811.724	28668
811.865	28584
812.007	28565
812.148	28706
812.29	28687
812.431	28771
812.573	29025
812.714	29052
812.855	29216
812.997	29227
813.138	29433
813.279	29345
813.421	29102
813.562	29147
813.703	28961
813.845	28748
813.986	28569
814.127	28413
814.268	28341
814.41	28314
814.551	28382
814.692	28272
814.833	28166
814.974	28257
815.115	28382
815.256	28192
815.397	28192
815.539	28196
815.68	28067
815.821	28097
815.962	28097
816.103	28070
816.244	27838
816.385	27914
816.526	27831
816.666	27709
816.807	27637
816.948	27694
817.089	27736
817.23	27679
817.371	27523
817.512	27530
817.653	27736
817.793	27515
817.934	27633
818.075	27671
818.216	27717
818.356	27496
818.497	27389
818.638	27462
818.778	27332
818.919	27389
819.06	27412
819.2	27435
819.341	27709
819.481	27504
819.622	27736
819.762	27880
819.903	27850
820.043	27766
820.184	27732
820.324	27736
820.465	27732
820.605	27637
820.746	27732
820.886	27549
821.026	27690
821.167	27698
821.307	27793
821.447	27591
821.588	27538
821.728	27370
821.868	27306
822.008	27112
822.149	27135
822.289	27051
822.429	26960
822.569	26899
822.709	26746
822.849	26724
822.99	26442
823.13	26537
823.27	26587
823.41	26465
823.55	26301
823.69	26427
823.83	26434
823.97	26275
824.11	26278
824.25	26244
824.389	26286
824.529	26442
824.669	26317
824.809	26332
824.949	26336
825.089	26389
825.228	26358
825.368	26081
825.508	26065
825.648	26088
825.787	26065
825.927	26271
826.067	26122
826.206	26069
826.346	26183
826.485	26157
826.625	26119
826.765	26153
826.904	26077
827.044	25803
827.183	25989
827.323	25784
827.462	25837
827.601	25837
827.741	25837
827.88	26073
828.02	25712
828.159	25803
828.298	25822
828.437	25868
828.577	25742
828.716	25845
828.855	25742
828.994	25537
829.134	25540
829.273	25537
829.412	25567
829.551	25346
829.69	25582
829.829	25491
829.968	25643
830.107	25601
830.246	25422
830.385	25506
830.524	25358
830.663	25327
830.802	25293
830.941	25122
831.08	25076
831.219	25209
831.357	25175
831.496	25343
831.635	25141
831.774	25080
831.913	24920
832.051	24947
832.19	24951
832.329	24966
832.467	24867
832.606	24730
832.744	24878
832.883	24760
833.022	24673
833.16	24875
833.299	24886
833.437	24745
833.576	24951
833.714	24840
833.852	24905
833.991	25023
834.129	24962
834.267	24943
834.406	24829
834.544	24810
834.682	24981
834.821	24954
834.959	25038
835.097	24787
835.235	25046
835.373	24890
835.511	24863
835.65	24741
835.788	24730
835.926	24521
836.064	24620
836.202	24414
836.34	24578
836.478	24711
836.615	24722
836.753	24627
836.891	24639
837.029	24654
837.167	24574
837.305	24631
837.443	24585
837.58	24429
837.718	24536
837.856	24517
837.993	24517
838.131	24502
838.269	24448
838.406	24460
838.544	24296
838.681	24133
838.819	24273
838.956	24068
839.094	24007
839.231	24049
839.369	24098
839.506	24262
839.643	24174
839.781	23942
839.918	23893
840.055	23996
840.193	23893
840.33	23878
840.467	23980
840.604	24003
840.742	24003
840.879	23760
841.016	23710
841.153	23745
841.29	23980
841.427	23904
841.564	23901
841.701	23882
841.838	23901
841.975	23790
842.112	23729
842.249	23714
842.385	23684
842.522	23973
842.659	23737
842.796	23638
842.933	23512
843.069	23562
843.206	23672
843.343	23604
843.479	23638
843.616	23570
843.752	23402
843.889	23372
844.025	23509
844.162	23318
844.298	23493
844.435	23398
844.571	23406
844.708	23410
844.844	23592
844.98	23608
845.117	23566
845.253	23372
845.389	23273
845.525	23254
845.661	23212
845.798	23239
845.934	23185
846.07	23048
846.206	23170
846.342	23178
846.478	23041
846.614	23010
846.75	22869
846.886	22953
847.022	22866
847.158	22949
847.294	22828
847.429	22934
847.565	22736
847.701	23067
847.837	22584
847.972	22538
848.108	22649
848.244	22683
848.379	22573
848.515	22489
848.65	22379
848.786	22512
848.921	22485
849.057	22622
849.192	22409
849.328	22470
849.463	22535
849.598	22428
849.734	22386
849.869	22284
850.004	22333
850.14	22394
850.275	22207
850.41	22188
850.545	22211
850.68	22314
850.815	22337
850.95	22120
851.085	22440
851.22	22272
851.355	22291
851.49	22082
851.625	22268
851.76	22124
851.895	22188
852.03	22051
852.165	22181
852.299	22261
852.434	22257
852.569	22268
852.703	22246
852.838	22356
852.973	22375
853.107	22337
853.242	22207
853.376	22105
853.511	21934
853.645	21998
853.78	22074
853.914	22044
854.048	22090
854.183	22158
854.317	22048
854.451	22299
854.585	22032
854.72	22090
854.854	22238
854.988	21964
855.122	22013
855.256	21964
855.39	21968
855.524	22090
855.658	22147
855.792	22143
855.926	22150
856.06	22169
856.194	22135
856.327	22025
856.461	22074
856.595	22025
856.729	21899
856.862	22150
856.996	22143
857.13	22196
857.263	22238
857.397	22135
857.53	22059
857.664	22078
857.797	22139
857.931	22158
858.064	22097
858.197	22207
858.331	22082
858.464	22036
858.597	21926
858.731	22006
858.864	22029
858.997	22006
859.13	22143
859.263	22082
859.396	22112
859.529	21991
859.662	22192
859.795	22036
859.928	22067
860.061	22234
860.194	22246
860.327	22192
860.46	22124
860.592	22177
860.725	22204
860.858	22234
860.99	22090
861.123	22002
861.256	22006
861.388	22090
861.521	22782
861.653	21895
861.786	21892
861.918	21979
862.05	21861
862.183	21922
862.315	21994
862.447	22010
862.58	21918
862.712	21831
862.844	21755
862.976	21854
863.108	21899
863.24	22147
863.372	21793
863.504	21747
863.636	21747
863.768	21873
863.9	21781
864.032	21747
864.164	21663
864.296	21762
864.428	21895
864.559	21793
864.691	21987
864.823	21823
864.954	21781
865.086	21724
865.217	21800
865.349	21641
865.48	21648
865.612	21644
865.743	21781
865.875	21785
866.006	21637
866.137	21770
866.269	21637
866.4	21633
866.531	21526
866.662	21496
866.793	21610
866.924	21564
867.055	21580
867.186	21545
867.317	21504
867.448	21549
867.579	21526
867.71	21534
867.841	21424
867.972	21660
868.103	21622
868.233	21618
868.364	21523
868.495	21644
868.625	21785
868.756	22010
868.886	21789
869.017	21861
869.147	21949
869.278	21873
869.408	21857
869.539	21846
869.669	21953
869.799	21861
869.929	21922
870.06	21926
870.19	22196
870.32	22070
870.45	22207
870.58	22272
870.71	22386
870.84	22314
870.97	22314
871.1	22215
871.23	22398
871.36	22580
871.489	22322
871.619	22360
871.749	22329
871.879	22337
872.008	22542
872.138	22398
872.267	22432
872.397	22322
872.526	22173
872.656	22356
872.785	22215
872.915	22409
873.044	22588
873.173	22455
873.303	22428
873.432	22440
873.561	22736
873.69	22455
873.819	22493
873.948	22592
874.077	22542
874.206	22478
874.335	22557
874.464	22516
874.593	22603
874.722	22683
874.851	22615
874.979	22679
875.108	22626
875.237	22561
875.365	22584
875.494	22603
875.623	22691
875.751	22599
875.88	22618
876.008	22847
876.136	22835
876.265	23071
876.393	23242
876.521	23079
876.65	23041
876.778	23124
876.906	23006
877.034	23041
877.162	22927
877.29	23003
877.418	22968
877.546	22980
877.674	22858
877.802	23006
877.93	22976
878.058	22866
878.185	22778
878.313	22805
878.441	22938
878.568	22801
878.696	23010
878.824	23052
878.951	23064
879.079	23273
879.206	23318
879.333	23079
879.461	23102
879.588	23105
879.715	23193
879.842	23227
879.97	23094
880.097	22828
880.224	22767
880.351	22717
880.478	22908
880.605	22812
880.732	22889
880.859	22991
880.986	22881
881.112	22854
881.239	22656
881.366	22447
881.493	22421
881.619	22379
881.746	22413
881.872	22421
881.999	22268
882.125	22356
882.252	22485
882.378	22421
882.505	22504
882.631	22318
882.757	22150
882.883	22166
883.01	22128
883.136	22188
883.262	22059
883.388	21945
883.514	22032
883.64	22120
883.766	21994
883.892	21808
884.018	21842
884.143	22032
884.269	22029
884.395	21812
884.52	21774
884.646	21671
884.772	21660
884.897	21564
885.023	21747
885.148	21861
885.274	21831
885.399	21717
885.524	21739
885.65	21648
885.775	21743
885.9	21705
886.025	21869
886.15	21747
886.275	21789
886.4	21545
886.525	21781
886.65	21549
886.775	21523
886.9	21819
887.025	21861
887.149	21667
887.274	21511
887.399	21416
887.523	21549
887.648	21420
887.773	21336
887.897	21591
888.021	21447
888.146	21408
888.27	21504
888.395	21435
888.519	21500
888.643	21542
888.767	21469
888.891	21340
889.015	21317
889.139	21313
889.263	21291
889.387	21344
889.511	21500
889.635	21443
889.759	21214
889.883	21340
890.006	21291
890.13	21348
890.254	21249
890.377	21237
890.501	20994
890.624	20967
890.748	21005
890.871	20849
890.995	20743
891.118	20705
891.241	20842
891.364	20781
891.488	20876
891.611	20686
891.734	20762
891.857	20868
891.98	20902
892.103	20956
892.226	20819
892.349	20693
892.471	20552
892.594	20727
892.717	20807
892.839	20667
892.962	20644
893.085	20727
893.207	20804
893.33	20556
893.452	20743
893.575	20655
893.697	20708
893.819	20815
893.941	20902
894.064	20826
894.186	20636
894.308	20617
894.43	20815
894.552	20960
894.674	20750
894.796	20598
894.918	20689
895.04	20655
895.161	20872
895.283	20705
895.405	20769
895.526	20686
895.648	20651
895.769	20716
895.891	20625
896.012	20758
896.134	20724
896.255	20826
896.376	20632
896.498	20651
896.619	20739
896.74	20530
896.861	20609
896.982	20971
897.103	21184
897.224	21039
897.345	20777
897.466	20963
897.587	20902
897.708	20982
897.828	21001
897.949	20811
898.07	20708
898.19	20838
898.311	20956
898.431	20918
898.552	20948
898.672	20986
898.792	21020
898.913	20956
899.033	20674
899.153	20765
899.273	20659
899.393	20659
899.513	20621
899.633	20632
899.753	20701
899.873	20590
899.993	20609
900.113	20606
900.232	20674
900.352	20556
900.472	20434
900.591	20423
900.711	20438
900.83	20427
900.95	20438
901.069	20545
901.189	20305
901.308	20058
901.427	20046
901.546	19970
901.665	19936
901.784	19989
901.904	19917
902.023	19666
902.141	19590
902.26	19616
902.379	19700
902.498	19426
902.617	19426
902.735	19483
902.854	19472
902.973	19369
903.091	19308
903.21	19069
903.328	19095
903.446	19240
903.565	18897
903.683	19084
903.801	18821
903.919	18875
904.038	18951
904.156	18741
904.274	18776
904.392	18798
904.51	18589
904.627	18688
904.745	18783
904.863	18726
904.981	18460
905.098	18410
905.216	18357
905.334	18437
905.451	18456
905.569	18342
905.686	18399
905.803	18388
905.921	18133
906.038	18334
906.155	18235
906.272	18129
906.389	17992
906.506	17946
906.623	17912
906.74	17977
906.857	17840
906.974	17748
907.091	17912
907.208	18041
907.324	17923
907.441	17722
907.557	17581
907.674	17695
907.79	17661
907.907	17668
908.023	17703
908.139	17627
908.256	17577
908.372	17486
908.488	17501
908.604	17406
908.72	17265
908.836	17433
908.952	17349
909.068	17421
909.184	17448
909.3	17429
909.415	17349
909.531	17414
909.647	17113
909.762	17075
909.878	17060
909.993	17018
910.108	17010
910.224	16923
910.339	16938
910.454	16889
910.57	16755
910.685	16740
910.8	17113
910.915	16968
911.03	16843
911.145	16668
911.259	16607
911.374	16527
911.489	16565
911.604	16531
911.718	16360
911.833	16325
911.947	16314
912.062	16112
912.176	16363
912.291	16398
912.405	16356
912.519	16626
912.633	16546
912.748	16474
912.862	16284
912.976	16238
913.09	16120
913.204	16150
913.318	16181
913.431	16226
913.545	16204
913.659	16219
913.772	16147
913.886	16048
914	16101
914.113	16032
914.226	16158
914.34	16044
914.453	15857
914.566	16013
914.68	15861
914.793	15762
914.906	15644
915.019	15595
915.132	15450
915.245	15614
915.358	15625
915.47	15641
915.583	15553
915.696	15542
915.809	15720
915.921	15667
916.034	15652
916.146	15424
916.259	15462
916.371	15523
916.483	15488
916.595	15416
916.708	15374
916.82	15424
916.932	15325
917.044	15416
917.156	15389
917.268	15230
917.38	15230
917.491	15150
917.603	15169
917.715	15207
917.826	15218
917.938	15161
918.049	15070
918.161	15184
918.272	15226
918.384	15199
918.495	15142
918.606	14998
918.717	14883
918.828	15051
918.939	14937
919.05	14937
919.161	14868
919.272	14682
919.383	14845
919.494	15058
919.604	15066
919.715	14948
919.826	14807
919.936	14762
920.047	14994
920.157	14872
920.267	15176
920.378	14891
920.488	14864
920.598	15180
920.708	15237
920.818	15097
920.928	15036
921.038	15142
921.148	15180
921.258	14815
921.368	14777
921.477	14689
921.587	14617
921.697	14537
921.806	14541
921.916	14514
922.025	14419
922.134	14351
922.244	14229
922.353	14328
922.462	14123
922.571	14058
922.68	13955
922.789	13875
922.898	13955
923.007	13940
923.116	14054
923.224	13902
923.333	13879
923.442	13860
923.55	13753
923.659	13772
923.767	13700
923.876	13628
923.984	13655
924.092	13616
924.201	13655
924.309	13632
924.417	13601
924.525	13525
924.633	13552
924.741	14484
924.849	13388
924.956	13384
925.064	13373
925.172	13221
925.279	13240
925.387	13339
925.494	13343
925.602	13499
925.709	13316
925.816	13236
925.924	13343
926.031	13327
926.138	13247
926.245	13270
926.352	13091
926.459	13316
926.566	13225
926.673	13190
926.779	13129
926.886	13019
926.993	12928
927.099	12825
927.206	12772
927.312	12802
927.419	12939
927.525	12817
927.631	12844
927.737	12745
927.843	12665
927.95	12582
928.056	12627
928.162	12703
928.267	12681
928.373	13255
928.479	12722
928.585	12506
928.69	12646
928.796	12734
928.901	12608
929.007	12338
929.112	12604
929.218	12445
929.323	12433
929.428	12376
929.533	12597
929.638	12323
929.743	12456
929.848	12365
929.953	12414
930.058	12285
930.163	12114
930.267	12057
930.372	12205
930.477	11999
930.581	12270
930.685	12087
930.79	12011
930.894	11897
930.998	11935
931.103	12049
931.207	11646
931.311	11672
931.415	11573
931.519	11334
931.623	11288
