Data from test_V78500241_951.txt Node
Date: Fri Mar 25 15:48:23 CST 2022
User: usil
Spectrometer: V785-0024
Trigger mode: 0
Integration Time (sec): 4.000000E-1
Scans to average: 1
Nonlinearity correction enabled: false
Boxcar width: 0
Storing dark spectrum: false
XAxis mode: Wavelengths
Number of Pixels in Spectrum: 1024
>>>>>Begin Spectral Data<<<<<
801.071	28649
801.214	28584
801.356	28291
801.499	28169
801.641	28105
801.783	28067
801.926	28124
802.068	28158
802.211	27937
802.353	27956
802.496	27857
802.638	27823
802.78	27709
802.923	27701
803.065	27671
803.208	27523
803.35	27774
803.492	27911
803.635	27934
803.777	27812
803.919	27983
804.061	28352
804.204	28059
804.346	27869
804.488	27899
804.63	27934
804.773	27823
804.915	28082
805.057	28124
805.199	27956
805.341	28120
805.483	28128
805.626	28017
805.768	28124
805.91	28192
806.052	28139
806.194	27991
806.336	28382
806.478	28280
806.62	28226
806.762	28242
806.904	28459
807.046	28672
807.188	28493
807.33	28744
807.472	28691
807.614	28713
807.756	28607
807.898	28508
808.04	28333
808.182	28485
808.324	28455
808.465	28527
808.607	28774
808.749	28888
808.891	28949
809.033	29022
809.174	28980
809.316	28869
809.458	28782
809.6	28763
809.741	28896
809.883	29075
810.025	29159
810.166	29250
810.308	29136
810.45	29060
810.591	29178
810.733	28869
810.875	28809
811.016	28824
811.158	28904
811.299	28991
811.441	29018
811.582	29105
811.724	28968
811.865	28908
812.007	28965
812.148	28915
812.29	28995
812.431	29143
812.573	29212
812.714	29318
812.855	29307
812.997	29573
813.138	29634
813.279	29600
813.421	29417
813.562	29425
813.703	29303
813.845	29140
813.986	28831
814.127	28873
814.268	28721
814.41	28637
814.551	28569
814.692	28561
814.833	28721
814.974	28519
815.115	28653
815.256	28322
815.397	28508
815.539	28413
815.68	28478
815.821	28379
815.962	28360
816.103	28363
816.244	28215
816.385	28105
816.526	28139
816.666	28124
816.807	27956
816.948	27968
817.089	28219
817.23	27789
817.371	27888
817.512	27979
817.653	27926
817.793	27968
817.934	27956
818.075	27934
818.216	27949
818.356	27724
818.497	27705
818.638	27679
818.778	27736
818.919	27625
819.06	27675
819.2	27728
819.341	27914
819.481	27968
819.622	28112
819.762	28219
819.903	28173
820.043	28082
820.184	27983
820.324	27998
820.465	28196
820.605	27994
820.746	28147
820.886	27975
821.026	28029
821.167	28021
821.307	28135
821.447	27975
821.588	27724
821.728	27732
821.868	27412
822.008	27386
822.149	27462
822.289	27241
822.429	27116
822.569	27150
822.709	27013
822.849	26899
822.99	26906
823.13	26872
823.27	26781
823.41	26708
823.55	26621
823.69	26773
823.83	26750
823.97	26712
824.11	26526
824.25	26415
824.389	26541
824.529	26644
824.669	26568
824.809	26670
824.949	26629
825.089	26785
825.228	26613
825.368	26469
825.508	26453
825.648	26488
825.787	26495
825.927	26575
826.067	26404
826.206	26499
826.346	26480
826.485	26549
826.625	26442
826.765	26511
826.904	26355
827.044	26248
827.183	26145
827.323	26145
827.462	26237
827.601	26191
827.741	26130
827.88	26126
828.02	26161
828.159	26168
828.298	26248
828.437	26157
828.577	26024
828.716	26248
828.855	26103
828.994	25864
829.134	25868
829.273	25894
829.412	25677
829.551	25742
829.69	25814
829.829	25913
829.968	25837
830.107	25833
830.246	25906
830.385	25674
830.524	25746
830.663	25655
830.802	25563
830.941	25521
831.08	25335
831.219	25472
831.357	25521
831.496	25677
831.635	25415
831.774	25502
831.913	25339
832.051	25312
832.19	25232
832.329	25194
832.467	25065
832.606	25137
832.744	24977
832.883	25129
833.022	25034
833.16	25076
833.299	25244
833.437	25164
833.576	25209
833.714	25266
833.852	25263
833.991	25308
834.129	25369
834.267	25316
834.406	25015
834.544	25251
834.682	25160
834.821	25141
834.959	25354
835.097	25069
835.235	25312
835.373	25274
835.511	25156
835.65	24924
835.788	25088
835.926	24920
836.064	24772
836.202	24878
836.34	24996
836.478	25110
836.615	24920
836.753	24962
836.891	25103
837.029	24875
837.167	24913
837.305	24916
837.443	24859
837.58	24901
837.718	24977
837.856	24878
837.993	24795
838.131	24825
838.269	24688
838.406	24795
838.544	24559
838.681	24365
838.819	24395
838.956	24388
839.094	24235
839.231	24327
839.369	24353
839.506	24791
839.643	24563
839.781	24376
839.918	24182
840.055	24251
840.193	24140
840.33	24190
840.467	24319
840.604	24258
840.742	24601
840.879	24117
841.016	24209
841.153	24114
841.29	24388
841.427	24308
841.564	24311
841.701	24254
841.838	24076
841.975	24041
842.112	24163
842.249	24117
842.385	23992
842.522	24152
842.659	23954
842.796	24060
842.933	23973
843.069	23843
843.206	23882
843.343	23973
843.479	23904
843.616	23965
843.752	23649
843.889	23813
844.025	23836
844.162	23828
844.298	23863
844.435	23805
844.571	23798
844.708	23767
844.844	23980
844.98	23897
845.117	23824
845.253	23551
845.389	23524
845.525	23726
845.661	23566
845.798	23486
845.934	23493
846.07	23516
846.206	23448
846.342	23478
846.478	23509
846.614	23246
846.75	23143
846.886	23189
847.022	23315
847.158	23235
847.294	23056
847.429	23143
847.565	23147
847.701	23463
847.837	22991
847.972	22843
848.108	22946
848.244	22915
848.379	22843
848.515	22763
848.65	22774
848.786	22656
848.921	22786
849.057	22873
849.192	22847
849.328	22873
849.463	22889
849.598	22603
849.734	22759
849.869	22542
850.004	22554
850.14	22603
850.275	22664
850.41	22580
850.545	22402
850.68	22508
850.815	22618
850.95	22535
851.085	22679
851.22	22653
851.355	22592
851.49	22485
851.625	22523
851.76	22474
851.895	22489
852.03	22474
852.165	22489
852.299	22527
852.434	22535
852.569	22588
852.703	22557
852.838	22694
852.973	22645
853.107	22618
853.242	22451
853.376	22314
853.511	22223
853.645	22352
853.78	22344
853.914	22382
854.048	22261
854.183	22333
854.317	22493
854.451	22554
854.585	22394
854.72	22341
854.854	22360
854.988	22371
855.122	22402
855.256	22162
855.39	22287
855.524	22371
855.658	22268
855.792	22299
855.926	22367
856.06	22375
856.194	22462
856.327	22299
856.461	22314
856.595	22268
856.729	22337
856.862	22485
856.996	22306
857.13	22394
857.263	22386
857.397	22352
857.53	22405
857.664	22310
857.797	22337
857.931	22360
858.064	22371
858.197	22421
858.331	22462
858.464	22230
858.597	22261
858.731	22268
858.864	22276
858.997	22322
859.13	22421
859.263	22428
859.396	22402
859.529	22287
859.662	22295
859.795	22344
859.928	22375
860.061	22538
860.194	22584
860.327	22436
860.46	22295
860.592	22440
860.725	22538
860.858	22443
860.99	22291
861.123	22356
861.256	22253
861.388	22440
861.521	23044
861.653	22310
861.786	22158
861.918	22242
862.05	22185
862.183	22158
862.315	22356
862.447	22413
862.58	22287
862.712	22063
862.844	22086
862.976	22074
863.108	22116
863.24	22474
863.372	21987
863.504	22086
863.636	22070
863.768	22150
863.9	22109
864.032	22006
864.164	21903
864.296	22078
864.428	22166
864.559	22036
864.691	22116
864.823	22063
864.954	22162
865.086	21857
865.217	21869
865.349	21911
865.48	21873
865.612	22021
865.743	22036
865.875	21983
866.006	21953
866.137	21937
866.269	21876
866.4	21873
866.531	21846
866.662	21857
866.793	21926
866.924	21907
867.055	21922
867.186	21838
867.317	21895
867.448	21762
867.579	21838
867.71	21736
867.841	21804
867.972	21819
868.103	21854
868.233	21857
868.364	21873
868.495	21907
868.625	22013
868.756	22147
868.886	22017
869.017	22128
869.147	22234
869.278	22234
869.408	22040
869.539	22074
869.669	22139
869.799	22128
869.929	22207
870.06	22173
870.19	22356
870.32	22379
870.45	22394
870.58	22451
870.71	22538
870.84	22603
870.97	22554
871.1	22440
871.23	22641
871.36	22687
871.489	22516
871.619	22725
871.749	22656
871.879	22698
872.008	22847
872.138	22622
872.267	22702
872.397	22656
872.526	22519
872.656	22653
872.785	22516
872.915	22778
873.044	22816
873.173	22664
873.303	22729
873.432	22763
873.561	22729
873.69	22736
873.819	22622
873.948	22828
874.077	22843
874.206	22710
874.335	22672
874.464	22873
874.593	22980
874.722	22816
874.851	22923
874.979	23056
875.108	23044
875.237	22828
875.365	22763
875.494	22790
875.623	23003
875.751	22881
875.88	22972
876.008	23132
876.136	23155
876.265	23364
876.393	23379
876.521	23516
876.65	23322
876.778	23345
876.906	23284
877.034	23189
877.162	23132
877.29	23231
877.418	23379
877.546	23284
877.674	23269
877.802	23162
877.93	23258
878.058	23273
878.185	23140
878.313	23277
878.441	23334
878.568	23079
878.696	23136
878.824	23307
878.951	23288
879.079	23402
879.206	23501
879.333	23429
879.461	23296
879.588	23425
879.715	23330
879.842	23600
879.97	23353
880.097	23033
880.224	22889
880.351	23178
880.478	23086
880.605	23025
880.732	23025
880.859	23414
880.986	23064
881.112	23181
881.239	22908
881.366	22820
881.493	22767
881.619	22641
881.746	22702
881.872	22656
881.999	22607
882.125	22596
882.252	22622
882.378	22542
882.505	22672
882.631	22630
882.757	22390
882.883	22337
883.01	22318
883.136	22371
883.262	22166
883.388	22192
883.514	22402
883.64	22261
883.766	22299
883.892	22078
884.018	21994
884.143	22276
884.269	22322
884.395	21930
884.52	21800
884.646	22063
884.772	21774
884.897	21717
885.023	21956
885.148	21991
885.274	22109
885.399	22139
885.524	21892
885.65	21937
885.775	22070
885.9	21998
886.025	22196
886.15	21987
886.275	21873
886.4	21918
886.525	21972
886.65	21865
886.775	21816
886.9	21975
887.025	22112
887.149	21922
887.274	21804
887.399	21701
887.523	21686
887.648	21736
887.773	21652
887.897	21625
888.021	21827
888.146	21743
888.27	21819
888.395	21812
888.519	21709
888.643	21819
888.767	21781
888.891	21694
889.015	21443
889.139	21648
889.263	21553
889.387	21564
889.511	21728
889.635	21591
889.759	21416
889.883	21469
890.006	21519
890.13	21416
890.254	21355
890.377	21481
890.501	21203
890.624	21287
890.748	21161
890.871	21268
890.995	21214
891.118	20990
891.241	21047
891.364	21036
891.488	21127
891.611	21142
891.734	21127
891.857	21131
891.98	21001
892.103	21062
892.226	21001
892.349	20910
892.471	20815
892.594	20971
892.717	20963
892.839	20937
892.962	20971
893.085	20967
893.207	21032
893.33	20708
893.452	20876
893.575	20982
893.697	21009
893.819	21058
893.941	21100
894.064	21135
894.186	20849
894.308	20868
894.43	21043
894.552	21036
894.674	21039
894.796	20838
894.918	20937
895.04	20956
895.161	20948
895.283	21001
895.405	20777
895.526	20861
895.648	20921
895.769	20956
895.891	20990
896.012	21039
896.134	21013
896.255	20872
896.376	20895
896.498	21013
896.619	21055
896.74	21009
896.861	21055
896.982	21230
897.103	21283
897.224	21173
897.345	21089
897.466	21108
897.587	21058
897.708	21222
897.828	21108
897.949	21119
898.07	21036
898.19	21070
898.311	21077
898.431	21150
898.552	21100
898.672	21165
898.792	21119
898.913	21256
899.033	20986
899.153	20933
899.273	20800
899.393	20815
899.513	20811
899.633	20792
899.753	20834
899.873	20857
899.993	20815
900.113	20853
900.232	20819
900.352	20864
900.472	20693
900.591	20629
900.711	20697
900.83	20583
900.95	20727
901.069	20716
901.189	20412
901.308	20206
901.427	20252
901.546	20195
901.665	20244
901.784	20309
901.904	20153
902.023	19944
902.141	19849
902.26	19772
902.379	19830
902.498	19776
902.617	19670
902.735	19700
902.854	19590
902.973	19635
903.091	19422
903.21	19339
903.328	19457
903.446	19320
903.565	19126
903.683	19308
903.801	19042
903.919	19118
904.038	18973
904.156	19023
904.274	18886
904.392	18840
904.51	18791
904.627	18909
904.745	19076
904.863	19008
904.981	18837
905.098	18665
905.216	18665
905.334	18604
905.451	18517
905.569	18555
905.686	18585
905.803	18684
905.921	18391
906.038	18410
906.155	18448
906.272	18262
906.389	18308
906.506	18213
906.623	18152
906.74	18110
906.857	17977
906.974	18057
907.091	18292
907.208	18205
907.324	18019
907.441	17931
907.557	17889
907.674	17851
907.79	17775
907.907	17684
908.023	17885
908.139	17863
908.256	17809
908.372	17756
908.488	17703
908.604	17661
908.72	17452
908.836	17604
908.952	17566
909.068	17566
909.184	17634
909.3	17486
909.415	17608
909.531	17532
909.647	17292
909.762	17178
909.878	17284
909.993	17273
910.108	17227
910.224	17155
910.339	17277
910.454	17159
910.57	17045
910.685	16911
910.8	17307
910.915	17181
911.03	17010
911.145	16873
911.259	16919
911.374	16767
911.489	16774
911.604	16755
911.718	16618
911.833	16596
911.947	16428
912.062	16424
912.176	16691
912.291	16508
912.405	16497
912.519	16759
912.633	16797
912.748	16493
912.862	16527
912.976	16363
913.09	16230
913.204	16337
913.318	16432
913.431	16424
913.545	16436
913.659	16428
913.772	16284
913.886	16116
914	16162
914.113	16207
914.226	16299
914.34	16253
914.453	16067
914.566	16238
914.68	15991
914.793	15941
914.906	15759
915.019	15778
915.132	15652
915.245	15667
915.358	15770
915.47	15751
915.583	15819
915.696	15770
915.809	15865
915.921	15892
916.034	15751
916.146	15652
916.259	15538
916.371	15713
916.483	15648
916.595	15564
916.708	15473
916.82	15515
916.932	15523
917.044	15526
917.156	15530
917.268	15492
917.38	15420
917.491	15435
917.603	15447
917.715	15443
917.826	15542
917.938	15424
918.049	15230
918.161	15359
918.272	15450
918.384	15443
918.495	15332
918.606	15211
918.717	15066
918.828	15184
918.939	15081
919.05	15036
919.161	15081
919.272	14941
919.383	14914
919.494	15161
919.604	15378
919.715	15089
919.826	14937
919.936	15005
920.047	15142
920.157	15058
920.267	15287
920.378	15074
920.488	14971
920.598	15294
920.708	15428
920.818	15233
920.928	15203
921.038	15370
921.148	15359
921.258	14986
921.368	15017
921.477	14872
921.587	14758
921.697	14712
921.806	14902
921.916	14629
922.025	14518
922.134	14415
922.244	14465
922.353	14438
922.462	14298
922.571	14248
922.68	14062
922.789	14157
922.898	14062
923.007	13967
923.116	14084
923.224	14077
923.333	14050
923.442	13906
923.55	13879
923.659	14016
923.767	13951
923.876	13928
923.984	13951
924.092	13731
924.201	13833
924.309	13845
924.417	13833
924.525	13719
924.633	13738
924.741	14625
924.849	13544
924.956	13613
925.064	13453
925.172	13457
925.279	13468
925.387	13472
925.494	13476
925.602	13529
925.709	13457
925.816	13388
925.924	13400
926.031	13563
926.138	13445
926.245	13434
926.352	13324
926.459	13346
926.566	13415
926.673	13381
926.779	13221
926.886	13137
926.993	13076
927.099	12985
927.206	13004
927.312	13034
927.419	13042
927.525	12928
927.631	13038
927.737	12875
927.843	12894
927.95	12688
928.056	12901
928.162	12829
928.267	12878
928.373	13282
928.479	12848
928.585	12650
928.69	12760
928.796	12719
928.901	12635
929.007	12479
929.112	12730
929.218	12662
929.323	12544
929.428	12574
929.533	12677
929.638	12471
929.743	12475
929.848	12536
929.953	12433
930.058	12384
930.163	12224
930.267	12270
930.372	12353
930.477	12129
930.581	12361
930.685	12235
930.79	12079
930.894	12045
930.998	12053
931.103	12171
931.207	11824
931.311	11790
931.415	11661
931.519	11562
931.623	11455
