Data from test_V78500241_834.txt Node
Date: Fri Mar 25 15:47:34 CST 2022
User: usil
Spectrometer: V785-0024
Trigger mode: 0
Integration Time (sec): 4.000000E-1
Scans to average: 1
Nonlinearity correction enabled: false
Boxcar width: 0
Storing dark spectrum: false
XAxis mode: Wavelengths
Number of Pixels in Spectrum: 1024
>>>>>Begin Spectral Data<<<<<
801.071	27169
801.214	27055
801.356	26800
801.499	26815
801.641	26583
801.783	26682
801.926	26731
802.068	26636
802.211	26469
802.353	26415
802.496	26317
802.638	26275
802.78	26282
802.923	26164
803.065	26103
803.208	26229
803.35	26248
803.492	26233
803.635	26442
803.777	26271
803.919	26282
804.061	26705
804.204	26476
804.346	26263
804.488	26263
804.63	26434
804.773	26210
804.915	26377
805.057	26374
805.199	26465
805.341	26442
805.483	26606
805.626	26526
805.768	26320
805.91	26492
806.052	26423
806.194	26427
806.336	26701
806.478	26560
806.62	26594
806.762	26613
806.904	26785
807.046	27184
807.188	27017
807.33	26853
807.472	26975
807.614	26724
807.756	26815
807.898	26785
808.04	26617
808.182	26785
808.324	26640
808.465	26823
808.607	26998
808.749	26910
808.891	27119
809.033	27329
809.174	27176
809.316	27039
809.458	27218
809.6	27020
809.741	27313
809.883	27275
810.025	27370
810.166	27306
810.308	27279
810.45	27355
810.591	27294
810.733	27127
810.875	27096
811.016	27001
811.158	27005
811.299	27188
811.441	27310
811.582	27264
811.724	27096
811.865	27055
812.007	27093
812.148	27036
812.29	27036
812.431	27287
812.573	27447
812.714	27462
812.855	27542
812.997	27679
813.138	27918
813.279	27694
813.421	27568
813.562	27637
813.703	27393
813.845	27176
813.986	27009
814.127	26788
814.268	26788
814.41	26697
814.551	26689
814.692	26792
814.833	26853
814.974	26663
815.115	26849
815.256	26587
815.397	26522
815.539	26545
815.68	26511
815.821	26389
815.962	26564
816.103	26537
816.244	26332
816.385	26358
816.526	26320
816.666	26233
816.807	25921
816.948	26096
817.089	26115
817.23	25978
817.371	26050
817.512	26012
817.653	26016
817.793	26081
817.934	25978
818.075	26043
818.216	26005
818.356	26024
818.497	25955
818.638	25704
818.778	25666
818.919	25833
819.06	25852
819.2	26142
819.341	26065
819.481	25951
819.622	26168
819.762	26396
819.903	26229
820.043	26107
820.184	26058
820.324	26100
820.465	26214
820.605	26054
820.746	26157
820.886	25902
821.026	26081
821.167	26107
821.307	26130
821.447	26039
821.588	25860
821.728	25841
821.868	25601
822.008	25578
822.149	25358
822.289	25346
822.429	25301
822.569	25251
822.709	25270
822.849	24985
822.99	25031
823.13	24943
823.27	24905
823.41	24654
823.55	24738
823.69	24707
823.83	24749
823.97	24825
824.11	24684
824.25	24540
824.389	24650
824.529	24711
824.669	24734
824.809	24795
824.949	24745
825.089	24760
825.228	24696
825.368	24547
825.508	24422
825.648	24486
825.787	24376
825.927	24650
826.067	24448
826.206	24498
826.346	24441
826.485	24498
826.625	24445
826.765	24608
826.904	24407
827.044	24076
827.183	24289
827.323	24155
827.462	24190
827.601	24224
827.741	24121
827.88	24148
828.02	24041
828.159	24159
828.298	24110
828.437	24262
828.577	24068
828.716	24270
828.855	24182
828.994	23946
829.134	23764
829.273	23836
829.412	23843
829.551	23805
829.69	23824
829.829	23977
829.968	23897
830.107	23999
830.246	23969
830.385	23786
830.524	23756
830.663	23573
830.802	23581
830.941	23531
831.08	23391
831.219	23482
831.357	23558
831.496	23790
831.635	23528
831.774	23436
831.913	23406
832.051	23288
832.19	23326
832.329	23246
832.467	23128
832.606	23044
832.744	23079
832.883	23208
833.022	23254
833.16	23151
833.299	23239
833.437	23140
833.576	23269
833.714	23200
833.852	23277
833.991	23212
834.129	23242
834.267	23341
834.406	23151
834.544	23315
834.682	23166
834.821	23204
834.959	23220
835.097	23185
835.235	23193
835.373	23250
835.511	23113
835.65	23159
835.788	23006
835.926	22934
836.064	22900
836.202	22999
836.34	23079
836.478	22999
836.615	22972
836.753	23079
836.891	23174
837.029	23025
837.167	23067
837.305	22949
837.443	23018
837.58	22953
837.718	22946
837.856	22911
837.993	22869
838.131	22881
838.269	22748
838.406	22797
838.544	22694
838.681	22554
838.819	22497
838.956	22428
839.094	22344
839.231	22519
839.369	22447
839.506	22744
839.643	22622
839.781	22272
839.918	22337
840.055	22440
840.193	22424
840.33	22303
840.467	22348
840.604	22356
840.742	22664
840.879	22268
841.016	22284
841.153	22249
841.29	22379
841.427	22276
841.564	22322
841.701	22242
841.838	22253
841.975	22261
842.112	22280
842.249	22265
842.385	22139
842.522	22318
842.659	22154
842.796	21994
842.933	22097
843.069	21975
843.206	22025
843.343	22169
843.479	22006
843.616	22010
843.752	21797
843.889	21751
844.025	21964
844.162	21876
844.298	21842
844.435	21812
844.571	21781
844.708	21804
844.844	22013
844.98	21972
845.117	21884
845.253	21857
845.389	21682
845.525	21732
845.661	21679
845.798	21561
845.934	21641
846.07	21549
846.206	21606
846.342	21618
846.478	21393
846.614	21473
846.75	21188
846.886	21256
847.022	21302
847.158	21298
847.294	21393
847.429	21325
847.565	21245
847.701	21542
847.837	20941
847.972	21081
848.108	21047
848.244	21074
848.379	20960
848.515	20937
848.65	20899
848.786	20937
848.921	20902
849.057	21032
849.192	20986
849.328	20963
849.463	20876
849.598	20883
849.734	20800
849.869	20765
850.004	20716
850.14	20689
850.275	20640
850.41	20594
850.545	20621
850.68	20526
850.815	20655
850.95	20625
851.085	20845
851.22	20674
851.355	20655
851.49	20587
851.625	20594
851.76	20590
851.895	20724
852.03	20541
852.165	20579
852.299	20762
852.434	20670
852.569	20842
852.703	20663
852.838	20712
852.973	20773
853.107	20792
853.242	20533
853.376	20568
853.511	20446
853.645	20473
853.78	20625
853.914	20549
854.048	20503
854.183	20530
854.317	20587
854.451	20667
854.585	20446
854.72	20503
854.854	20552
854.988	20415
855.122	20484
855.256	20298
855.39	20552
855.524	20587
855.658	20568
855.792	20457
855.926	20545
856.06	20571
856.194	20526
856.327	20492
856.461	20457
856.595	20450
856.729	20476
856.862	20670
856.996	20568
857.13	20552
857.263	20587
857.397	20564
857.53	20393
857.664	20594
857.797	20518
857.931	20648
858.064	20556
858.197	20613
858.331	20484
858.464	20427
858.597	20404
858.731	20427
858.864	20446
858.997	20552
859.13	20476
859.263	20507
859.396	20568
859.529	20522
859.662	20393
859.795	20461
859.928	20492
860.061	20663
860.194	20632
860.327	20583
860.46	20594
860.592	20629
860.725	20686
860.858	20724
860.99	20598
861.123	20476
861.256	20431
861.388	20461
861.521	21077
861.653	20313
861.786	20237
861.918	20309
862.05	20298
862.183	20434
862.315	20446
862.447	20575
862.58	20252
862.712	20233
862.844	20153
862.976	20278
863.108	20180
863.24	20701
863.372	20111
863.504	20324
863.636	20210
863.768	20119
863.9	20161
864.032	20119
864.164	20202
864.296	20275
864.428	20355
864.559	20332
864.691	20275
864.823	20313
864.954	20119
865.086	20191
865.217	20206
865.349	20161
865.48	20119
865.612	20142
865.743	20278
865.875	20039
866.006	20039
866.137	20252
866.269	20020
866.4	20130
866.531	20035
866.662	19978
866.793	19997
866.924	20062
867.055	20122
867.186	20027
867.317	20130
867.448	19982
867.579	20115
867.71	19864
867.841	19955
867.972	20092
868.103	20016
868.233	20168
868.364	20130
868.495	20164
868.625	20381
868.756	20396
868.886	20145
869.017	20396
869.147	20438
869.278	20442
869.408	20278
869.539	20233
869.669	20336
869.799	20362
869.929	20545
870.06	20396
870.19	20549
870.32	20640
870.45	20583
870.58	20823
870.71	20777
870.84	20845
870.97	20735
871.1	20716
871.23	20834
871.36	20975
871.489	20765
871.619	20842
871.749	20933
871.879	20902
872.008	21005
872.138	20937
872.267	20800
872.397	20773
872.526	20644
872.656	20731
872.785	20788
872.915	20929
873.044	20998
873.173	20864
873.303	21077
873.432	21020
873.561	20975
873.69	20895
873.819	21005
873.948	21047
874.077	21096
874.206	21009
874.335	20990
874.464	21100
874.593	21226
874.722	21058
874.851	21256
874.979	21195
875.108	21157
875.237	21112
875.365	21077
875.494	21020
875.623	21260
875.751	21199
875.88	21157
876.008	21287
876.136	21279
876.265	21564
876.393	21694
876.521	21644
876.65	21557
876.778	21466
876.906	21481
877.034	21515
877.162	21538
877.29	21515
877.418	21595
877.546	21553
877.674	21557
877.802	21542
877.93	21519
878.058	21606
878.185	21507
878.313	21439
878.441	21424
878.568	21298
878.696	21443
878.824	21564
878.951	21561
879.079	21667
879.206	21876
879.333	21671
879.461	21622
879.588	21698
879.715	21785
879.842	21827
879.97	21538
880.097	21332
880.224	21397
880.351	21348
880.478	21370
880.605	21287
880.732	21306
880.859	21507
880.986	21344
881.112	21317
881.239	21317
881.366	20990
881.493	20956
881.619	21005
881.746	20998
881.872	20967
881.999	20864
882.125	20804
882.252	20853
882.378	21005
882.505	21043
882.631	20796
882.757	20587
882.883	20724
883.01	20686
883.136	20598
883.262	20541
883.388	20495
883.514	20651
883.64	20674
883.766	20526
883.892	20484
884.018	20396
884.143	20629
884.269	20617
884.395	20396
884.52	20286
884.646	20317
884.772	20290
884.897	20122
885.023	20286
885.148	20415
885.274	20533
885.399	20476
885.524	20396
885.65	20298
885.775	20240
885.9	20358
886.025	20385
886.15	20461
886.275	20320
886.4	20119
886.525	20168
886.65	20168
886.775	20122
886.9	20469
887.025	20469
887.149	20244
887.274	20153
887.399	20077
887.523	19928
887.648	20084
887.773	20134
887.897	20225
888.021	20195
888.146	20092
888.27	20149
888.395	20130
888.519	20111
888.643	20122
888.767	20092
888.891	19940
889.015	19925
889.139	19902
889.263	19868
889.387	19951
889.511	19944
889.635	20081
889.759	19822
889.883	19902
890.006	19830
890.13	19974
890.254	19814
890.377	19791
890.501	19582
890.624	19670
890.748	19647
890.871	19582
890.995	19487
891.118	19369
891.241	19506
891.364	19422
891.488	19620
891.611	19571
891.734	19411
891.857	19377
891.98	19464
892.103	19556
892.226	19510
892.349	19472
892.471	19354
892.594	19422
892.717	19388
892.839	19339
892.962	19400
893.085	19487
893.207	19331
893.33	19209
893.452	19247
893.575	19381
893.697	19396
893.819	19578
893.941	19544
894.064	19556
894.186	19232
894.308	19221
894.43	19518
894.552	19495
894.674	19480
894.796	19282
894.918	19403
895.04	19327
895.161	19537
895.283	19384
895.405	19365
895.526	19434
895.648	19381
895.769	19457
895.891	19510
896.012	19601
896.134	19415
896.255	19438
896.376	19415
896.498	19438
896.619	19430
896.74	19373
896.861	19422
896.982	19655
897.103	19841
897.224	19708
897.345	19643
897.466	19742
897.587	19658
897.708	19670
897.828	19674
897.949	19514
898.07	19460
898.19	19502
898.311	19704
898.431	19681
898.552	19712
898.672	19704
898.792	19700
898.913	19616
899.033	19613
899.153	19457
899.273	19285
899.393	19316
899.513	19388
899.633	19521
899.753	19495
899.873	19270
899.993	19350
900.113	19415
900.232	19369
900.352	19304
900.472	19251
900.591	19160
900.711	19255
900.83	19148
900.95	19282
901.069	19403
901.189	19076
901.308	18833
901.427	18779
901.546	18798
901.665	18863
901.784	18802
901.904	18578
902.023	18563
902.141	18327
902.26	18327
902.379	18369
902.498	18292
902.617	18262
902.735	18429
902.854	18323
902.973	18136
903.091	17996
903.21	17965
903.328	17946
903.446	17866
903.565	17851
903.683	17767
903.801	17684
903.919	17634
904.038	17790
904.156	17684
904.274	17630
904.392	17497
904.51	17585
904.627	17528
904.745	17585
904.863	17585
904.981	17353
905.098	17200
905.216	17204
905.334	17280
905.451	17360
905.569	17254
905.686	17284
905.803	17303
905.921	17086
906.038	17048
906.155	17102
906.272	16930
906.389	16896
906.506	16748
906.623	16782
906.74	16774
906.857	16729
906.974	16713
907.091	16923
907.208	16828
907.324	16873
907.441	16740
907.557	16519
907.674	16440
907.79	16569
907.907	16500
908.023	16485
908.139	16573
908.256	16523
908.372	16462
908.488	16371
908.604	16306
908.72	16242
908.836	16272
908.952	16249
909.068	16329
909.184	16265
909.3	16207
909.415	16173
909.531	16276
909.647	15956
909.762	15941
909.878	15937
909.993	16048
910.108	15949
910.224	15979
910.339	15865
910.454	15800
910.57	15724
910.685	15629
910.8	16021
910.915	15937
911.03	15789
911.145	15572
911.259	15515
911.374	15477
911.489	15386
911.604	15351
911.718	15302
911.833	15291
911.947	15211
912.062	15173
912.176	15279
912.291	15310
912.405	15199
912.519	15416
912.633	15515
912.748	15272
912.862	15233
912.976	15070
913.09	15055
913.204	15089
913.318	15176
913.431	15154
913.545	15116
913.659	15150
913.772	15039
913.886	15036
914	14944
914.113	15017
914.226	15097
914.34	15058
914.453	14811
914.566	15089
914.68	14826
914.793	14868
914.906	14598
915.019	14564
915.132	14541
915.245	14537
915.358	14568
915.47	14564
915.583	14560
915.696	14712
915.809	14629
915.921	14644
916.034	14415
916.146	14526
916.259	14408
916.371	14549
916.483	14507
916.595	14389
916.708	14358
916.82	14381
916.932	14343
917.044	14400
917.156	14339
917.268	14256
917.38	14210
917.491	14153
917.603	14271
917.715	14225
917.826	14396
917.938	14183
918.049	14096
918.161	14233
918.272	14324
918.384	14328
918.495	14286
918.606	14145
918.717	13955
918.828	13894
918.939	14054
919.05	13890
919.161	14062
919.272	13814
919.383	13769
919.494	14062
919.604	14195
919.715	14016
919.826	13833
919.936	13936
920.047	13955
920.157	14065
920.267	14161
920.378	14054
920.488	13921
920.598	14103
920.708	14267
920.818	14046
920.928	14081
921.038	14259
921.148	14244
921.258	13902
921.368	13860
921.477	13753
921.587	13731
921.697	13586
921.806	13788
921.916	13521
922.025	13384
922.134	13392
922.244	13369
922.353	13365
922.462	13263
922.571	13164
922.68	13065
922.789	13000
922.898	13107
923.007	12958
923.116	13023
923.224	12962
923.333	13012
923.442	12806
923.55	12863
923.659	12924
923.767	12916
923.876	12798
923.984	12943
924.092	12791
924.201	12852
924.309	12722
924.417	12833
924.525	12734
924.633	12654
924.741	13601
924.849	12471
924.956	12677
925.064	12563
925.172	12456
925.279	12475
925.387	12403
925.494	12540
925.602	12631
925.709	12574
925.816	12414
925.924	12403
926.031	12475
926.138	12380
926.245	12422
926.352	12353
926.459	12486
926.566	12475
926.673	12315
926.779	12292
926.886	12148
926.993	12190
927.099	11942
927.206	12068
927.312	12015
927.419	12057
927.525	12026
927.631	12072
927.737	11878
927.843	11851
927.95	11756
928.056	11809
928.162	11904
928.267	11965
928.373	12528
928.479	12015
928.585	11748
928.69	11809
928.796	11878
928.901	11863
929.007	11646
929.112	11783
929.218	11764
929.323	11668
929.428	11672
929.533	11741
929.638	11638
929.743	11634
929.848	11653
929.953	11585
930.058	11425
930.163	11235
930.267	11307
930.372	11478
930.477	11406
930.581	11554
930.685	11391
930.79	11220
930.894	11254
930.998	11143
931.103	11334
931.207	10953
931.311	10953
931.415	10850
931.519	10645
931.623	10580
