Data from test_V78500241_2294.txt Node
Date: Fri Mar 25 15:57:41 CST 2022
User: usil
Spectrometer: V785-0024
Trigger mode: 0
Integration Time (sec): 4.000000E-1
Scans to average: 1
Nonlinearity correction enabled: false
Boxcar width: 0
Storing dark spectrum: false
XAxis mode: Wavelengths
Number of Pixels in Spectrum: 1024
>>>>>Begin Spectral Data<<<<<
801.071	29071
801.214	29006
801.356	28683
801.499	28786
801.641	28607
801.783	28649
801.926	28793
802.068	28683
802.211	28706
802.353	28611
802.496	28360
802.638	28584
802.78	28344
802.923	28257
803.065	28150
803.208	28367
803.35	28561
803.492	28664
803.635	28755
803.777	28573
803.919	28653
804.061	28866
804.204	28706
804.346	28706
804.488	28538
804.63	28675
804.773	28565
804.915	28820
805.057	28816
805.199	28687
805.341	28858
805.483	28740
805.626	28816
805.768	28672
805.91	28862
806.052	28854
806.194	28721
806.336	29037
806.478	28812
806.62	28892
806.762	28953
806.904	29178
807.046	29315
807.188	29436
807.33	29387
807.472	29368
807.614	29200
807.756	29197
807.898	29113
808.04	29204
808.182	29071
808.324	29250
808.465	29296
808.607	29341
808.749	29649
808.891	29756
809.033	29680
809.174	29581
809.316	29573
809.458	29585
809.6	29539
809.741	29798
809.883	29665
810.025	29916
810.166	29847
810.308	29859
810.45	29805
810.591	29687
810.733	29714
810.875	29486
811.016	29425
811.158	29398
811.299	29611
811.441	29764
811.582	29737
811.724	29596
811.865	29611
812.007	29611
812.148	29524
812.29	29657
812.431	29741
812.573	30083
812.714	30106
812.855	30045
812.997	30102
813.138	30429
813.279	30266
813.421	30068
813.562	29980
813.703	30064
813.845	29824
813.986	29501
814.127	29383
814.268	29356
814.41	29421
814.551	29277
814.692	29535
814.833	29258
814.974	29269
815.115	29360
815.256	29140
815.397	29254
815.539	29288
815.68	29151
815.821	29060
815.962	29140
816.103	29105
816.244	29117
816.385	28892
816.526	28858
816.666	28824
816.807	28637
816.948	28786
817.089	28763
817.23	28725
817.371	28729
817.512	28565
817.653	28668
817.793	28398
817.934	28691
818.075	28736
818.216	28729
818.356	28634
818.497	28588
818.638	28276
818.778	28367
818.919	28409
819.06	28592
819.2	28485
819.341	28717
819.481	28782
819.622	28786
819.762	29083
819.903	28847
820.043	28774
820.184	28607
820.324	28816
820.465	28873
820.605	28698
820.746	28786
820.886	28793
821.026	28702
821.167	28755
821.307	28778
821.447	28672
821.588	28626
821.728	28504
821.868	28322
822.008	28257
822.149	28150
822.289	28086
822.429	27899
822.569	27739
822.709	27705
822.849	27614
822.99	27568
823.13	27572
823.27	27488
823.41	27515
823.55	27340
823.69	27363
823.83	27340
823.97	27393
824.11	27325
824.25	27154
824.389	27249
824.529	27481
824.669	27237
824.809	27431
824.949	27405
825.089	27504
825.228	27321
825.368	27169
825.508	27051
825.648	27070
825.787	27127
825.927	27184
826.067	27146
826.206	27138
826.346	27264
826.485	27184
826.625	27188
826.765	27203
826.904	27237
827.044	27036
827.183	26857
827.323	26899
827.462	26994
827.601	26826
827.741	26857
827.88	26864
828.02	26804
828.159	26956
828.298	26899
828.437	26857
828.577	26743
828.716	27039
828.855	26739
828.994	26716
829.134	26526
829.273	26678
829.412	26537
829.551	26476
829.69	26613
829.829	26625
829.968	26686
830.107	26682
830.246	26556
830.385	26598
830.524	26541
830.663	26419
830.802	26271
830.941	26149
831.08	26039
831.219	26237
831.357	26290
831.496	26518
831.635	26088
831.774	26195
831.913	26073
832.051	25913
832.19	26062
832.329	25951
832.467	25830
832.606	25803
832.744	25803
832.883	25765
833.022	25925
833.16	25898
833.299	25849
833.437	25856
833.576	25898
833.714	25993
833.852	25951
833.991	25947
834.129	25978
834.267	25959
834.406	25887
834.544	25917
834.682	25902
834.821	25898
834.959	26077
835.097	25875
835.235	25856
835.373	25871
835.511	25898
835.65	25639
835.788	25753
835.926	25628
836.064	25613
836.202	25510
836.34	25746
836.478	25696
836.615	25719
836.753	25883
836.891	25860
837.029	25784
837.167	25666
837.305	25647
837.443	25616
837.58	25540
837.718	25700
837.856	25483
837.993	25426
838.131	25655
838.269	25365
838.406	25506
838.544	25426
838.681	25175
838.819	25282
838.956	24958
839.094	25072
839.231	25069
839.369	25225
839.506	25518
839.643	25206
839.781	25019
839.918	24924
840.055	24913
840.193	24966
840.33	25004
840.467	24932
840.604	24859
840.742	25160
840.879	24787
841.016	24817
841.153	24779
841.29	24932
841.427	24897
841.564	25137
841.701	24913
841.838	24821
841.975	24814
842.112	24795
842.249	24711
842.385	24711
842.522	24863
842.659	24783
842.796	24646
842.933	24692
843.069	24616
843.206	24574
843.343	24681
843.479	24612
843.616	24681
843.752	24646
843.889	24612
844.025	24597
844.162	24410
844.298	24448
844.435	24422
844.571	24479
844.708	24391
844.844	24559
844.98	24616
845.117	24559
845.253	24361
845.389	24338
845.525	24182
845.661	24171
845.798	24163
845.934	24159
846.07	24057
846.206	24262
846.342	24353
846.478	24072
846.614	24007
846.75	23882
846.886	23882
847.022	23958
847.158	23851
847.294	23901
847.429	23824
847.565	23821
847.701	23999
847.837	23596
847.972	23600
848.108	23699
848.244	23611
848.379	23486
848.515	23596
848.65	23387
848.786	23528
848.921	23638
849.057	23566
849.192	23547
849.328	23512
849.463	23501
849.598	23360
849.734	23372
849.869	23200
850.004	23239
850.14	23136
850.275	23197
850.41	23121
850.545	23052
850.68	23223
850.815	23181
850.95	23258
851.085	23436
851.22	23490
851.355	23216
851.49	23254
851.625	23178
851.76	23231
851.895	23220
852.03	23170
852.165	23242
852.299	23143
852.434	23292
852.569	23220
852.703	23242
852.838	23303
852.973	23406
853.107	23250
853.242	23033
853.376	23083
853.511	22946
853.645	22965
853.78	23086
853.914	23086
854.048	23018
854.183	23033
854.317	23128
854.451	23265
854.585	23121
854.72	23041
854.854	23212
854.988	22968
855.122	23136
855.256	22957
855.39	22949
855.524	23151
855.658	23181
855.792	23048
855.926	23105
856.06	23071
856.194	23189
856.327	22995
856.461	23006
856.595	22908
856.729	23086
856.862	23121
856.996	23041
857.13	23136
857.263	23178
857.397	23140
857.53	23090
857.664	23117
857.797	23113
857.931	23216
858.064	23155
858.197	23212
858.331	22946
858.464	23086
858.597	22946
858.731	23022
858.864	22972
858.997	23044
859.13	23018
859.263	22908
859.396	23140
859.529	23094
859.662	22866
859.795	23006
859.928	23056
860.061	23185
860.194	23239
860.327	23094
860.46	23132
860.592	23128
860.725	23280
860.858	23124
860.99	23029
861.123	22923
861.256	23006
861.388	23022
861.521	23885
861.653	22900
861.786	22809
861.918	22862
862.05	23064
862.183	22923
862.315	22965
862.447	23048
862.58	22976
862.712	22740
862.844	22706
862.976	22759
863.108	22858
863.24	23170
863.372	22786
863.504	22755
863.636	22668
863.768	22782
863.9	22706
864.032	22675
864.164	22675
864.296	22721
864.428	22858
864.559	22820
864.691	22782
864.823	22752
864.954	22721
865.086	22561
865.217	22759
865.349	22596
865.48	22504
865.612	22698
865.743	22721
865.875	22668
866.006	22500
866.137	22557
866.269	22672
866.4	22630
866.531	22436
866.662	22440
866.793	22687
866.924	22493
867.055	22596
867.186	22436
867.317	22588
867.448	22363
867.579	22565
867.71	22424
867.841	22371
867.972	22466
868.103	22599
868.233	22535
868.364	22557
868.495	22637
868.625	22812
868.756	22892
868.886	22713
869.017	22812
869.147	22828
869.278	22862
869.408	22854
869.539	22801
869.669	22805
869.799	22835
869.929	22911
870.06	22831
870.19	23147
870.32	23029
870.45	23170
870.58	23109
870.71	23258
870.84	23242
870.97	23113
871.1	23212
871.23	23334
871.36	23318
871.489	23364
871.619	23349
871.749	23330
871.879	23254
872.008	23436
872.138	23364
872.267	23364
872.397	23258
872.526	23197
872.656	23212
872.785	23296
872.915	23402
873.044	23444
873.173	23379
873.303	23463
873.432	23440
873.561	23467
873.69	23353
873.819	23406
873.948	23421
874.077	23531
874.206	23280
874.335	23345
874.464	23547
874.593	23627
874.722	23707
874.851	23638
874.979	23589
875.108	23729
875.237	23520
875.365	23433
875.494	23611
875.623	23722
875.751	23596
875.88	23668
876.008	23786
876.136	23805
876.265	23908
876.393	24057
876.521	24171
876.65	23863
876.778	24011
876.906	23779
877.034	23908
877.162	23855
877.29	23790
877.418	23912
877.546	23965
877.674	24060
877.802	24045
877.93	23931
878.058	23824
878.185	23748
878.313	23851
878.441	23923
878.568	23855
878.696	23775
878.824	23908
878.951	23965
879.079	24133
879.206	24273
879.333	24060
879.461	24030
879.588	24060
879.715	24098
879.842	24144
879.97	23927
880.097	23695
880.224	23805
880.351	23840
880.478	23726
880.605	23726
880.732	23729
880.859	23996
880.986	23710
881.112	23703
881.239	23520
881.366	23425
881.493	23440
881.619	23315
881.746	23398
881.872	23364
881.999	23227
882.125	23231
882.252	23239
882.378	23208
882.505	23296
882.631	23231
882.757	22984
882.883	22972
883.01	22854
883.136	22820
883.262	22816
883.388	22763
883.514	22946
883.64	22991
883.766	22729
883.892	22706
884.018	22771
884.143	22847
884.269	22965
884.395	22672
884.52	22527
884.646	22702
884.772	22421
884.897	22531
885.023	22577
885.148	22615
885.274	22733
885.399	22660
885.524	22649
885.65	22550
885.775	22725
885.9	22535
886.025	22683
886.15	22561
886.275	22626
886.4	22489
886.525	22500
886.65	22592
886.775	22455
886.9	22611
887.025	22774
887.149	22489
887.274	22386
887.399	22291
887.523	22360
887.648	22367
887.773	22204
887.897	22405
888.021	22386
888.146	22246
888.27	22424
888.395	22474
888.519	22375
888.643	22337
888.767	22443
888.891	22223
889.015	22265
889.139	22226
889.263	22226
889.387	22253
889.511	22280
889.635	22150
889.759	22181
889.883	22090
890.006	22207
890.13	22166
890.254	22013
890.377	21972
890.501	21835
890.624	21861
890.748	21903
890.871	21755
890.995	21819
891.118	21553
891.241	21736
891.364	21717
891.488	21781
891.611	21743
891.734	21694
891.857	21648
891.98	21759
892.103	21724
892.226	21679
892.349	21553
892.471	21424
892.594	21606
892.717	21595
892.839	21515
892.962	21553
893.085	21694
893.207	21557
893.33	21431
893.452	21496
893.575	21618
893.697	21637
893.819	21709
893.941	21789
894.064	21751
894.186	21572
894.308	21351
894.43	21633
894.552	21660
894.674	21610
894.796	21321
894.918	21466
895.04	21496
895.161	21538
895.283	21458
895.405	21416
895.526	21603
895.648	21519
895.769	21622
895.891	21526
896.012	21591
896.134	21606
896.255	21523
896.376	21644
896.498	21447
896.619	21564
896.74	21378
896.861	21610
896.982	21778
897.103	21979
897.224	21842
897.345	21739
897.466	21701
897.587	21797
897.708	21850
897.828	21709
897.949	21648
898.07	21568
898.19	21743
898.311	21762
898.431	21781
898.552	21698
898.672	21755
898.792	21751
898.913	21713
899.033	21496
899.153	21492
899.273	21351
899.393	21454
899.513	21507
899.633	21355
899.753	21431
899.873	21488
899.993	21359
900.113	21359
900.232	21431
900.352	21329
900.472	21249
900.591	21192
900.711	21192
900.83	21195
900.95	21332
901.069	21233
901.189	21047
901.308	20815
901.427	20807
901.546	20765
901.665	20823
901.784	20815
901.904	20583
902.023	20530
902.141	20271
902.26	20301
902.379	20408
902.498	20275
902.617	20172
902.735	20256
902.854	20233
902.973	20134
903.091	19959
903.21	19978
903.328	19974
903.446	19837
903.565	19700
903.683	19674
903.801	19563
903.919	19647
904.038	19651
904.156	19476
904.274	19514
904.392	19316
904.51	19384
904.627	19377
904.745	19567
904.863	19430
904.981	19350
905.098	19046
905.216	19148
905.334	18977
905.451	19152
905.569	19057
905.686	19126
905.803	19023
905.921	18867
906.038	19034
906.155	18924
906.272	18882
906.389	18802
906.506	18623
906.623	18639
906.74	18681
906.857	18616
906.974	18604
907.091	18677
907.208	18612
907.324	18681
907.441	18448
907.557	18330
907.674	18376
907.79	18270
907.907	18239
908.023	18372
908.139	18388
908.256	18342
908.372	18289
908.488	18148
908.604	18102
908.72	18072
908.836	18072
908.952	18038
909.068	18057
909.184	18079
909.3	18003
909.415	18079
909.531	17977
909.647	17904
909.762	17859
909.878	17695
909.993	17707
910.108	17748
910.224	17718
910.339	17684
910.454	17672
910.57	17539
910.685	17608
910.8	17649
910.915	17642
911.03	17512
911.145	17383
911.259	17231
911.374	17307
911.489	17341
911.604	17239
911.718	17162
911.833	17048
911.947	17029
912.062	16919
912.176	17064
912.291	17029
912.405	17079
912.519	17273
912.633	17280
912.748	17064
912.862	17083
912.976	16961
913.09	16630
913.204	16752
913.318	16869
913.431	16976
913.545	16923
913.659	16858
913.772	16790
913.886	16668
914	16672
914.113	16755
914.226	16656
914.34	16774
914.453	16577
914.566	16668
914.68	16542
914.793	16516
914.906	16234
915.019	16215
915.132	16150
915.245	16242
915.358	16207
915.47	16310
915.583	16207
915.696	16242
915.809	16226
915.921	16382
916.034	16158
916.146	16135
916.259	16071
916.371	16086
916.483	16173
916.595	16105
916.708	15998
916.82	16051
916.932	16025
917.044	15968
917.156	16002
917.268	15854
917.38	15827
917.491	15804
917.603	15823
917.715	16006
917.826	15865
917.938	15797
918.049	15698
918.161	15743
918.272	15861
918.384	15865
918.495	15797
918.606	15542
918.717	15389
918.828	15549
918.939	15629
919.05	15530
919.161	15549
919.272	15169
919.383	15469
919.494	15538
919.604	15747
919.715	15549
919.826	15405
919.936	15458
920.047	15564
920.157	15576
920.267	15652
920.378	15542
920.488	15450
920.598	15675
920.708	15705
920.818	15572
920.928	15572
921.038	15755
921.148	15717
921.258	15447
921.368	15412
921.477	15310
921.587	15260
921.697	15116
921.806	15264
921.916	15138
922.025	14880
922.134	14880
922.244	14796
922.353	14857
922.462	14785
922.571	14606
922.68	14492
922.789	14461
922.898	14385
923.007	14484
923.116	14415
923.224	14473
923.333	14408
923.442	14381
923.55	14355
923.659	14313
923.767	14381
923.876	14256
923.984	14191
924.092	14145
924.201	14199
924.309	14123
924.417	14259
924.525	14164
924.633	14119
924.741	15161
924.849	13894
924.956	14092
925.064	13894
925.172	13769
925.279	13830
925.387	13871
925.494	13902
925.602	13928
925.709	13837
925.816	13731
925.924	13868
926.031	13826
926.138	13761
926.245	13856
926.352	13689
926.459	13860
926.566	13883
926.673	13715
926.779	13636
926.886	13677
926.993	13514
927.099	13415
927.206	13384
927.312	13373
927.419	13411
927.525	13381
927.631	13407
927.737	13270
927.843	13259
927.95	13206
928.056	13225
928.162	13187
928.267	13278
928.373	13826
928.479	13289
928.585	13050
928.69	13225
928.796	13213
928.901	13019
929.007	12920
929.112	13069
929.218	13053
929.323	12970
929.428	12920
929.533	13057
929.638	12882
929.743	12878
929.848	12871
929.953	12909
930.058	12669
930.163	12612
930.267	12627
930.372	12833
930.477	12509
930.581	12768
930.685	12658
930.79	12437
930.894	12372
930.998	12483
931.103	12506
931.207	12232
931.311	12197
931.415	12038
931.519	11828
931.623	11870
