Data from test_V78500241_3731.txt Node
Date: Fri Mar 25 16:07:38 CST 2022
User: usil
Spectrometer: V785-0024
Trigger mode: 0
Integration Time (sec): 4.000000E-1
Scans to average: 1
Nonlinearity correction enabled: false
Boxcar width: 0
Storing dark spectrum: false
XAxis mode: Wavelengths
Number of Pixels in Spectrum: 1024
>>>>>Begin Spectral Data<<<<<
801.071	28268
801.214	28101
801.356	27823
801.499	27918
801.641	27831
801.783	27713
801.926	27770
802.068	27732
802.211	27701
802.353	27610
802.496	27519
802.638	27332
802.78	27245
802.923	27420
803.065	27283
803.208	27416
803.35	27416
803.492	27603
803.635	27568
803.777	27519
803.919	27720
804.061	27934
804.204	27717
804.346	27610
804.488	27564
804.63	27614
804.773	27595
804.915	27667
805.057	27873
805.199	27656
805.341	27724
805.483	27873
805.626	27797
805.768	27667
805.91	27663
806.052	27869
806.194	27724
806.336	27972
806.478	27774
806.62	27728
806.762	28010
806.904	28078
807.046	28249
807.188	28192
807.33	28265
807.472	28253
807.614	28177
807.756	28143
807.898	28029
808.04	28059
808.182	28181
808.324	28025
808.465	28150
808.607	28291
808.749	28375
808.891	28428
809.033	28577
809.174	28508
809.316	28474
809.458	28390
809.6	28447
809.741	28489
809.883	28565
810.025	28847
810.166	28713
810.308	28835
810.45	28843
810.591	28634
810.733	28470
810.875	28500
811.016	28318
811.158	28360
811.299	28462
811.441	28607
811.582	28577
811.724	28398
811.865	28459
812.007	28443
812.148	28516
812.29	28550
812.431	28710
812.573	28843
812.714	28942
812.855	28915
812.997	29193
813.138	29105
813.279	29010
813.421	29010
813.562	28786
813.703	28835
813.845	28603
813.986	28443
814.127	28341
814.268	28112
814.41	28082
814.551	28120
814.692	28154
814.833	28078
814.974	28207
815.115	28173
815.256	28055
815.397	28078
815.539	28044
815.68	27968
815.821	27861
815.962	28059
816.103	27895
816.244	27739
816.385	27743
816.526	27652
816.666	27618
816.807	27424
816.948	27534
817.089	27599
817.23	27580
817.371	27447
817.512	27332
817.653	27481
817.793	27340
817.934	27344
818.075	27351
818.216	27473
818.356	27439
818.497	27294
818.638	27252
818.778	27233
818.919	27180
819.06	27325
819.2	27359
819.341	27408
819.481	27553
819.622	27576
819.762	27831
819.903	27739
820.043	27682
820.184	27427
820.324	27606
820.465	27591
820.605	27420
820.746	27576
820.886	27485
821.026	27530
821.167	27519
821.307	27519
821.447	27431
821.588	27332
821.728	27272
821.868	27116
822.008	26986
822.149	26979
822.289	26956
822.429	26788
822.569	26522
822.709	26670
822.849	26503
822.99	26640
823.13	26533
823.27	26431
823.41	26336
823.55	26172
823.69	26168
823.83	26259
823.97	26233
824.11	26081
824.25	26050
824.389	26081
824.529	26153
824.669	26046
824.809	26161
824.949	26058
825.089	26111
825.228	26088
825.368	25887
825.508	25913
825.648	26001
825.787	25982
825.927	26126
826.067	25830
826.206	25947
826.346	26088
826.485	25955
826.625	25959
826.765	26058
826.904	26027
827.044	25605
827.183	25742
827.323	25628
827.462	25837
827.601	25757
827.741	25715
827.88	25719
828.02	25620
828.159	25674
828.298	25567
828.437	25746
828.577	25609
828.716	25715
828.855	25563
828.994	25407
829.134	25502
829.273	25525
829.412	25449
829.551	25354
829.69	25415
829.829	25384
829.968	25411
830.107	25525
830.246	25285
830.385	25304
830.524	25251
830.663	25171
830.802	25095
830.941	24981
831.08	25027
831.219	25095
831.357	25031
831.496	25392
831.635	25038
831.774	24947
831.913	24951
832.051	24692
832.19	24825
832.329	24730
832.467	24684
832.606	24601
832.744	24582
832.883	24776
833.022	24616
833.16	24608
833.299	24730
833.437	24863
833.576	24711
833.714	24760
833.852	24760
833.991	24764
834.129	24840
834.267	24806
834.406	24776
834.544	24787
834.682	24673
834.821	24772
834.959	24878
835.097	24734
835.235	24871
835.373	24776
835.511	24757
835.65	24570
835.788	24555
835.926	24342
836.064	24304
836.202	24350
836.34	24639
836.478	24692
836.615	24525
836.753	24471
836.891	24593
837.029	24559
837.167	24483
837.305	24445
837.443	24479
837.58	24403
837.718	24361
837.856	24292
837.993	24384
838.131	24270
838.269	24213
838.406	24235
838.544	24209
838.681	24087
838.819	23950
838.956	23802
839.094	23821
839.231	23958
839.369	24140
839.506	24258
839.643	24114
839.781	23832
839.918	23832
840.055	23946
840.193	23790
840.33	23714
840.467	23840
840.604	23802
840.742	24022
840.879	23710
841.016	23752
841.153	23547
841.29	23904
841.427	23756
841.564	23775
841.701	23851
841.838	23691
841.975	23668
842.112	23668
842.249	23592
842.385	23493
842.522	23824
842.659	23710
842.796	23452
842.933	23547
843.069	23414
843.206	23429
843.343	23547
843.479	23539
843.616	23585
843.752	23391
843.889	23242
844.025	23497
844.162	23307
844.298	23372
844.435	23284
844.571	23258
844.708	23239
844.844	23471
844.98	23349
845.117	23448
845.253	23376
845.389	23193
845.525	23242
845.661	23109
845.798	23010
845.934	23132
846.07	23189
846.206	23181
846.342	23193
846.478	22968
846.614	22866
846.75	22710
846.886	22767
847.022	22957
847.158	22755
847.294	22812
847.429	22801
847.565	22812
847.701	22968
847.837	22485
847.972	22538
848.108	22577
848.244	22451
848.379	22516
848.515	22280
848.65	22413
848.786	22299
848.921	22314
849.057	22421
849.192	22402
849.328	22405
849.463	22238
849.598	22440
849.734	22268
849.869	22246
850.004	22109
850.14	22204
850.275	22112
850.41	22044
850.545	22196
850.68	22067
850.815	22223
850.95	22109
851.085	22287
851.22	22284
851.355	22101
851.49	22116
851.625	22082
851.76	22063
851.895	22013
852.03	22131
852.165	22124
852.299	22242
852.434	22223
852.569	22101
852.703	22112
852.838	22131
852.973	22166
853.107	22246
853.242	22078
853.376	22021
853.511	21892
853.645	21846
853.78	22048
853.914	21842
854.048	22040
854.183	22036
854.317	21895
854.451	22006
854.585	21861
854.72	21983
854.854	22078
854.988	21873
855.122	21998
855.256	21785
855.39	21865
855.524	22044
855.658	22002
855.792	21861
855.926	21884
856.06	21930
856.194	22051
856.327	21911
856.461	21979
856.595	21915
856.729	21827
856.862	22082
856.996	21975
857.13	21899
857.263	22059
857.397	22051
857.53	21934
857.664	22021
857.797	21926
857.931	22093
858.064	21918
858.197	21873
858.331	21846
858.464	21937
858.597	21907
858.731	21945
858.864	21880
858.997	21861
859.13	21945
859.263	21960
859.396	22139
859.529	21918
859.662	21861
859.795	21880
859.928	22029
860.061	22040
860.194	22135
860.327	21941
860.46	21983
860.592	22112
860.725	22048
860.858	22021
860.99	21869
861.123	21846
861.256	21895
861.388	21983
861.521	22596
861.653	21861
861.786	21732
861.918	21778
862.05	21903
862.183	21895
862.315	21915
862.447	21854
862.58	21804
862.712	21675
862.844	21564
862.976	21808
863.108	21679
863.24	21991
863.372	21629
863.504	21568
863.636	21705
863.768	21713
863.9	21698
864.032	21564
864.164	21511
864.296	21724
864.428	21694
864.559	21690
864.691	21682
864.823	21736
864.954	21682
865.086	21557
865.217	21656
865.349	21473
865.48	21519
865.612	21576
865.743	21682
865.875	21534
866.006	21405
866.137	21591
866.269	21481
866.4	21599
866.531	21568
866.662	21477
866.793	21420
866.924	21466
867.055	21519
867.186	21534
867.317	21424
867.448	21466
867.579	21515
867.71	21389
867.841	21447
867.972	21462
868.103	21310
868.233	21447
868.364	21500
868.495	21587
868.625	21701
868.756	21816
868.886	21656
869.017	21739
869.147	21747
869.278	21895
869.408	21686
869.539	21690
869.669	21755
869.799	21671
869.929	21968
870.06	21762
870.19	22070
870.32	22097
870.45	22032
870.58	22177
870.71	22154
870.84	22196
870.97	22109
871.1	22204
871.23	22238
871.36	22322
871.489	22211
871.619	22337
871.749	22234
871.879	22436
872.008	22417
872.138	22432
872.267	22337
872.397	22154
872.526	22128
872.656	22181
872.785	22204
872.915	22371
873.044	22402
873.173	22287
873.303	22443
873.432	22409
873.561	22451
873.69	22341
873.819	22363
873.948	22424
874.077	22356
874.206	22314
874.335	22443
874.464	22485
874.593	22626
874.722	22516
874.851	22641
874.979	22504
875.108	22538
875.237	22436
875.365	22440
875.494	22584
875.623	22626
875.751	22569
875.88	22569
876.008	22691
876.136	22774
876.265	22968
876.393	22881
876.521	22968
876.65	23033
876.778	23003
876.906	22862
877.034	22850
877.162	22911
877.29	22797
877.418	22927
877.546	22847
877.674	22999
877.802	22942
877.93	22942
878.058	22873
878.185	22858
878.313	22782
878.441	22873
878.568	22721
878.696	22782
878.824	22953
878.951	23075
879.079	22957
879.206	23204
879.333	23121
879.461	23109
879.588	22976
879.715	23102
879.842	23128
879.97	22995
880.097	22805
880.224	22748
880.351	22736
880.478	22717
880.605	22717
880.732	22691
880.859	22915
880.986	22755
881.112	22816
881.239	22607
881.366	22596
881.493	22299
881.619	22344
881.746	22371
881.872	22341
881.999	22257
882.125	22204
882.252	22276
882.378	22215
882.505	22409
882.631	22139
882.757	22112
882.883	22051
883.01	21991
883.136	22029
883.262	21728
883.388	21835
883.514	21979
883.64	21934
883.766	21808
883.892	21816
884.018	21770
884.143	21994
884.269	22002
884.395	21732
884.52	21606
884.646	21800
884.772	21583
884.897	21557
885.023	21679
885.148	21705
885.274	21709
885.399	21663
885.524	21504
885.65	21553
885.775	21709
885.9	21564
886.025	21766
886.15	21751
886.275	21355
886.4	21462
886.525	21595
886.65	21496
886.775	21557
886.9	21610
887.025	21823
887.149	21504
887.274	21382
887.399	21355
887.523	21370
887.648	21393
887.773	21256
887.897	21492
888.021	21450
888.146	21279
888.27	21306
888.395	21526
888.519	21469
888.643	21348
888.767	21363
888.891	21325
889.015	21249
889.139	21344
889.263	21051
889.387	21157
889.511	21313
889.635	21218
889.759	21233
889.883	21131
890.006	21154
890.13	21287
890.254	21066
890.377	21085
890.501	20883
890.624	20906
890.748	20899
890.871	20682
890.995	20792
891.118	20659
891.241	20769
891.364	20724
891.488	20838
891.611	20777
891.734	20663
891.857	20754
891.98	20724
892.103	20838
892.226	20667
892.349	20648
892.471	20499
892.594	20765
892.717	20606
892.839	20560
892.962	20640
893.085	20686
893.207	20556
893.33	20454
893.452	20514
893.575	20583
893.697	20583
893.819	20720
893.941	20796
894.064	20720
894.186	20583
894.308	20727
894.43	20705
894.552	20861
894.674	20773
894.796	20530
894.918	20670
895.04	20560
895.161	20697
895.283	20644
895.405	20499
895.526	20727
895.648	20705
895.769	20693
895.891	20697
896.012	20716
896.134	20651
896.255	20575
896.376	20400
896.498	20636
896.619	20636
896.74	20693
896.861	20746
896.982	20876
897.103	20986
897.224	20842
897.345	20754
897.466	20830
897.587	20800
897.708	20811
897.828	20815
897.949	20830
898.07	20621
898.19	20754
898.311	20872
898.431	20785
898.552	20758
898.672	20853
898.792	20910
898.913	20769
899.033	20609
899.153	20609
899.273	20404
899.393	20640
899.513	20629
899.633	20629
899.753	20682
899.873	20526
899.993	20678
900.113	20446
900.232	20492
900.352	20396
900.472	20366
900.591	20324
900.711	20434
900.83	20339
900.95	20408
901.069	20507
901.189	20187
901.308	19955
901.427	19856
901.546	19944
901.665	19883
901.784	20046
901.904	19761
902.023	19685
902.141	19567
902.26	19354
902.379	19559
902.498	19480
902.617	19308
902.735	19369
902.854	19445
902.973	19255
903.091	19095
903.21	19012
903.328	19038
903.446	19088
903.565	18989
903.683	18932
903.801	18802
903.919	18817
904.038	18837
904.156	18673
904.274	18719
904.392	18578
904.51	18604
904.627	18665
904.745	18639
904.863	18665
904.981	18460
905.098	18308
905.216	18410
905.334	18418
905.451	18395
905.569	18350
905.686	18460
905.803	18235
905.921	18068
906.038	18273
906.155	18136
906.272	18057
906.389	18091
906.506	17965
906.623	17973
906.74	17843
906.857	17779
906.974	17714
907.091	17832
907.208	17878
907.324	17977
907.441	17684
907.557	17547
907.674	17585
907.79	17474
907.907	17608
908.023	17524
908.139	17611
908.256	17455
908.372	17497
908.488	17387
908.604	17322
908.72	17292
908.836	17246
908.952	17143
909.068	17250
909.184	17379
909.3	17296
909.415	17334
909.531	17356
909.647	17064
909.762	16866
909.878	16999
909.993	17010
910.108	16892
910.224	16957
910.339	16946
910.454	16839
910.57	16778
910.685	16767
910.8	16957
910.915	16972
911.03	16854
911.145	16569
911.259	16565
911.374	16618
911.489	16527
911.604	16470
911.718	16299
911.833	16314
911.947	16204
912.062	16219
912.176	16360
912.291	16322
912.405	16265
912.519	16367
912.633	16440
912.748	16375
912.862	16238
912.976	16154
913.09	15960
913.204	16131
913.318	16200
913.431	16257
913.545	16249
913.659	16261
913.772	16105
913.886	15926
914	15903
914.113	15895
914.226	15987
914.34	15869
914.453	15854
914.566	16044
914.68	15694
914.793	15778
914.906	15679
915.019	15523
915.132	15382
915.245	15523
915.358	15523
915.47	15545
915.583	15511
915.696	15618
915.809	15652
915.921	15576
916.034	15485
916.146	15359
916.259	15435
916.371	15504
916.483	15492
916.595	15298
916.708	15401
916.82	15294
916.932	15272
917.044	15245
917.156	15294
917.268	15195
917.38	15100
917.491	15100
917.603	15207
917.715	15226
917.826	15184
917.938	15058
918.049	15005
918.161	15051
918.272	15222
918.384	15233
918.495	15039
918.606	15020
918.717	14823
918.828	14914
918.939	14906
919.05	14838
919.161	14853
919.272	14724
919.383	14746
919.494	14887
919.604	15146
919.715	14902
919.826	14724
919.936	14792
920.047	14887
920.157	14834
920.267	14944
920.378	14823
920.488	14849
920.598	14960
920.708	15135
920.818	14994
920.928	14929
921.038	15123
921.148	15013
921.258	14800
921.368	14689
921.477	14655
921.587	14632
921.697	14522
921.806	14552
921.916	14419
922.025	14374
922.134	14267
922.244	14199
922.353	14256
922.462	14111
922.571	14073
922.68	13928
922.789	13860
922.898	13837
923.007	13753
923.116	13883
923.224	13864
923.333	13830
923.442	13696
923.55	13658
923.659	13742
923.767	13746
923.876	13624
923.984	13784
924.092	13544
924.201	13594
924.309	13655
924.417	13613
924.525	13556
924.633	13548
924.741	14305
924.849	13335
924.956	13392
925.064	13274
925.172	13206
925.279	13209
925.387	13335
925.494	13335
925.602	13369
925.709	13362
925.816	13175
925.924	13171
926.031	13194
926.138	13183
926.245	13263
926.352	13042
926.459	13206
926.566	13251
926.673	13091
926.779	12993
926.886	13095
926.993	12916
927.099	12913
927.206	12741
927.312	12726
927.419	12833
927.525	12863
927.631	12844
927.737	12741
927.843	12707
927.95	12582
928.056	12658
928.162	12650
928.267	12627
928.373	13339
928.479	12703
928.585	12437
928.69	12551
928.796	12574
928.901	12502
929.007	12258
929.112	12521
929.218	12403
929.323	12399
929.428	12308
929.533	12486
929.638	12270
929.743	12277
929.848	12418
929.953	12239
930.058	12197
930.163	11992
930.267	12030
930.372	12144
930.477	11980
930.581	12186
930.685	12022
930.79	11969
930.894	11916
930.998	11878
931.103	11999
931.207	11707
931.311	11505
931.415	11501
931.519	11303
931.623	11220
