Data from test_V78500241_2232.txt Node
Date: Fri Mar 25 15:57:15 CST 2022
User: usil
Spectrometer: V785-0024
Trigger mode: 0
Integration Time (sec): 4.000000E-1
Scans to average: 1
Nonlinearity correction enabled: false
Boxcar width: 0
Storing dark spectrum: false
XAxis mode: Wavelengths
Number of Pixels in Spectrum: 1024
>>>>>Begin Spectral Data<<<<<
801.071	29155
801.214	29200
801.356	29044
801.499	28877
801.641	28904
801.783	28748
801.926	28923
802.068	28710
802.211	28637
802.353	28641
802.496	28470
802.638	28588
802.78	28375
802.923	28333
803.065	28436
803.208	28622
803.35	28451
803.492	28592
803.635	28641
803.777	28622
803.919	28721
804.061	29029
804.204	28888
804.346	28641
804.488	28664
804.63	28831
804.773	28801
804.915	28809
805.057	28900
805.199	28862
805.341	28896
805.483	28995
805.626	28980
805.768	28854
805.91	28904
806.052	29105
806.194	28942
806.336	29124
806.478	28927
806.62	28904
806.762	28987
806.904	29292
807.046	29501
807.188	29395
807.33	29368
807.472	29531
807.614	29280
807.756	29414
807.898	29239
808.04	29079
808.182	29105
808.324	29349
808.465	29345
808.607	29459
808.749	29672
808.891	29729
809.033	29790
809.174	29817
809.316	29745
809.458	29687
809.6	29687
809.741	29722
809.883	29790
810.025	29988
810.166	30022
810.308	29916
810.45	29828
810.591	29916
810.733	29680
810.875	29722
811.016	29547
811.158	29486
811.299	29813
811.441	29843
811.582	29726
811.724	29699
811.865	29535
812.007	29699
812.148	29627
812.29	29878
812.431	29859
812.573	29999
812.714	30091
812.855	30194
812.997	30395
813.138	30410
813.279	30327
813.421	30209
813.562	30209
813.703	30064
813.845	29828
813.986	29665
814.127	29417
814.268	29512
814.41	29391
814.551	29417
814.692	29482
814.833	29375
814.974	29410
815.115	29383
815.256	29284
815.397	29204
815.539	29315
815.68	29239
815.821	29109
815.962	29189
816.103	29227
816.244	29143
816.385	29064
816.526	28850
816.666	28946
816.807	28809
816.948	28839
817.089	28847
817.23	28824
817.371	28660
817.512	28717
817.653	28725
817.793	28538
817.934	28702
818.075	28653
818.216	28915
818.356	28725
818.497	28622
818.638	28363
818.778	28478
818.919	28356
819.06	28478
819.2	28554
819.341	28797
819.481	28782
819.622	28908
819.762	29197
819.903	29086
820.043	28999
820.184	28843
820.324	28835
820.465	28949
820.605	28854
820.746	28938
820.886	28683
821.026	28904
821.167	28831
821.307	28892
821.447	28831
821.588	28615
821.728	28527
821.868	28306
822.008	28310
822.149	28196
822.289	28265
822.429	27865
822.569	27960
822.709	27949
822.849	27869
822.99	27694
823.13	27686
823.27	27778
823.41	27534
823.55	27386
823.69	27488
823.83	27599
823.97	27625
824.11	27435
824.25	27275
824.389	27298
824.529	27466
824.669	27462
824.809	27511
824.949	27519
825.089	27488
825.228	27367
825.368	27226
825.508	27363
825.648	27325
825.787	27325
825.927	27310
826.067	27218
826.206	27252
826.346	27344
826.485	27256
826.625	27287
826.765	27458
826.904	27382
827.044	27047
827.183	26994
827.323	26975
827.462	26994
827.601	27036
827.741	27009
827.88	26944
828.02	27013
828.159	26933
828.298	26963
828.437	27005
828.577	26948
828.716	26979
828.855	26925
828.994	26674
829.134	26609
829.273	26754
829.412	26568
829.551	26655
829.69	26716
829.829	26811
829.968	26663
830.107	26697
830.246	26545
830.385	26583
830.524	26495
830.663	26564
830.802	26400
830.941	26263
831.08	26233
831.219	26434
831.357	26358
831.496	26431
831.635	26393
831.774	26130
831.913	26073
832.051	26130
832.19	26065
832.329	26157
832.467	25921
832.606	25963
832.744	25769
832.883	26027
833.022	25852
833.16	25917
833.299	25955
833.437	25830
833.576	26149
833.714	26008
833.852	26043
833.991	26115
834.129	26054
834.267	26039
834.406	26058
834.544	26008
834.682	26058
834.821	26050
834.959	26206
835.097	25833
835.235	26039
835.373	26001
835.511	25940
835.65	25803
835.788	25864
835.926	25784
836.064	25639
836.202	25712
836.34	25921
836.478	25932
836.615	25727
836.753	25799
836.891	25932
837.029	25849
837.167	25681
837.305	25677
837.443	25734
837.58	25597
837.718	25689
837.856	25674
837.993	25575
838.131	25632
838.269	25510
838.406	25582
838.544	25312
838.681	25320
838.819	25297
838.956	25069
839.094	25148
839.231	25053
839.369	25209
839.506	25464
839.643	25285
839.781	25168
839.918	24970
840.055	25088
840.193	25099
840.33	24951
840.467	25095
840.604	25008
840.742	25266
840.879	24753
841.016	25042
841.153	24939
841.29	24970
841.427	24935
841.564	25031
841.701	25061
841.838	24947
841.975	24840
842.112	24897
842.249	24859
842.385	24726
842.522	25118
842.659	24901
842.796	24711
842.933	24802
843.069	24753
843.206	24707
843.343	24688
843.479	24745
843.616	24703
843.752	24509
843.889	24388
844.025	24631
844.162	24574
844.298	24616
844.435	24517
844.571	24570
844.708	24597
844.844	24703
844.98	24620
845.117	24585
845.253	24490
845.389	24433
845.525	24547
845.661	24372
845.798	24247
845.934	24197
846.07	24281
846.206	24319
846.342	24308
846.478	24182
846.614	24060
846.75	23939
846.886	23939
847.022	23840
847.158	24087
847.294	23961
847.429	23980
847.565	23885
847.701	24163
847.837	23809
847.972	23745
848.108	23790
848.244	23767
848.379	23596
848.515	23505
848.65	23611
848.786	23642
848.921	23608
849.057	23649
849.192	23581
849.328	23604
849.463	23623
849.598	23524
849.734	23349
849.869	23436
850.004	23440
850.14	23307
850.275	23391
850.41	23277
850.545	23197
850.68	23254
850.815	23292
850.95	23280
851.085	23623
851.22	23379
851.355	23334
851.49	23166
851.625	23273
851.76	23417
851.895	23193
852.03	23193
852.165	23421
852.299	23402
852.434	23505
852.569	23277
852.703	23383
852.838	23277
852.973	23455
853.107	23383
853.242	23307
853.376	23231
853.511	23003
853.645	23140
853.78	23273
853.914	23151
854.048	23098
854.183	23121
854.317	23231
854.451	23239
854.585	23170
854.72	22949
854.854	23246
854.988	23025
855.122	23223
855.256	23079
855.39	23041
855.524	23147
855.658	23193
855.792	23117
855.926	23071
856.06	23208
856.194	23143
856.327	23071
856.461	23052
856.595	23098
856.729	23060
856.862	23159
856.996	23083
857.13	23132
857.263	23143
857.397	23288
857.53	23147
857.664	23208
857.797	23162
857.931	23235
858.064	23170
858.197	23299
858.331	23147
858.464	23079
858.597	23064
858.731	23105
858.864	23064
858.997	23121
859.13	23090
859.263	23052
859.396	23071
859.529	23044
859.662	23117
859.795	23052
859.928	23212
860.061	23204
860.194	23391
860.327	23178
860.46	23258
860.592	23318
860.725	23197
860.858	23303
860.99	23208
861.123	23071
861.256	23071
861.388	23090
861.521	23798
861.653	22987
861.786	22869
861.918	23048
862.05	23098
862.183	23075
862.315	23006
862.447	23208
862.58	22869
862.712	22839
862.844	22881
862.976	22892
863.108	22923
863.24	23269
863.372	22828
863.504	22748
863.636	22824
863.768	22869
863.9	22847
864.032	22774
864.164	22736
864.296	22847
864.428	23018
864.559	22908
864.691	22763
864.823	22790
864.954	22869
865.086	22763
865.217	22771
865.349	22599
865.48	22668
865.612	22759
865.743	22820
865.875	22668
866.006	22702
866.137	22615
866.269	22656
866.4	22630
866.531	22733
866.662	22497
866.793	22557
866.924	22497
867.055	22717
867.186	22713
867.317	22626
867.448	22497
867.579	22668
867.71	22481
867.841	22519
867.972	22687
868.103	22687
868.233	22687
868.364	22573
868.495	22645
868.625	22820
868.756	23037
868.886	22835
869.017	22801
869.147	22953
869.278	23022
869.408	22904
869.539	22793
869.669	22771
869.799	22919
869.929	22984
870.06	22976
870.19	23105
870.32	23136
870.45	23128
870.58	23254
870.71	23299
870.84	23292
870.97	23189
871.1	23250
871.23	23387
871.36	23573
871.489	23303
871.619	23471
871.749	23353
871.879	23573
872.008	23604
872.138	23425
872.267	23440
872.397	23277
872.526	23273
872.656	23368
872.785	23307
872.915	23452
873.044	23573
873.173	23345
873.303	23440
873.432	23524
873.561	23474
873.69	23497
873.819	23398
873.948	23455
874.077	23539
874.206	23482
874.335	23398
874.464	23570
874.593	23615
874.722	23691
874.851	23741
874.979	23672
875.108	23649
875.237	23649
875.365	23668
875.494	23547
875.623	23661
875.751	23630
875.88	23691
876.008	23870
876.136	23745
876.265	24064
876.393	24197
876.521	24057
876.65	23988
876.778	24117
876.906	23863
877.034	23992
877.162	23969
877.29	23855
877.418	24087
877.546	23973
877.674	24015
877.802	23942
877.93	23965
878.058	24003
878.185	23874
878.313	23847
878.441	24049
878.568	23722
878.696	23916
878.824	23901
878.951	24178
879.079	24098
879.206	24220
879.333	24106
879.461	24026
879.588	24213
879.715	24083
879.842	24258
879.97	24083
880.097	23836
880.224	23847
880.351	23775
880.478	23748
880.605	23878
880.732	23912
880.859	24148
880.986	23901
881.112	23863
881.239	23729
881.366	23619
881.493	23551
881.619	23269
881.746	23429
881.872	23318
881.999	23303
882.125	23337
882.252	23307
882.378	23311
882.505	23562
882.631	23113
882.757	22999
882.883	23185
883.01	23048
883.136	23052
883.262	22854
883.388	22824
883.514	23052
883.64	23132
883.766	22885
883.892	22824
884.018	22831
884.143	22896
884.269	22923
884.395	22797
884.52	22618
884.646	22675
884.772	22542
884.897	22611
885.023	22702
885.148	22622
885.274	22729
885.399	22744
885.524	22736
885.65	22641
885.775	22679
885.9	22706
886.025	22786
886.15	22824
886.275	22713
886.4	22508
886.525	22668
886.65	22607
886.775	22421
886.9	22660
887.025	22839
887.149	22641
887.274	22371
887.399	22390
887.523	22382
887.648	22375
887.773	22287
887.897	22352
888.021	22405
888.146	22337
888.27	22421
888.395	22493
888.519	22531
888.643	22295
888.767	22314
888.891	22185
889.015	22162
889.139	22196
889.263	22200
889.387	22333
889.511	22265
889.635	22291
889.759	22131
889.883	22101
890.006	22120
890.13	22318
890.254	22074
890.377	22116
890.501	21983
890.624	21888
890.748	22002
890.871	21717
890.995	21759
891.118	21709
891.241	21736
891.364	21671
891.488	21835
891.611	21675
891.734	21804
891.857	21751
891.98	21751
892.103	21747
892.226	21720
892.349	21743
892.471	21557
892.594	21580
892.717	21660
892.839	21576
892.962	21629
893.085	21804
893.207	21625
893.33	21561
893.452	21564
893.575	21587
893.697	21515
893.819	21698
893.941	21793
894.064	21743
894.186	21526
894.308	21561
894.43	21747
894.552	21781
894.674	21660
894.796	21401
894.918	21564
895.04	21568
895.161	21625
895.283	21652
895.405	21526
895.526	21705
895.648	21606
895.769	21576
895.891	21545
896.012	21614
896.134	21504
896.255	21629
896.376	21591
896.498	21481
896.619	21549
896.74	21568
896.861	21633
896.982	21937
897.103	21991
897.224	21797
897.345	21747
897.466	21625
897.587	21747
897.708	21827
897.828	21766
897.949	21660
898.07	21557
898.19	21644
898.311	21797
898.431	21648
898.552	21755
898.672	21694
898.792	21846
898.913	21876
899.033	21648
899.153	21614
899.273	21393
899.393	21443
899.513	21572
899.633	21614
899.753	21469
899.873	21386
899.993	21564
900.113	21359
900.232	21542
900.352	21332
900.472	21340
900.591	21173
900.711	21336
900.83	21165
900.95	21473
901.069	21344
901.189	20963
901.308	20975
901.427	20830
901.546	20724
901.665	20750
901.784	20777
901.904	20758
902.023	20549
902.141	20339
902.26	20324
902.379	20309
902.498	20385
902.617	20328
902.735	20305
902.854	20240
902.973	20172
903.091	19989
903.21	20001
903.328	19864
903.446	19833
903.565	19837
903.683	19734
903.801	19662
903.919	19693
904.038	19734
904.156	19499
904.274	19594
904.392	19468
904.51	19441
904.627	19438
904.745	19529
904.863	19476
904.981	19320
905.098	19175
905.216	19190
905.334	19183
905.451	19072
905.569	19107
905.686	19289
905.803	19015
905.921	19099
906.038	19027
906.155	18970
906.272	18829
906.389	18833
906.506	18711
906.623	18745
906.74	18707
906.857	18464
906.974	18582
907.091	18760
907.208	18681
907.324	18745
907.441	18616
907.557	18426
907.674	18479
907.79	18262
907.907	18448
908.023	18490
908.139	18464
908.256	18289
908.372	18330
908.488	18342
908.604	18190
908.72	18064
908.836	18190
908.952	18167
909.068	18110
909.184	18201
909.3	18114
909.415	18098
909.531	18049
909.647	17863
909.762	17817
909.878	17817
909.993	17832
910.108	17809
910.224	17638
910.339	17745
910.454	17680
910.57	17604
910.685	17547
910.8	17748
910.915	17824
911.03	17509
911.145	17402
911.259	17474
911.374	17326
911.489	17239
911.604	17212
911.718	17117
911.833	17151
911.947	16972
912.062	16877
912.176	17045
912.291	17083
912.405	17128
912.519	17299
912.633	17337
912.748	17117
912.862	16980
912.976	16885
913.09	16721
913.204	16896
913.318	16957
913.431	16938
913.545	16930
913.659	17029
913.772	16896
913.886	16839
914	16641
914.113	16759
914.226	16889
914.34	16850
914.453	16535
914.566	16679
914.68	16516
914.793	16588
914.906	16299
915.019	16234
915.132	16101
915.245	16261
915.358	16230
915.47	16261
915.583	16223
915.696	16295
915.809	16356
915.921	16314
916.034	16219
916.146	16219
916.259	16059
916.371	16200
916.483	16276
916.595	16109
916.708	16013
916.82	16013
916.932	16006
917.044	15994
917.156	16131
917.268	15903
917.38	15926
917.491	15888
917.603	15789
917.715	15949
917.826	16013
917.938	15865
918.049	15686
918.161	15675
918.272	15903
918.384	15869
918.495	15739
918.606	15679
918.717	15656
918.828	15549
918.939	15561
919.05	15561
919.161	15515
919.272	15454
919.383	15504
919.494	15610
919.604	15701
919.715	15526
919.826	15435
919.936	15447
920.047	15530
920.157	15576
920.267	15823
920.378	15580
920.488	15500
920.598	15667
920.708	15823
920.818	15724
920.928	15739
921.038	15736
921.148	15861
921.258	15488
921.368	15279
921.477	15264
921.587	15241
921.697	15199
921.806	15272
921.916	15100
922.025	14960
922.134	14777
922.244	14788
922.353	14963
922.462	14754
922.571	14686
922.68	14587
922.789	14571
922.898	14552
923.007	14480
923.116	14492
923.224	14530
923.333	14545
923.442	14336
923.55	14358
923.659	14328
923.767	14377
923.876	14206
923.984	14374
924.092	14153
924.201	14229
924.309	14221
924.417	14263
924.525	14142
924.633	14138
924.741	14921
924.849	13852
924.956	14187
925.064	13963
925.172	13841
925.279	13879
925.387	13925
925.494	13974
925.602	14027
925.709	14020
925.816	13738
925.924	13727
926.031	13830
926.138	13818
926.245	13788
926.352	13734
926.459	13811
926.566	13959
926.673	13685
926.779	13655
926.886	13556
926.993	13438
927.099	13396
927.206	13411
927.312	13346
927.419	13445
927.525	13430
927.631	13327
927.737	13304
927.843	13221
927.95	13149
928.056	13187
928.162	13278
928.267	13206
928.373	13871
928.479	13255
928.585	13050
928.69	13160
928.796	13183
928.901	13050
929.007	12954
929.112	13084
929.218	13008
929.323	13000
929.428	12867
929.533	13034
929.638	12859
929.743	12856
929.848	12901
929.953	12932
930.058	12745
930.163	12566
930.267	12570
930.372	12688
930.477	12521
930.581	12779
930.685	12620
930.79	12448
930.894	12422
930.998	12369
931.103	12544
931.207	12228
931.311	12144
931.415	11969
931.519	11756
931.623	11699
