Data from test_V78500241_1640.txt Node
Date: Fri Mar 25 15:53:09 CST 2022
User: usil
Spectrometer: V785-0024
Trigger mode: 0
Integration Time (sec): 4.000000E-1
Scans to average: 1
Nonlinearity correction enabled: false
Boxcar width: 0
Storing dark spectrum: false
XAxis mode: Wavelengths
Number of Pixels in Spectrum: 1024
>>>>>Begin Spectral Data<<<<<
801.071	27610
801.214	27519
801.356	27370
801.499	27348
801.641	27108
801.783	27260
801.926	27249
802.068	27116
802.211	27039
802.353	27001
802.496	26765
802.638	26880
802.78	26727
802.923	26708
803.065	26590
803.208	26609
803.35	26792
803.492	26929
803.635	26876
803.777	26899
803.919	27001
804.061	27233
804.204	26994
804.346	26940
804.488	26899
804.63	26921
804.773	26826
804.915	26982
805.057	27146
805.199	27009
805.341	26933
805.483	27062
805.626	27013
805.768	26971
805.91	27070
806.052	27169
806.194	27074
806.336	27272
806.478	27161
806.62	27062
806.762	27199
806.904	27287
807.046	27507
807.188	27481
807.33	27485
807.472	27671
807.614	27473
807.756	27557
807.898	27431
808.04	27256
808.182	27260
808.324	27420
808.465	27344
808.607	27637
808.749	27701
808.891	27850
809.033	27762
809.174	27854
809.316	27781
809.458	27629
809.6	27519
809.741	27675
809.883	27812
810.025	27850
810.166	28105
810.308	27972
810.45	28048
810.591	27808
810.733	27720
810.875	27690
811.016	27462
811.158	27682
811.299	27747
811.441	27789
811.582	27903
811.724	27720
811.865	27637
812.007	27671
812.148	27603
812.29	27720
812.431	27892
812.573	28013
812.714	28177
812.855	28093
812.997	28306
813.138	28413
813.279	28421
813.421	28268
813.562	28169
813.703	28135
813.845	27819
813.986	27660
814.127	27450
814.268	27351
814.41	27382
814.551	27439
814.692	27462
814.833	27363
814.974	27298
815.115	27351
815.256	27157
815.397	27203
815.539	27279
815.68	27218
815.821	27184
815.962	27192
816.103	27112
816.244	26982
816.385	26899
816.526	26940
816.666	26823
816.807	26621
816.948	26689
817.089	26777
817.23	26590
817.371	26560
817.512	26678
817.653	26644
817.793	26632
817.934	26659
818.075	26602
818.216	26606
818.356	26484
818.497	26495
818.638	26336
818.778	26309
818.919	26377
819.06	26415
819.2	26476
819.341	26560
819.481	26602
819.622	26670
819.762	26937
819.903	26883
820.043	26845
820.184	26712
820.324	26788
820.465	26735
820.605	26811
820.746	26644
820.886	26648
821.026	26568
821.167	26640
821.307	26804
821.447	26708
821.588	26556
821.728	26469
821.868	26172
822.008	26221
822.149	26119
822.289	26111
822.429	25894
822.569	25818
822.709	25677
822.849	25647
822.99	25639
823.13	25658
823.27	25628
823.41	25384
823.55	25259
823.69	25403
823.83	25373
823.97	25331
824.11	25187
824.25	25126
824.389	25270
824.529	25339
824.669	25259
824.809	25312
824.949	25373
825.089	25346
825.228	25350
825.368	25133
825.508	25095
825.648	25171
825.787	25179
825.927	25236
826.067	24970
826.206	25118
826.346	25099
826.485	25198
826.625	25137
826.765	25091
826.904	25122
827.044	24886
827.183	24859
827.323	24875
827.462	24905
827.601	24768
827.741	24817
827.88	24863
828.02	24696
828.159	24791
828.298	24795
828.437	24795
828.577	24707
828.716	24890
828.855	24665
828.994	24570
829.134	24448
829.273	24566
829.412	24483
829.551	24490
829.69	24403
829.829	24384
829.968	24585
830.107	24525
830.246	24433
830.385	24429
830.524	24502
830.663	24190
830.802	24266
830.941	24220
831.08	24068
831.219	24121
831.357	24041
831.496	24414
831.635	24140
831.774	23950
831.913	24140
832.051	23954
832.19	23920
832.329	23908
832.467	23855
832.606	23893
832.744	23798
832.883	23649
833.022	23745
833.16	23707
833.299	23695
833.437	23714
833.576	23935
833.714	23889
833.852	23840
833.991	23901
834.129	23809
834.267	23775
834.406	23904
834.544	23786
834.682	23805
834.821	23870
834.959	24003
835.097	23882
835.235	23912
835.373	23672
835.511	23923
835.65	23604
835.788	23699
835.926	23649
836.064	23531
836.202	23592
836.34	23729
836.478	23851
836.615	23680
836.753	23668
836.891	23687
837.029	23630
837.167	23573
837.305	23581
837.443	23627
837.58	23604
837.718	23467
837.856	23516
837.993	23433
838.131	23440
838.269	23379
838.406	23402
838.544	23417
838.681	23250
838.819	23143
838.956	23086
839.094	23079
839.231	23025
839.369	23086
839.506	23356
839.643	23284
839.781	23079
839.918	23010
840.055	22919
840.193	22809
840.33	22930
840.467	22930
840.604	23010
840.742	23044
840.879	22797
841.016	22801
841.153	22862
841.29	22968
841.427	22877
841.564	22976
841.701	22850
841.838	22938
841.975	22847
842.112	22755
842.249	22596
842.385	22645
842.522	22866
842.659	22717
842.796	22577
842.933	22588
843.069	22542
843.206	22588
843.343	22702
843.479	22618
843.616	22664
843.752	22436
843.889	22329
844.025	22527
844.162	22352
844.298	22561
844.435	22375
844.571	22409
844.708	22569
844.844	22512
844.98	22557
845.117	22573
845.253	22318
845.389	22261
845.525	22333
845.661	22284
845.798	22188
845.934	22310
846.07	22029
846.206	22234
846.342	22234
846.478	22116
846.614	21892
846.75	21972
846.886	21903
847.022	21922
847.158	21873
847.294	21888
847.429	21987
847.565	21918
847.701	22109
847.837	21603
847.972	21625
848.108	21739
848.244	21736
848.379	21591
848.515	21462
848.65	21321
848.786	21477
848.921	21488
849.057	21610
849.192	21530
849.328	21473
849.463	21401
849.598	21477
849.734	21363
849.869	21310
850.004	21313
850.14	21279
850.275	21310
850.41	21237
850.545	21226
850.68	21211
850.815	21264
850.95	21237
851.085	21420
851.22	21332
851.355	21214
851.49	21165
851.625	21275
851.76	21173
851.895	21165
852.03	21180
852.165	21329
852.299	21336
852.434	21332
852.569	21279
852.703	21112
852.838	21348
852.973	21310
853.107	21287
853.242	21218
853.376	21169
853.511	21020
853.645	21104
853.78	21188
853.914	20982
854.048	21081
854.183	20914
854.317	21116
854.451	21382
854.585	21077
854.72	21131
854.854	21195
854.988	21043
855.122	21043
855.256	20933
855.39	20982
855.524	21055
855.658	21218
855.792	21100
855.926	21112
856.06	21226
856.194	21184
856.327	21096
856.461	20899
856.595	20979
856.729	20941
856.862	21237
856.996	21036
857.13	21176
857.263	21279
857.397	21287
857.53	21150
857.664	21131
857.797	21180
857.931	21237
858.064	21074
858.197	21138
858.331	21058
858.464	20998
858.597	20899
858.731	21028
858.864	20975
858.997	21074
859.13	21188
859.263	21001
859.396	21176
859.529	20956
859.662	20929
859.795	21051
859.928	21104
860.061	21249
860.194	21226
860.327	21127
860.46	21062
860.592	21192
860.725	21237
860.858	21089
860.99	21146
861.123	21047
861.256	20994
861.388	21154
861.521	21781
861.653	20899
861.786	20891
861.918	20941
862.05	21005
862.183	21070
862.315	21066
862.447	21081
862.58	21062
862.712	20857
862.844	20830
862.976	20937
863.108	20902
863.24	21252
863.372	20746
863.504	20735
863.636	20830
863.768	20838
863.9	20792
864.032	20727
864.164	20769
864.296	20899
864.428	20861
864.559	20765
864.691	20861
864.823	20826
864.954	20762
865.086	20910
865.217	20800
865.349	20720
865.48	20609
865.612	20708
865.743	20754
865.875	20579
866.006	20697
866.137	20750
866.269	20785
866.4	20621
866.531	20598
866.662	20670
866.793	20583
866.924	20659
867.055	20625
867.186	20705
867.317	20636
867.448	20602
867.579	20670
867.71	20579
867.841	20564
867.972	20632
868.103	20590
868.233	20598
868.364	20522
868.495	20785
868.625	20853
868.756	20944
868.886	20834
869.017	20876
869.147	20963
869.278	21108
869.408	20986
869.539	20811
869.669	20899
869.799	20941
869.929	21013
870.06	20975
870.19	21203
870.32	21241
870.45	21146
870.58	21241
870.71	21355
870.84	21416
870.97	21272
871.1	21313
871.23	21401
871.36	21355
871.489	21466
871.619	21481
871.749	21526
871.879	21500
872.008	21545
872.138	21644
872.267	21382
872.397	21344
872.526	21268
872.656	21340
872.785	21397
872.915	21462
873.044	21568
873.173	21473
873.303	21553
873.432	21523
873.561	21599
873.69	21610
873.819	21450
873.948	21511
874.077	21481
874.206	21416
874.335	21534
874.464	21698
874.593	21618
874.722	21724
874.851	21675
874.979	21686
875.108	21717
875.237	21709
875.365	21648
875.494	21637
875.623	21705
875.751	21675
875.88	21762
876.008	21808
876.136	21903
876.265	22013
876.393	22280
876.521	22211
876.65	22109
876.778	22131
876.906	22143
877.034	22090
877.162	21998
877.29	22010
877.418	22185
877.546	22097
877.674	22067
877.802	22120
877.93	22116
878.058	22040
878.185	21930
878.313	21915
878.441	22029
878.568	21941
878.696	22090
878.824	22139
878.951	22162
879.079	22200
879.206	22402
879.333	22211
879.461	22021
879.588	22109
879.715	22177
879.842	22428
879.97	22207
880.097	21998
880.224	21964
880.351	21934
880.478	21941
880.605	21915
880.732	21854
880.859	22101
880.986	22013
881.112	21972
881.239	21739
881.366	21675
881.493	21625
881.619	21504
881.746	21542
881.872	21450
881.999	21488
882.125	21370
882.252	21504
882.378	21378
882.505	21549
882.631	21355
882.757	21252
882.883	21241
883.01	21157
883.136	21157
883.262	20990
883.388	21024
883.514	21218
883.64	21195
883.766	21017
883.892	20887
884.018	21074
884.143	21176
884.269	21161
884.395	20975
884.52	20815
884.646	20731
884.772	20861
884.897	20575
885.023	20823
885.148	20944
885.274	20914
885.399	20910
885.524	20796
885.65	20735
885.775	20800
885.9	20891
886.025	20948
886.15	20952
886.275	20644
886.4	20716
886.525	20762
886.65	20693
886.775	20609
886.9	20899
887.025	21017
887.149	20777
887.274	20670
887.399	20454
887.523	20587
887.648	20533
887.773	20594
887.897	20689
888.021	20587
888.146	20549
888.27	20568
888.395	20712
888.519	20724
888.643	20667
888.767	20663
888.891	20503
889.015	20473
889.139	20480
889.263	20358
889.387	20495
889.511	20648
889.635	20499
889.759	20450
889.883	20366
890.006	20339
890.13	20503
890.254	20328
890.377	20355
890.501	20149
890.624	20088
890.748	20294
890.871	20039
890.995	20024
891.118	19974
891.241	20020
891.364	19970
891.488	20111
891.611	19997
891.734	19982
891.857	19955
891.98	20046
892.103	19963
892.226	19936
892.349	20043
892.471	19772
892.594	19909
892.717	20005
892.839	19765
892.962	19818
893.085	19997
893.207	19902
893.33	19788
893.452	19864
893.575	19947
893.697	19921
893.819	19986
893.941	20119
894.064	19993
894.186	19837
894.308	19856
894.43	19986
894.552	20073
894.674	19967
894.796	19765
894.918	19868
895.04	19791
895.161	20001
895.283	19814
895.405	19776
895.526	19906
895.648	19822
895.769	19928
895.891	19841
896.012	19955
896.134	19906
896.255	19909
896.376	19898
896.498	19902
896.619	19921
896.74	19776
896.861	19967
896.982	20221
897.103	20240
897.224	20145
897.345	20164
897.466	20119
897.587	20092
897.708	20271
897.828	20191
897.949	19940
898.07	19989
898.19	19951
898.311	20069
898.431	19936
898.552	20073
898.672	20176
898.792	20138
898.913	20145
899.033	20065
899.153	19944
899.273	19788
899.393	19807
899.513	19890
899.633	20008
899.753	19883
899.873	19788
899.993	19879
900.113	19788
900.232	19772
900.352	19734
900.472	19708
900.591	19719
900.711	19731
900.83	19571
900.95	19757
901.069	19765
901.189	19594
901.308	19392
901.427	19247
901.546	19312
901.665	19270
901.784	19247
901.904	19126
902.023	19023
902.141	18829
902.26	18726
902.379	18810
902.498	18768
902.617	18700
902.735	18795
902.854	18806
902.973	18574
903.091	18464
903.21	18490
903.328	18338
903.446	18311
903.565	18353
903.683	18273
903.801	18140
903.919	18194
904.038	18220
904.156	18076
904.274	18144
904.392	17828
904.51	18007
904.627	17931
904.745	18007
904.863	17973
904.981	17935
905.098	17676
905.216	17661
905.334	17745
905.451	17748
905.569	17566
905.686	17646
905.803	17649
905.921	17455
906.038	17452
906.155	17406
906.272	17330
906.389	17444
906.506	17231
906.623	17246
906.74	17185
906.857	17033
906.974	17071
907.091	17292
907.208	17341
907.324	17254
907.441	17239
907.557	16984
907.674	16976
907.79	16793
907.907	16957
908.023	16972
908.139	16957
908.256	16843
908.372	16862
908.488	16744
908.604	16653
908.72	16546
908.836	16767
908.952	16561
909.068	16801
909.184	16782
909.3	16721
909.415	16637
909.531	16542
909.647	16356
909.762	16352
909.878	16276
909.993	16268
910.108	16421
910.224	16253
910.339	16322
910.454	16284
910.57	16188
910.685	16158
910.8	16303
910.915	16200
911.03	16116
911.145	15907
911.259	16036
911.374	15876
911.489	15930
911.604	15918
911.718	15709
911.833	15823
911.947	15606
912.062	15561
912.176	15656
912.291	15732
912.405	15686
912.519	15911
912.633	15911
912.748	15751
912.862	15698
912.976	15603
913.09	15424
913.204	15450
913.318	15610
913.431	15660
913.545	15599
913.659	15595
913.772	15420
913.886	15485
914	15313
914.113	15370
914.226	15401
914.34	15313
914.453	15157
914.566	15298
914.68	15173
914.793	15176
914.906	15104
915.019	14914
915.132	14914
915.245	15020
915.358	14933
915.47	14948
915.583	14952
915.696	14944
915.809	15009
915.921	14971
916.034	14933
916.146	14826
916.259	14769
916.371	14785
916.483	14815
916.595	14788
916.708	14746
916.82	14758
916.932	14754
917.044	14693
917.156	14727
917.268	14606
917.38	14708
917.491	14556
917.603	14667
917.715	14720
917.826	14636
917.938	14564
918.049	14374
918.161	14484
918.272	14674
918.384	14663
918.495	14564
918.606	14461
918.717	14339
918.828	14370
918.939	14355
919.05	14336
919.161	14301
919.272	14199
919.383	14237
919.494	14434
919.604	14579
919.715	14332
919.826	14263
919.936	14240
920.047	14427
920.157	14336
920.267	14461
920.378	14427
920.488	14324
920.598	14549
920.708	14659
920.818	14469
920.928	14366
921.038	14678
921.148	14632
921.258	14259
921.368	14180
921.477	14001
921.587	14195
921.697	13932
921.806	14058
921.916	13928
922.025	13868
922.134	13753
922.244	13693
922.353	13769
922.462	13639
922.571	13571
922.68	13358
922.789	13396
922.898	13449
923.007	13377
923.116	13362
923.224	13415
923.333	13324
923.442	13183
923.55	13221
923.659	13190
923.767	13225
923.876	13206
923.984	13202
924.092	13046
924.201	13149
924.309	13145
924.417	13107
924.525	13061
924.633	13152
924.741	13868
924.849	12825
924.956	12913
925.064	12928
925.172	12677
925.279	12829
925.387	12806
925.494	12757
925.602	12886
925.709	12833
925.816	12711
925.924	12722
926.031	12791
926.138	12783
926.245	12814
926.352	12585
926.459	12665
926.566	12833
926.673	12662
926.779	12540
926.886	12456
926.993	12429
927.099	12361
927.206	12228
927.312	12342
927.419	12372
927.525	12460
927.631	12338
927.737	12258
927.843	12201
927.95	12049
928.056	12144
928.162	12190
928.267	12262
928.373	12837
928.479	12228
928.585	12083
928.69	12117
928.796	12194
928.901	12144
929.007	11931
929.112	12068
929.218	11977
929.323	11958
929.428	11859
929.533	12110
929.638	11878
929.743	11866
929.848	12011
929.953	11931
930.058	11714
930.163	11581
930.267	11653
930.372	11688
930.477	11585
930.581	11840
930.685	11638
930.79	11539
930.894	11474
930.998	11410
931.103	11573
931.207	11212
931.311	11208
931.415	11083
931.519	10801
931.623	10900
