Data from test_V78500241_2887.txt Node
Date: Fri Mar 25 16:01:48 CST 2022
User: usil
Spectrometer: V785-0024
Trigger mode: 0
Integration Time (sec): 4.000000E-1
Scans to average: 1
Nonlinearity correction enabled: false
Boxcar width: 0
Storing dark spectrum: false
XAxis mode: Wavelengths
Number of Pixels in Spectrum: 1024
>>>>>Begin Spectral Data<<<<<
801.071	28748
801.214	28641
801.356	28615
801.499	28478
801.641	28360
801.783	28318
801.926	28322
802.068	28329
802.211	28337
802.353	28223
802.496	28173
802.638	28025
802.78	27926
802.923	27911
803.065	27884
803.208	27888
803.35	28074
803.492	28063
803.635	28265
803.777	28120
803.919	28352
804.061	28512
804.204	28246
804.346	28162
804.488	28200
804.63	28360
804.773	28188
804.915	28390
805.057	28447
805.199	28375
805.341	28318
805.483	28322
805.626	28303
805.768	28310
805.91	28512
806.052	28344
806.194	28287
806.336	28630
806.478	28500
806.62	28360
806.762	28660
806.904	28812
807.046	28946
807.188	28896
807.33	28995
807.472	29090
807.614	28881
807.756	28965
807.898	28930
808.04	28763
808.182	28603
808.324	28790
808.465	28831
808.607	29033
808.749	29022
808.891	29280
809.033	29200
809.174	29223
809.316	29303
809.458	29079
809.6	29041
809.741	29200
809.883	29227
810.025	29497
810.166	29421
810.308	29417
810.45	29531
810.591	29387
810.733	29204
810.875	29044
811.016	29052
811.158	28999
811.299	29330
811.441	29512
811.582	29208
811.724	29162
811.865	29197
812.007	29151
812.148	29159
812.29	29296
812.431	29269
812.573	29452
812.714	29543
812.855	29733
812.997	29684
813.138	29893
813.279	29866
813.421	29729
813.562	29676
813.703	29417
813.845	29417
813.986	29094
814.127	29014
814.268	28888
814.41	28946
814.551	28801
814.692	28881
814.833	28816
814.974	28873
815.115	28885
815.256	28904
815.397	28915
815.539	28691
815.68	28656
815.821	28637
815.962	28698
816.103	28637
816.244	28485
816.385	28455
816.526	28428
816.666	28249
816.807	28226
816.948	28154
817.089	28166
817.23	28253
817.371	28329
817.512	28230
817.653	28090
817.793	28059
817.934	28185
818.075	28124
818.216	28204
818.356	28246
818.497	28097
818.638	27918
818.778	27949
818.919	27956
819.06	28013
819.2	28036
819.341	28120
819.481	28074
819.622	28299
819.762	28459
819.903	28447
820.043	28459
820.184	28314
820.324	28150
820.465	28348
820.605	28348
820.746	28367
820.886	28215
821.026	28314
821.167	28249
821.307	28360
821.447	28329
821.588	28032
821.728	27888
821.868	27907
822.008	27789
822.149	27694
822.289	27778
822.429	27332
822.569	27363
822.709	27401
822.849	27233
822.99	27237
823.13	27119
823.27	27028
823.41	26990
823.55	26811
823.69	26929
823.83	27005
823.97	27047
824.11	26762
824.25	26815
824.389	26785
824.529	26853
824.669	26826
824.809	26864
824.949	27017
825.089	26743
825.228	26979
825.368	26750
825.508	26781
825.648	26533
825.787	26754
825.927	26796
826.067	26731
826.206	26579
826.346	26629
826.485	26872
826.625	26667
826.765	26807
826.904	26731
827.044	26488
827.183	26488
827.323	26339
827.462	26442
827.601	26530
827.741	26484
827.88	26526
828.02	26469
828.159	26484
828.298	26526
828.437	26495
828.577	26473
828.716	26609
828.855	26351
828.994	26012
829.134	26058
829.273	26081
829.412	26172
829.551	26145
829.69	26142
829.829	26122
829.968	26168
830.107	26252
830.246	26119
830.385	26081
830.524	26050
830.663	25955
830.802	25818
830.941	25746
831.08	25670
831.219	25841
831.357	25898
831.496	26100
831.635	25803
831.774	25742
831.913	25681
832.051	25521
832.19	25597
832.329	25605
832.467	25358
832.606	25396
832.744	25365
832.883	25449
833.022	25430
833.16	25285
833.299	25445
833.437	25346
833.576	25563
833.714	25575
833.852	25655
833.991	25647
834.129	25533
834.267	25552
834.406	25449
834.544	25552
834.682	25430
834.821	25502
834.959	25666
835.097	25396
835.235	25502
835.373	25624
835.511	25506
835.65	25525
835.788	25213
835.926	25190
836.064	25164
836.202	25152
836.34	25263
836.478	25365
836.615	25358
836.753	25316
836.891	25388
837.029	25266
837.167	25107
837.305	25065
837.443	25145
837.58	25122
837.718	25270
837.856	25190
837.993	25126
838.131	25171
838.269	25027
838.406	25156
838.544	24871
838.681	24844
838.819	24787
838.956	24517
839.094	24669
839.231	24631
839.369	24700
839.506	25141
839.643	24924
839.781	24608
839.918	24388
840.055	24646
840.193	24665
840.33	24547
840.467	24582
840.604	24601
840.742	24829
840.879	24376
841.016	24490
841.153	24391
841.29	24578
841.427	24502
841.564	24490
841.701	24365
841.838	24414
841.975	24445
842.112	24407
842.249	24327
842.385	24350
842.522	24471
842.659	24384
842.796	24213
842.933	24152
843.069	24190
843.206	24327
843.343	24372
843.479	24285
843.616	24205
843.752	24041
843.889	24129
844.025	24262
844.162	24068
844.298	24068
844.435	24079
844.571	24083
844.708	24015
844.844	24136
844.98	24167
845.117	24144
845.253	23912
845.389	23923
845.525	24030
845.661	23836
845.798	23908
845.934	23885
846.07	23684
846.206	23809
846.342	23912
846.478	23798
846.614	23547
846.75	23353
846.886	23414
847.022	23509
847.158	23512
847.294	23509
847.429	23497
847.565	23520
847.701	23672
847.837	23223
847.972	23277
848.108	23235
848.244	23220
848.379	23185
848.515	23071
848.65	22930
848.786	23067
848.921	23121
849.057	23086
849.192	23284
849.328	23181
849.463	23147
849.598	23098
849.734	22900
849.869	22877
850.004	22797
850.14	22809
850.275	22820
850.41	22782
850.545	22839
850.68	22991
850.815	22866
850.95	22896
851.085	22976
851.22	22946
851.355	22881
851.49	22900
851.625	22805
851.76	22862
851.895	22698
852.03	22790
852.165	22843
852.299	22873
852.434	22976
852.569	22828
852.703	22759
852.838	22782
852.973	22961
853.107	22927
853.242	22713
853.376	22653
853.511	22405
853.645	22630
853.78	22824
853.914	22637
854.048	22561
854.183	22675
854.317	22698
854.451	22850
854.585	22577
854.72	22656
854.854	22641
854.988	22588
855.122	22675
855.256	22557
855.39	22565
855.524	22752
855.658	22615
855.792	22618
855.926	22721
856.06	22702
856.194	22729
856.327	22630
856.461	22557
856.595	22592
856.729	22630
856.862	22721
856.996	22668
857.13	22873
857.263	22691
857.397	22713
857.53	22618
857.664	22596
857.797	22542
857.931	22717
858.064	22706
858.197	22748
858.331	22554
858.464	22588
858.597	22443
858.731	22584
858.864	22653
858.997	22653
859.13	22641
859.263	22736
859.396	22702
859.529	22664
859.662	22607
859.795	22584
859.928	22733
860.061	22889
860.194	22702
860.327	22615
860.46	22679
860.592	22774
860.725	22946
860.858	22820
860.99	22740
861.123	22557
861.256	22459
861.388	22565
861.521	23421
861.653	22485
861.786	22398
861.918	22478
862.05	22546
862.183	22535
862.315	22599
862.447	22615
862.58	22649
862.712	22405
862.844	22291
862.976	22474
863.108	22443
863.24	22828
863.372	22303
863.504	22478
863.636	22375
863.768	22402
863.9	22386
864.032	22242
864.164	22249
864.296	22356
864.428	22474
864.559	22382
864.691	22276
864.823	22386
864.954	22421
865.086	22341
865.217	22257
865.349	22051
865.48	22196
865.612	22261
865.743	22299
865.875	22268
866.006	22318
866.137	22261
866.269	22314
866.4	22234
866.531	22211
866.662	22139
866.793	22128
866.924	22169
867.055	22333
867.186	22105
867.317	22242
867.448	22105
867.579	22082
867.71	22086
867.841	22090
867.972	22143
868.103	22162
868.233	22211
868.364	22177
868.495	22325
868.625	22573
868.756	22497
868.886	22375
869.017	22341
869.147	22577
869.278	22462
869.408	22462
869.539	22341
869.669	22474
869.799	22527
869.929	22531
870.06	22519
870.19	22774
870.32	22653
870.45	22668
870.58	22831
870.71	22824
870.84	22679
870.97	22801
871.1	22812
871.23	22980
871.36	23102
871.489	22946
871.619	23056
871.749	23060
871.879	23010
872.008	23181
872.138	23060
872.267	22953
872.397	22824
872.526	22729
872.656	22885
872.785	22877
872.915	22843
873.044	23079
873.173	23083
873.303	23105
873.432	23094
873.561	23147
873.69	23064
873.819	22862
873.948	23117
874.077	23071
874.206	22961
874.335	22889
874.464	23071
874.593	23292
874.722	23178
874.851	23170
874.979	23223
875.108	23280
875.237	23128
875.365	23117
875.494	23216
875.623	23326
875.751	23181
875.88	23155
876.008	23322
876.136	23535
876.265	23638
876.393	23809
876.521	23783
876.65	23680
876.778	23691
876.906	23653
877.034	23528
877.162	23680
877.29	23429
877.418	23558
877.546	23604
877.674	23554
877.802	23600
877.93	23448
878.058	23490
878.185	23501
878.313	23638
878.441	23501
878.568	23421
878.696	23444
878.824	23486
878.951	23611
879.079	23649
879.206	23687
879.333	23729
879.461	23490
879.588	23718
879.715	23741
879.842	23600
879.97	23551
880.097	23448
880.224	23376
880.351	23258
880.478	23360
880.605	23330
880.732	23356
880.859	23577
880.986	23406
881.112	23474
881.239	23265
881.366	23079
881.493	22968
881.619	23029
881.746	22896
881.872	23056
881.999	22923
882.125	22923
882.252	23044
882.378	22873
882.505	23029
882.631	22778
882.757	22611
882.883	22668
883.01	22569
883.136	22618
883.262	22538
883.388	22497
883.514	22656
883.64	22710
883.766	22497
883.892	22474
884.018	22337
884.143	22527
884.269	22626
884.395	22333
884.52	22147
884.646	22261
884.772	22242
884.897	22131
885.023	22261
885.148	22242
885.274	22405
885.399	22356
885.524	22124
885.65	22299
885.775	22253
885.9	22185
886.025	22367
886.15	22265
886.275	22211
886.4	22185
886.525	22348
886.65	22211
886.775	22128
886.9	22322
887.025	22481
887.149	22192
887.274	21972
887.399	21979
887.523	21964
887.648	21945
887.773	21926
887.897	22120
888.021	22040
888.146	21922
888.27	22051
888.395	22025
888.519	22040
888.643	22021
888.767	21934
888.891	21892
889.015	21804
889.139	21827
889.263	21732
889.387	21857
889.511	22048
889.635	21953
889.759	21622
889.883	21717
890.006	21812
890.13	21922
890.254	21572
890.377	21667
890.501	21641
890.624	21542
890.748	21625
890.871	21420
890.995	21332
891.118	21291
891.241	21386
891.364	21340
891.488	21386
891.611	21313
891.734	21344
891.857	21340
891.98	21359
892.103	21332
892.226	21245
892.349	21378
892.471	21211
892.594	21283
892.717	21317
892.839	21157
892.962	21230
893.085	21287
893.207	21218
893.33	21070
893.452	21165
893.575	21272
893.697	21112
893.819	21412
893.941	21317
894.064	21302
894.186	21237
894.308	21116
894.43	21329
894.552	21310
894.674	21382
894.796	21058
894.918	21218
895.04	21096
895.161	21332
895.283	21199
895.405	21199
895.526	21272
895.648	21093
895.769	21351
895.891	21218
896.012	21310
896.134	21256
896.255	21135
896.376	21096
896.498	21165
896.619	21283
896.74	21176
896.861	21279
896.982	21485
897.103	21606
897.224	21496
897.345	21370
897.466	21443
897.587	21344
897.708	21568
897.828	21325
897.949	21424
898.07	21245
898.19	21450
898.311	21481
898.431	21363
898.552	21306
898.672	21431
898.792	21401
898.913	21515
899.033	21336
899.153	21195
899.273	21013
899.393	21154
899.513	21230
899.633	21127
899.753	21207
899.873	21112
899.993	21218
900.113	21146
900.232	21058
900.352	21074
900.472	20891
900.591	20906
900.711	20921
900.83	20834
900.95	20883
901.069	20864
901.189	20674
901.308	20648
901.427	20415
901.546	20484
901.665	20495
901.784	20469
901.904	20434
902.023	20259
902.141	20046
902.26	20062
902.379	20103
902.498	19814
902.617	19849
902.735	20008
902.854	19837
902.973	19784
903.091	19658
903.21	19510
903.328	19658
903.446	19464
903.565	19396
903.683	19449
903.801	19263
903.919	19426
904.038	19228
904.156	19282
904.274	19316
904.392	19080
904.51	19190
904.627	19179
904.745	19198
904.863	19145
904.981	19114
905.098	18951
905.216	18840
905.334	18848
905.451	18821
905.569	18787
905.686	18814
905.803	18783
905.921	18673
906.038	18882
906.155	18616
906.272	18604
906.389	18544
906.506	18380
906.623	18361
906.74	18292
906.857	18285
906.974	18243
907.091	18330
907.208	18403
907.324	18372
907.441	18239
907.557	18091
907.674	18076
907.79	18057
907.907	17904
908.023	18114
908.139	18072
908.256	17973
908.372	17996
908.488	17832
908.604	17908
908.72	17756
908.836	17764
908.952	17691
909.068	17843
909.184	17874
909.3	17809
909.415	17691
909.531	17870
909.647	17566
909.762	17471
909.878	17391
909.993	17478
910.108	17402
910.224	17368
910.339	17414
910.454	17345
910.57	17288
910.685	17227
910.8	17463
910.915	17440
911.03	17212
911.145	17045
911.259	17083
911.374	17003
911.489	16915
911.604	16908
911.718	16759
911.833	16740
911.947	16687
912.062	16672
912.176	16831
912.291	16809
912.405	16740
912.519	17010
912.633	17045
912.748	16771
912.862	16850
912.976	16615
913.09	16596
913.204	16558
913.318	16497
913.431	16687
913.545	16558
913.659	16679
913.772	16538
913.886	16386
914	16405
914.113	16436
914.226	16531
914.34	16440
914.453	16219
914.566	16360
914.68	16272
914.793	16143
914.906	15918
915.019	15930
915.132	15998
915.245	15823
915.358	15930
915.47	15949
915.583	15979
915.696	15922
915.809	16105
915.921	16097
916.034	15892
916.146	15941
916.259	15850
916.371	15934
916.483	15876
916.595	15739
916.708	15827
916.82	15785
916.932	15812
917.044	15682
917.156	15663
917.268	15587
917.38	15625
917.491	15507
917.603	15644
917.715	15534
917.826	15603
917.938	15534
918.049	15351
918.161	15587
918.272	15633
918.384	15618
918.495	15519
918.606	15363
918.717	15344
918.828	15412
918.939	15397
919.05	15272
919.161	15351
919.272	15176
919.383	15195
919.494	15397
919.604	15538
919.715	15325
919.826	15218
919.936	15222
920.047	15374
920.157	15367
920.267	15401
920.378	15279
920.488	15279
920.598	15310
920.708	15435
920.818	15370
920.928	15389
921.038	15564
921.148	15523
921.258	15275
921.368	15127
921.477	14941
921.587	14990
921.697	14838
921.806	14994
921.916	14826
922.025	14636
922.134	14689
922.244	14545
922.353	14598
922.462	14511
922.571	14518
922.68	14278
922.789	14336
922.898	14328
923.007	14233
923.116	14244
923.224	14225
923.333	14221
923.442	14145
923.55	14115
923.659	14092
923.767	14176
923.876	14107
923.984	14092
924.092	13986
924.201	14065
924.309	14005
924.417	14012
924.525	13849
924.633	13967
924.741	14849
924.849	13712
924.956	13837
925.064	13643
925.172	13624
925.279	13601
925.387	13616
925.494	13597
925.602	13837
925.709	13693
925.816	13556
925.924	13559
926.031	13700
926.138	13540
926.245	13613
926.352	13464
926.459	13662
926.566	13605
926.673	13476
926.779	13422
926.886	13487
926.993	13202
927.099	13206
927.206	13065
927.312	13053
927.419	13194
927.525	13187
927.631	13213
927.737	13053
927.843	13072
927.95	12901
928.056	12928
928.162	13012
928.267	13042
928.373	13643
928.479	13107
928.585	12795
928.69	12932
928.796	12939
928.901	12837
929.007	12700
929.112	12840
929.218	12764
929.323	12700
929.428	12669
929.533	12848
929.638	12654
929.743	12627
929.848	12734
929.953	12593
930.058	12532
930.163	12281
930.267	12361
930.372	12604
930.477	12243
930.581	12627
930.685	12361
930.79	12152
930.894	12213
930.998	12243
931.103	12357
931.207	11992
931.311	11874
931.415	11828
931.519	11615
931.623	11516
