Data from test_V78500241_3162.txt Node
Date: Fri Mar 25 16:03:42 CST 2022
User: usil
Spectrometer: V785-0024
Trigger mode: 0
Integration Time (sec): 4.000000E-1
Scans to average: 1
Nonlinearity correction enabled: false
Boxcar width: 0
Storing dark spectrum: false
XAxis mode: Wavelengths
Number of Pixels in Spectrum: 1024
>>>>>Begin Spectral Data<<<<<
801.071	28287
801.214	28154
801.356	27808
801.499	27998
801.641	27846
801.783	27766
801.926	27911
802.068	27831
802.211	27728
802.353	27618
802.496	27568
802.638	27378
802.78	27443
802.923	27447
803.065	27222
803.208	27336
803.35	27370
803.492	27663
803.635	27709
803.777	27443
803.919	27587
804.061	28032
804.204	27671
804.346	27633
804.488	27564
804.63	27549
804.773	27648
804.915	27641
805.057	27698
805.199	27603
805.341	27660
805.483	27842
805.626	27766
805.768	27652
805.91	27869
806.052	27903
806.194	27538
806.336	27884
806.478	27766
806.62	27755
806.762	27926
806.904	28025
807.046	28314
807.188	28169
807.33	28051
807.472	28295
807.614	28253
807.756	28356
807.898	28013
808.04	27861
808.182	28025
808.324	28048
808.465	28158
808.607	28371
808.749	28436
808.891	28599
809.033	28554
809.174	28489
809.316	28432
809.458	28432
809.6	28440
809.741	28440
809.883	28630
810.025	28729
810.166	28790
810.308	28694
810.45	28634
810.591	28573
810.733	28474
810.875	28401
811.016	28409
811.158	28314
811.299	28596
811.441	28668
811.582	28573
811.724	28478
811.865	28500
812.007	28459
812.148	28459
812.29	28531
812.431	28675
812.573	28740
812.714	28869
812.855	28968
812.997	28991
813.138	29162
813.279	29181
813.421	29083
813.562	28965
813.703	28744
813.845	28580
813.986	28405
814.127	28207
814.268	28112
814.41	28116
814.551	28090
814.692	28173
814.833	28090
814.974	28162
815.115	28268
815.256	28090
815.397	28006
815.539	28131
815.68	27914
815.821	27857
815.962	28002
816.103	27911
816.244	27747
816.385	27778
816.526	27682
816.666	27515
816.807	27317
816.948	27447
817.089	27614
817.23	27439
817.371	27439
817.512	27519
817.653	27291
817.793	27351
817.934	27420
818.075	27408
818.216	27233
818.356	27401
818.497	27317
818.638	27203
818.778	27165
818.919	27211
819.06	27298
819.2	27397
819.341	27519
819.481	27481
819.622	27705
819.762	27701
819.903	27724
820.043	27652
820.184	27511
820.324	27500
820.465	27701
820.605	27660
820.746	27542
820.886	27370
821.026	27526
821.167	27519
821.307	27587
821.447	27549
821.588	27272
821.728	27161
821.868	27150
822.008	26967
822.149	26925
822.289	26857
822.429	26781
822.569	26499
822.709	26606
822.849	26507
822.99	26469
823.13	26320
823.27	26301
823.41	26259
823.55	26058
823.69	26358
823.83	26282
823.97	26210
824.11	25997
824.25	26012
824.389	26134
824.529	26195
824.669	26081
824.809	26092
824.949	26138
825.089	26199
825.228	26161
825.368	25898
825.508	25894
825.648	25944
825.787	25932
825.927	26035
826.067	25887
826.206	25833
826.346	26054
826.485	25963
826.625	25936
826.765	26069
826.904	25974
827.044	25723
827.183	25727
827.323	25544
827.462	25750
827.601	25609
827.741	25594
827.88	25704
828.02	25468
828.159	25571
828.298	25651
828.437	25696
828.577	25559
828.716	25761
828.855	25666
828.994	25373
829.134	25438
829.273	25499
829.412	25285
829.551	25282
829.69	25354
829.829	25407
829.968	25377
830.107	25403
830.246	25430
830.385	25297
830.524	25221
830.663	25107
830.802	25061
830.941	25008
831.08	24825
831.219	25038
831.357	24966
831.496	25183
831.635	24928
831.774	24875
831.913	24928
832.051	24623
832.19	24764
832.329	24810
832.467	24589
832.606	24566
832.744	24582
832.883	24711
833.022	24578
833.16	24589
833.299	24681
833.437	24604
833.576	24684
833.714	24726
833.852	24715
833.991	24726
834.129	24787
834.267	24734
834.406	24715
834.544	24749
834.682	24673
834.821	24601
834.959	24886
835.097	24612
835.235	24677
835.373	24467
835.511	24551
835.65	24597
835.788	24414
835.926	24365
836.064	24361
836.202	24330
836.34	24540
836.478	24589
836.615	24456
836.753	24673
836.891	24707
837.029	24486
837.167	24502
837.305	24448
837.443	24350
837.58	24315
837.718	24395
837.856	24445
837.993	24239
838.131	24327
838.269	24224
838.406	24102
838.544	24121
838.681	23999
838.819	23977
838.956	23843
839.094	23726
839.231	23828
839.369	24038
839.506	24201
839.643	23973
839.781	23790
839.918	23851
840.055	23783
840.193	23805
840.33	23726
840.467	23707
840.604	23794
840.742	23863
840.879	23615
841.016	23695
841.153	23657
841.29	23813
841.427	23745
841.564	23699
841.701	23642
841.838	23699
841.975	23539
842.112	23630
842.249	23668
842.385	23391
842.522	23733
842.659	23630
842.796	23429
842.933	23425
843.069	23448
843.206	23379
843.343	23642
843.479	23581
843.616	23524
843.752	23239
843.889	23277
844.025	23410
844.162	23178
844.298	23303
844.435	23303
844.571	23299
844.708	23337
844.844	23398
844.98	23364
845.117	23402
845.253	23132
845.389	23132
845.525	23178
845.661	23018
845.798	22900
845.934	22987
846.07	23010
846.206	23025
846.342	23178
846.478	22869
846.614	22748
846.75	22706
846.886	22664
847.022	22828
847.158	22713
847.294	22596
847.429	22710
847.565	22596
847.701	22961
847.837	22371
847.972	22508
848.108	22428
848.244	22542
848.379	22375
848.515	22306
848.65	22261
848.786	22303
848.921	22276
849.057	22394
849.192	22402
849.328	22310
849.463	22314
849.598	22173
849.734	22219
849.869	22139
850.004	22036
850.14	22010
850.275	22139
850.41	21934
850.545	22082
850.68	22025
850.815	22166
850.95	22070
851.085	22333
851.22	22139
851.355	22086
851.49	21994
851.625	22040
851.76	22029
851.895	21930
852.03	22044
852.165	22097
852.299	22097
852.434	22131
852.569	22067
852.703	22055
852.838	22128
852.973	22215
853.107	22147
853.242	22002
853.376	21869
853.511	21876
853.645	21892
853.78	21979
853.914	21857
854.048	21751
854.183	21808
854.317	22010
854.451	22128
854.585	21964
854.72	21846
854.854	21907
854.988	21808
855.122	21903
855.256	21785
855.39	21854
855.524	21956
855.658	21934
855.792	21789
855.926	21945
856.06	21880
856.194	21865
856.327	21861
856.461	21846
856.595	21762
856.729	21854
856.862	21949
856.996	21949
857.13	21926
857.263	21991
857.397	21994
857.53	21892
857.664	21876
857.797	21975
857.931	22078
858.064	21907
858.197	22124
858.331	21827
858.464	21831
858.597	21747
858.731	21873
858.864	21831
858.997	21747
859.13	21797
859.263	21926
859.396	22021
859.529	21819
859.662	21918
859.795	21831
859.928	21842
860.061	22044
860.194	22112
860.327	21899
860.46	21922
860.592	22051
860.725	22097
860.858	22078
860.99	21827
861.123	21819
861.256	21846
861.388	21918
861.521	22592
861.653	21797
861.786	21583
861.918	21747
862.05	21724
862.183	21709
862.315	21907
862.447	21850
862.58	21808
862.712	21751
862.844	21545
862.976	21629
863.108	21759
863.24	22002
863.372	21587
863.504	21637
863.636	21595
863.768	21766
863.9	21648
864.032	21561
864.164	21568
864.296	21572
864.428	21759
864.559	21641
864.691	21705
864.823	21637
864.954	21561
865.086	21637
865.217	21587
865.349	21386
865.48	21485
865.612	21549
865.743	21698
865.875	21504
866.006	21477
866.137	21576
866.269	21561
866.4	21549
866.531	21458
866.662	21401
866.793	21355
866.924	21382
867.055	21363
867.186	21542
867.317	21462
867.448	21313
867.579	21454
867.71	21431
867.841	21313
867.972	21507
868.103	21348
868.233	21454
868.364	21435
868.495	21496
868.625	21781
868.756	21812
868.886	21652
869.017	21610
869.147	21747
869.278	21720
869.408	21743
869.539	21500
869.669	21838
869.799	21701
869.929	21747
870.06	21835
870.19	21972
870.32	21831
870.45	21983
870.58	22010
870.71	22253
870.84	22093
870.97	22063
871.1	22105
871.23	22238
871.36	22436
871.489	22147
871.619	22226
871.749	22306
871.879	22238
872.008	22344
872.138	22249
872.267	22238
872.397	22150
872.526	22082
872.656	22059
872.785	22013
872.915	22204
873.044	22360
873.173	22329
873.303	22356
873.432	22246
873.561	22436
873.69	22299
873.819	22265
873.948	22314
874.077	22303
874.206	22230
874.335	22322
874.464	22371
874.593	22573
874.722	22546
874.851	22561
874.979	22615
875.108	22489
875.237	22508
875.365	22451
875.494	22394
875.623	22569
875.751	22394
875.88	22557
876.008	22721
876.136	22767
876.265	22896
876.393	23060
876.521	22915
876.65	22984
876.778	22873
876.906	22923
877.034	22877
877.162	22976
877.29	22710
877.418	22904
877.546	22919
877.674	22847
877.802	22843
877.93	22843
878.058	22793
878.185	22778
878.313	22824
878.441	22866
878.568	22573
878.696	22793
878.824	22881
878.951	22892
879.079	23212
879.206	23166
879.333	23041
879.461	22900
879.588	23064
879.715	22995
879.842	23094
879.97	22972
880.097	22637
880.224	22573
880.351	22805
880.478	22702
880.605	22481
880.732	22607
880.859	22976
880.986	22668
881.112	22759
881.239	22557
881.366	22417
881.493	22367
881.619	22093
881.746	22314
881.872	22268
881.999	22158
882.125	22226
882.252	22253
882.378	22249
882.505	22303
882.631	22097
882.757	21922
882.883	22013
883.01	21987
883.136	21854
883.262	21899
883.388	21785
883.514	22051
883.64	21892
883.766	21857
883.892	21808
884.018	21785
884.143	21713
884.269	21941
884.395	21675
884.52	21694
884.646	21580
884.772	21488
884.897	21428
885.023	21682
885.148	21606
885.274	21648
885.399	21618
885.524	21481
885.65	21564
885.775	21473
885.9	21481
886.025	21641
886.15	21603
886.275	21523
886.4	21405
886.525	21523
886.65	21473
886.775	21424
886.9	21709
887.025	21747
887.149	21568
887.274	21389
887.399	21264
887.523	21294
887.648	21142
887.773	21157
887.897	21313
888.021	21230
888.146	21351
888.27	21321
888.395	21378
888.519	21511
888.643	21431
888.767	21302
888.891	21287
889.015	21184
889.139	21127
889.263	21100
889.387	21214
889.511	21351
889.635	21256
889.759	21017
889.883	21176
890.006	21135
890.13	21340
890.254	21024
890.377	21043
890.501	20868
890.624	20845
890.748	20743
890.871	20731
890.995	20758
891.118	20648
891.241	20682
891.364	20701
891.488	20762
891.611	20743
891.734	20697
891.857	20849
891.98	20682
892.103	20701
892.226	20697
892.349	20674
892.471	20526
892.594	20594
892.717	20686
892.839	20522
892.962	20659
893.085	20689
893.207	20488
893.33	20480
893.452	20511
893.575	20606
893.697	20636
893.819	20731
893.941	20708
894.064	20762
894.186	20590
894.308	20602
894.43	20602
894.552	20716
894.674	20575
894.796	20530
894.918	20598
895.04	20606
895.161	20594
895.283	20674
895.405	20522
895.526	20571
895.648	20469
895.769	20621
895.891	20629
896.012	20670
896.134	20609
896.255	20590
896.376	20488
896.498	20579
896.619	20568
896.74	20598
896.861	20648
896.982	20941
897.103	21039
897.224	20845
897.345	20857
897.466	20689
897.587	20830
897.708	20967
897.828	20857
897.949	20796
898.07	20667
898.19	20735
898.311	20705
898.431	20750
898.552	20792
898.672	20952
898.792	20838
898.913	20800
899.033	20644
899.153	20609
899.273	20598
899.393	20518
899.513	20495
899.633	20632
899.753	20549
899.873	20461
899.993	20533
900.113	20583
900.232	20480
900.352	20480
900.472	20358
900.591	20362
900.711	20225
900.83	20393
900.95	20389
901.069	20427
901.189	20218
901.308	19970
901.427	19772
901.546	19944
901.665	19795
901.784	19970
901.904	19689
902.023	19666
902.141	19544
902.26	19354
902.379	19571
902.498	19377
902.617	19460
902.735	19457
902.854	19392
902.973	19339
903.091	19099
903.21	19118
903.328	19038
903.446	18951
903.565	18814
903.683	18913
903.801	18825
903.919	18932
904.038	18787
904.156	18642
904.274	18673
904.392	18665
904.51	18540
904.627	18532
904.745	18574
904.863	18707
904.981	18433
905.098	18266
905.216	18254
905.334	18346
905.451	18338
905.569	18251
905.686	18334
905.803	18338
905.921	17980
906.038	18121
906.155	18015
906.272	17874
906.389	18003
906.506	17817
906.623	17737
906.74	17821
906.857	17680
906.974	17661
907.091	17874
907.208	17942
907.324	17870
907.441	17729
907.557	17600
907.674	17482
907.79	17474
907.907	17543
908.023	17562
908.139	17524
908.256	17474
908.372	17425
908.488	17299
908.604	17250
908.72	17246
908.836	17227
908.952	17170
909.068	17174
909.184	17303
909.3	17185
909.415	17273
909.531	17292
909.647	16953
909.762	16949
909.878	16900
909.993	16957
910.108	16900
910.224	16850
910.339	16873
910.454	16710
910.57	16744
910.685	16653
910.8	16858
910.915	16850
911.03	16729
911.145	16554
911.259	16398
911.374	16485
911.489	16459
911.604	16337
911.718	16234
911.833	16284
911.947	16139
912.062	16078
912.176	16299
912.291	16306
912.405	16322
912.519	16421
912.633	16527
912.748	16223
912.862	16234
912.976	16162
913.09	15930
913.204	16143
913.318	16204
913.431	16185
913.545	16135
913.659	16230
913.772	16131
913.886	15994
914	15907
914.113	15956
914.226	15949
914.34	15972
914.453	15835
914.566	15956
914.68	15785
914.793	15732
914.906	15584
915.019	15408
915.132	15443
915.245	15530
915.358	15564
915.47	15473
915.583	15515
915.696	15443
915.809	15599
915.921	15557
916.034	15428
916.146	15283
916.259	15428
916.371	15416
916.483	15412
916.595	15397
916.708	15233
916.82	15279
916.932	15287
917.044	15329
917.156	15264
917.268	15157
917.38	15108
917.491	15112
917.603	15150
917.715	15154
917.826	15195
917.938	15062
918.049	14971
918.161	15001
918.272	15161
918.384	15154
918.495	15123
918.606	14933
918.717	14823
918.828	14902
918.939	14956
919.05	14739
919.161	14956
919.272	14606
919.383	14693
919.494	14918
919.604	15024
919.715	14811
919.826	14743
919.936	14743
920.047	14842
920.157	14765
920.267	15039
920.378	14823
920.488	14724
920.598	15024
920.708	15116
920.818	14906
920.928	14933
921.038	15085
921.148	14960
921.258	14735
921.368	14674
921.477	14488
921.587	14640
921.697	14473
921.806	14545
921.916	14427
922.025	14259
922.134	14145
922.244	14180
922.353	14290
922.462	14069
922.571	13955
922.68	13967
922.789	13822
922.898	13837
923.007	13837
923.116	13883
923.224	13902
923.333	13757
923.442	13712
923.55	13693
923.659	13685
923.767	13689
923.876	13605
923.984	13693
924.092	13559
924.201	13563
924.309	13571
924.417	13651
924.525	13514
924.633	13419
924.741	14343
924.849	13247
924.956	13441
925.064	13251
925.172	13198
925.279	13228
925.387	13301
925.494	13251
925.602	13339
925.709	13251
925.816	13118
925.924	13164
926.031	13339
926.138	13171
926.245	13206
926.352	13072
926.459	13217
926.566	13247
926.673	13129
926.779	13069
926.886	12947
926.993	12791
927.099	12753
927.206	12753
927.312	12772
927.419	12749
927.525	12787
927.631	12783
927.737	12559
927.843	12589
927.95	12547
928.056	12665
928.162	12677
928.267	12696
928.373	13327
928.479	12795
928.585	12395
928.69	12551
928.796	12566
928.901	12403
929.007	12369
929.112	12414
929.218	12365
929.323	12319
929.428	12224
929.533	12467
929.638	12209
929.743	12235
929.848	12338
929.953	12232
930.058	12220
930.163	12057
930.267	12022
930.372	12155
930.477	11931
930.581	12277
930.685	12098
930.79	11885
930.894	11904
930.998	11752
931.103	11939
931.207	11566
931.311	11577
931.415	11505
931.519	11288
931.623	11223
