Data from test_V78500241_1034.txt Node
Date: Fri Mar 25 15:48:57 CST 2022
User: usil
Spectrometer: V785-0024
Trigger mode: 0
Integration Time (sec): 4.000000E-1
Scans to average: 1
Nonlinearity correction enabled: false
Boxcar width: 0
Storing dark spectrum: false
XAxis mode: Wavelengths
Number of Pixels in Spectrum: 1024
>>>>>Begin Spectral Data<<<<<
801.071	27663
801.214	27523
801.356	27252
801.499	27321
801.641	27138
801.783	27089
801.926	27214
802.068	27180
802.211	27142
802.353	26956
802.496	26838
802.638	26773
802.78	26796
802.923	26880
803.065	26811
803.208	26754
803.35	26781
803.492	26975
803.635	27043
803.777	26956
803.919	27077
804.061	27310
804.204	27081
804.346	27028
804.488	26853
804.63	26975
804.773	26902
804.915	26918
805.057	27066
805.199	26979
805.341	27108
805.483	27024
805.626	27127
805.768	27112
805.91	27150
806.052	27074
806.194	26857
806.336	27283
806.478	27268
806.62	27093
806.762	27260
806.904	27405
807.046	27572
807.188	27462
807.33	27625
807.472	27633
807.614	27549
807.756	27481
807.898	27355
808.04	27298
808.182	27412
808.324	27389
808.465	27504
808.607	27622
808.749	27895
808.891	27720
809.033	27842
809.174	27819
809.316	27766
809.458	27751
809.6	27690
809.741	27842
809.883	27800
810.025	27953
810.166	27949
810.308	27994
810.45	27975
810.591	28025
810.733	27888
810.875	27717
811.016	27652
811.158	27515
811.299	27789
811.441	27895
811.582	28063
811.724	27732
811.865	27694
812.007	27720
812.148	27823
812.29	27781
812.431	27949
812.573	28078
812.714	28135
812.855	28169
812.997	28394
813.138	28523
813.279	28421
813.421	28268
813.562	28280
813.703	28143
813.845	27945
813.986	27675
814.127	27443
814.268	27386
814.41	27321
814.551	27298
814.692	27500
814.833	27329
814.974	27325
815.115	27378
815.256	27249
815.397	27367
815.539	27142
815.68	27203
815.821	27074
815.962	27169
816.103	27123
816.244	27108
816.385	27043
816.526	26967
816.666	26853
816.807	26754
816.948	26689
817.089	26838
817.23	26697
817.371	26746
817.512	26674
817.653	26667
817.793	26571
817.934	26678
818.075	26689
818.216	26796
818.356	26655
818.497	26415
818.638	26347
818.778	26499
818.919	26590
819.06	26404
819.2	26530
819.341	26712
819.481	26693
819.622	26708
819.762	27017
819.903	26811
820.043	26944
820.184	26716
820.324	26750
820.465	27017
820.605	26963
820.746	26804
820.886	26712
821.026	26758
821.167	26781
821.307	26842
821.447	26834
821.588	26560
821.728	26415
821.868	26377
822.008	26267
822.149	26237
822.289	26244
822.429	25868
822.569	25868
822.709	25898
822.849	25761
822.99	25791
823.13	25734
823.27	25681
823.41	25594
823.55	25548
823.69	25499
823.83	25704
823.97	25533
824.11	25259
824.25	25297
824.389	25297
824.529	25445
824.669	25289
824.809	25388
824.949	25354
825.089	25544
825.228	25335
825.368	25255
825.508	25198
825.648	25168
825.787	25232
825.927	25308
826.067	25221
826.206	25164
826.346	25278
826.485	25198
826.625	25240
826.765	25331
826.904	25266
827.044	24954
827.183	24935
827.323	24859
827.462	24992
827.601	24916
827.741	24935
827.88	25023
828.02	24875
828.159	24951
828.298	24951
828.437	24977
828.577	24829
828.716	25050
828.855	24764
828.994	24540
829.134	24623
829.273	24597
829.412	24559
829.551	24578
829.69	24654
829.829	24563
829.968	24627
830.107	24703
830.246	24612
830.385	24410
830.524	24437
830.663	24509
830.802	24460
830.941	24258
831.08	24292
831.219	24308
831.357	24346
831.496	24517
831.635	24353
831.774	24216
831.913	24087
832.051	24125
832.19	24011
832.329	24102
832.467	23893
832.606	23874
832.744	23870
832.883	23832
833.022	23859
833.16	23851
833.299	23901
833.437	23813
833.576	23897
833.714	23969
833.852	24018
833.991	23977
834.129	24045
834.267	24106
834.406	23988
834.544	23908
834.682	23882
834.821	23912
834.959	24098
835.097	23988
835.235	24030
835.373	24026
835.511	23977
835.65	23821
835.788	23855
835.926	23767
836.064	23585
836.202	23604
836.34	23866
836.478	23832
836.615	23786
836.753	23748
836.891	23855
837.029	23638
837.167	23790
837.305	23539
837.443	23653
837.58	23684
837.718	23741
837.856	23699
837.993	23528
838.131	23703
838.269	23535
838.406	23566
838.544	23349
838.681	23284
838.819	23269
838.956	23121
839.094	23044
839.231	23067
839.369	23322
839.506	23531
839.643	23318
839.781	23105
839.918	23044
840.055	23090
840.193	23235
840.33	22999
840.467	23098
840.604	23151
840.742	23318
840.879	22965
841.016	22892
841.153	22980
841.29	23102
841.427	23033
841.564	22949
841.701	23090
841.838	22911
841.975	22946
842.112	22968
842.249	22930
842.385	22809
842.522	23048
842.659	22866
842.796	22763
842.933	22687
843.069	22664
843.206	22679
843.343	22740
843.479	22660
843.616	22774
843.752	22725
843.889	22596
844.025	22668
844.162	22443
844.298	22592
844.435	22474
844.571	22512
844.708	22519
844.844	22691
844.98	22592
845.117	22752
845.253	22485
845.389	22500
845.525	22421
845.661	22367
845.798	22276
845.934	22379
846.07	22207
846.206	22265
846.342	22428
846.478	22272
846.614	22112
846.75	21998
846.886	21915
847.022	22051
847.158	22055
847.294	21956
847.429	21968
847.565	21972
847.701	22177
847.837	21743
847.972	21876
848.108	21800
848.244	21835
848.379	21633
848.515	21591
848.65	21542
848.786	21583
848.921	21720
849.057	21743
849.192	21705
849.328	21717
849.463	21641
849.598	21652
849.734	21534
849.869	21405
850.004	21458
850.14	21431
850.275	21325
850.41	21329
850.545	21325
850.68	21321
850.815	21351
850.95	21264
851.085	21458
851.22	21401
851.355	21511
851.49	21469
851.625	21325
851.76	21355
851.895	21370
852.03	21279
852.165	21317
852.299	21431
852.434	21420
852.569	21302
852.703	21336
852.838	21408
852.973	21462
853.107	21431
853.242	21302
853.376	21138
853.511	21104
853.645	21131
853.78	21249
853.914	21256
854.048	21070
854.183	21150
854.317	21116
854.451	21275
854.585	21165
854.72	21085
854.854	21279
854.988	21024
855.122	21180
855.256	21108
855.39	21165
855.524	21264
855.658	21291
855.792	21214
855.926	21074
856.06	21306
856.194	21237
856.327	21150
856.461	21169
856.595	21165
856.729	21142
856.862	21393
856.996	21412
857.13	21336
857.263	21367
857.397	21222
857.53	21131
857.664	21245
857.797	21237
857.931	21325
858.064	21161
858.197	21287
858.331	21230
858.464	21085
858.597	21176
858.731	21112
858.864	21203
858.997	21275
859.13	21195
859.263	21211
859.396	21283
859.529	21127
859.662	21218
859.795	21138
859.928	21135
860.061	21302
860.194	21431
860.327	21310
860.46	21241
860.592	21485
860.725	21306
860.858	21233
860.99	21089
861.123	21188
861.256	21272
861.388	21199
861.521	22032
861.653	21055
861.786	20971
861.918	21032
862.05	21142
862.183	21135
862.315	21192
862.447	21214
862.58	21154
862.712	20872
862.844	20811
862.976	20967
863.108	20971
863.24	21469
863.372	20800
863.504	20845
863.636	20792
863.768	21001
863.9	20941
864.032	20933
864.164	20842
864.296	20842
864.428	20910
864.559	20967
864.691	21009
864.823	20937
864.954	20906
865.086	20906
865.217	20781
865.349	20743
865.48	20887
865.612	20918
865.743	20845
865.875	20811
866.006	20701
866.137	20788
866.269	20929
866.4	20804
866.531	20864
866.662	20868
866.793	20754
866.924	20674
867.055	20739
867.186	20754
867.317	20823
867.448	20708
867.579	20724
867.71	20739
867.841	20549
867.972	20705
868.103	20762
868.233	20735
868.364	20758
868.495	20823
868.625	20994
868.756	21104
868.886	20830
869.017	21055
869.147	21192
869.278	21157
869.408	21043
869.539	20967
869.669	21024
869.799	20967
869.929	21066
870.06	21024
870.19	21348
870.32	21260
870.45	21408
870.58	21363
870.71	21523
870.84	21405
870.97	21397
871.1	21272
871.23	21568
871.36	21633
871.489	21454
871.619	21344
871.749	21606
871.879	21675
872.008	21667
872.138	21622
872.267	21538
872.397	21435
872.526	21412
872.656	21416
872.785	21363
872.915	21504
873.044	21755
873.173	21545
873.303	21599
873.432	21682
873.561	21667
873.69	21743
873.819	21523
873.948	21694
874.077	21576
874.206	21507
874.335	21542
874.464	21610
874.593	21846
874.722	21736
874.851	21865
874.979	21785
875.108	21823
875.237	21781
875.365	21652
875.494	21903
875.623	21819
875.751	21694
875.88	21865
876.008	21903
876.136	22090
876.265	22287
876.393	22375
876.521	22303
876.65	22329
876.778	22238
876.906	22204
877.034	22093
877.162	22196
877.29	22040
877.418	22177
877.546	22249
877.674	22086
877.802	22128
877.93	22242
878.058	22044
878.185	22101
878.313	22120
878.441	22188
878.568	21991
878.696	22029
878.824	22310
878.951	22135
879.079	22234
879.206	22474
879.333	22287
879.461	22120
879.588	22291
879.715	22344
879.842	22466
879.97	22314
880.097	22036
880.224	21979
880.351	22139
880.478	22059
880.605	21991
880.732	22044
880.859	22272
880.986	22002
881.112	22002
881.239	21911
881.366	21622
881.493	21644
881.619	21523
881.746	21526
881.872	21618
881.999	21580
882.125	21614
882.252	21580
882.378	21534
882.505	21625
882.631	21420
882.757	21249
882.883	21393
883.01	21245
883.136	21230
883.262	21184
883.388	21119
883.514	21226
883.64	21291
883.766	21123
883.892	21066
884.018	20948
884.143	21226
884.269	21412
884.395	20891
884.52	20895
884.646	20876
884.772	20918
884.897	20872
885.023	20910
885.148	20842
885.274	21070
885.399	21001
885.524	20921
885.65	20937
885.775	20933
885.9	20823
886.025	20960
886.15	21017
886.275	20914
886.4	20788
886.525	20826
886.65	20769
886.775	20830
886.9	21017
887.025	21188
887.149	20864
887.274	20720
887.399	20727
887.523	20629
887.648	20648
887.773	20598
887.897	20667
888.021	20686
888.146	20724
888.27	20746
888.395	20834
888.519	20556
888.643	20670
888.767	20800
888.891	20560
889.015	20385
889.139	20480
889.263	20511
889.387	20492
889.511	20708
889.635	20663
889.759	20533
889.883	20571
890.006	20446
890.13	20621
890.254	20442
890.377	20404
890.501	20233
890.624	20199
890.748	20183
890.871	20134
890.995	20012
891.118	20035
891.241	20062
891.364	20054
891.488	20164
891.611	20096
891.734	20077
891.857	20206
891.98	20122
892.103	20122
892.226	20024
892.349	20005
892.471	19864
892.594	20035
892.717	20020
892.839	19875
892.962	19947
893.085	19967
893.207	19864
893.33	19841
893.452	19868
893.575	19974
893.697	19887
893.819	20062
893.941	20161
894.064	20100
894.186	20043
894.308	19951
894.43	19902
894.552	20020
894.674	20012
894.796	19871
894.918	19894
895.04	19940
895.161	19970
895.283	20001
895.405	19921
895.526	19944
895.648	19944
895.769	19902
895.891	20027
896.012	20062
896.134	20046
896.255	19913
896.376	19864
896.498	19936
896.619	20073
896.74	20065
896.861	20058
896.982	20214
897.103	20320
897.224	20244
897.345	20119
897.466	20119
897.587	20271
897.708	20294
897.828	20298
897.949	20100
898.07	20035
898.19	20142
898.311	20240
898.431	20084
898.552	20214
898.672	20225
898.792	20210
898.913	20263
899.033	20157
899.153	19997
899.273	19795
899.393	19875
899.513	19875
899.633	20081
899.753	19936
899.873	19841
899.993	20012
900.113	19928
900.232	19989
900.352	19921
900.472	19761
900.591	19753
900.711	19761
900.83	19685
900.95	19833
901.069	19868
901.189	19563
901.308	19426
901.427	19327
901.546	19259
901.665	19396
901.784	19453
901.904	19118
902.023	19015
902.141	18954
902.26	18837
902.379	18954
902.498	18878
902.617	18863
902.735	18886
902.854	18783
902.973	18726
903.091	18506
903.21	18555
903.328	18486
903.446	18323
903.565	18353
903.683	18365
903.801	18194
903.919	18353
904.038	18266
904.156	18038
904.274	18201
904.392	18045
904.51	18053
904.627	18114
904.745	18133
904.863	18087
904.981	17920
905.098	17741
905.216	17767
905.334	17851
905.451	17794
905.569	17737
905.686	17737
905.803	17767
905.921	17589
906.038	17714
906.155	17528
906.272	17406
906.389	17452
906.506	17360
906.623	17315
906.74	17315
906.857	17159
906.974	17284
907.091	17330
907.208	17299
907.324	17311
907.441	17299
907.557	16991
907.674	16953
907.79	16968
907.907	16915
908.023	17075
908.139	16923
908.256	16889
908.372	16942
908.488	16793
908.604	16782
908.72	16698
908.836	16668
908.952	16733
909.068	16824
909.184	16873
909.3	16694
909.415	16744
909.531	16558
909.647	16409
909.762	16341
909.878	16447
909.993	16584
910.108	16428
910.224	16284
910.339	16379
910.454	16314
910.57	16265
910.685	16162
910.8	16478
910.915	16375
911.03	16238
911.145	16025
911.259	16010
911.374	16063
911.489	15903
911.604	15831
911.718	15778
911.833	15762
911.947	15663
912.062	15561
912.176	15755
912.291	15831
912.405	15770
912.519	15949
912.633	15968
912.748	15835
912.862	15694
912.976	15637
913.09	15424
913.204	15462
913.318	15580
913.431	15648
913.545	15515
913.659	15698
913.772	15538
913.886	15386
914	15367
914.113	15485
914.226	15511
914.34	15447
914.453	15279
914.566	15412
914.68	15310
914.793	15207
914.906	15089
915.019	14994
915.132	14925
915.245	14887
915.358	14979
915.47	14986
915.583	15005
915.696	15093
915.809	15123
915.921	15142
916.034	14895
916.146	14868
916.259	14788
916.371	14963
916.483	14906
916.595	14902
916.708	14830
916.82	14807
916.932	14746
917.044	14701
917.156	14746
917.268	14598
917.38	14678
917.491	14670
917.603	14708
917.715	14651
917.826	14640
917.938	14602
918.049	14530
918.161	14610
918.272	14739
918.384	14648
918.495	14579
918.606	14381
918.717	14347
918.828	14404
918.939	14389
919.05	14412
919.161	14415
919.272	14138
919.383	14275
919.494	14434
919.604	14727
919.715	14377
919.826	14320
919.936	14202
920.047	14374
920.157	14351
920.267	14701
920.378	14347
920.488	14389
920.598	14606
920.708	14670
920.818	14511
920.928	14564
921.038	14632
921.148	14568
921.258	14374
921.368	14240
921.477	14119
921.587	14202
921.697	14024
921.806	14031
921.916	14069
922.025	13868
922.134	13769
922.244	13765
922.353	13864
922.462	13487
922.571	13563
922.68	13426
922.789	13308
922.898	13396
923.007	13327
923.116	13495
923.224	13407
923.333	13441
923.442	13240
923.55	13221
923.659	13343
923.767	13339
923.876	13240
923.984	13324
924.092	13126
924.201	13274
924.309	13209
924.417	13213
924.525	13088
924.633	13118
924.741	13753
924.849	12909
924.956	13053
925.064	12913
925.172	12795
925.279	12825
925.387	12848
925.494	12882
925.602	12989
925.709	12837
925.816	12738
925.924	12802
926.031	12878
926.138	12833
926.245	12890
926.352	12753
926.459	12798
926.566	12798
926.673	12673
926.779	12593
926.886	12620
926.993	12433
927.099	12338
927.206	12342
927.312	12361
927.419	12460
927.525	12426
927.631	12467
927.737	12289
927.843	12136
927.95	12144
928.056	12163
928.162	12239
928.267	12304
928.373	12753
928.479	12289
928.585	12068
928.69	12152
928.796	12281
928.901	12102
929.007	11969
929.112	12175
929.218	12007
929.323	12053
929.428	11992
929.533	12083
929.638	12003
929.743	11912
929.848	12022
929.953	11931
930.058	11798
930.163	11615
930.267	11638
930.372	11786
930.477	11524
930.581	11885
930.685	11756
930.79	11497
930.894	11547
930.998	11528
931.103	11661
931.207	11269
931.311	11280
931.415	11079
931.519	10949
931.623	10923
