Data from test_V78500241_824.txt Node
Date: Fri Mar 25 15:47:30 CST 2022
User: usil
Spectrometer: V785-0024
Trigger mode: 0
Integration Time (sec): 4.000000E-1
Scans to average: 1
Nonlinearity correction enabled: false
Boxcar width: 0
Storing dark spectrum: false
XAxis mode: Wavelengths
Number of Pixels in Spectrum: 1024
>>>>>Begin Spectral Data<<<<<
801.071	27781
801.214	27698
801.356	27500
801.499	27363
801.641	27154
801.783	27184
801.926	27146
802.068	27154
802.211	27150
802.353	27089
802.496	26864
802.638	27051
802.78	26861
802.923	26762
803.065	26720
803.208	26914
803.35	27020
803.492	26906
803.635	26937
803.777	26998
803.919	26982
804.061	27306
804.204	27252
804.346	26944
804.488	26921
804.63	26899
804.773	26933
804.915	26990
805.057	27157
805.199	26967
805.341	27138
805.483	27165
805.626	27131
805.768	27104
805.91	27104
806.052	27165
806.194	27070
806.336	27332
806.478	27077
806.62	27104
806.762	27207
806.904	27389
807.046	27663
807.188	27671
807.33	27462
807.472	27580
807.614	27492
807.756	27526
807.898	27462
808.04	27370
808.182	27340
808.324	27424
808.465	27405
808.607	27622
808.749	27724
808.891	27857
809.033	28025
809.174	27797
809.316	27827
809.458	27827
809.6	27728
809.741	27888
809.883	27880
810.025	28067
810.166	28021
810.308	28048
810.45	28051
810.591	27873
810.733	27846
810.875	27884
811.016	27679
811.158	27785
811.299	27975
811.441	27930
811.582	28135
811.724	27850
811.865	27800
812.007	27759
812.148	27713
812.29	27778
812.431	28093
812.573	27991
812.714	28265
812.855	28348
812.997	28386
813.138	28546
813.279	28478
813.421	28318
813.562	28295
813.703	28200
813.845	28044
813.986	27622
814.127	27549
814.268	27564
814.41	27542
814.551	27473
814.692	27675
814.833	27439
814.974	27462
815.115	27485
815.256	27397
815.397	27260
815.539	27367
815.68	27199
815.821	27180
815.962	27222
816.103	27359
816.244	27169
816.385	27108
816.526	27058
816.666	26861
816.807	26826
816.948	26914
817.089	26914
817.23	26739
817.371	26625
817.512	26830
817.653	26796
817.793	26796
817.934	26842
818.075	26857
818.216	26815
818.356	26697
818.497	26549
818.638	26488
818.778	26495
818.919	26511
819.06	26568
819.2	26670
819.341	26708
819.481	26674
819.622	26769
819.762	27043
819.903	26918
820.043	26956
820.184	26819
820.324	26788
820.465	26902
820.605	26967
820.746	26834
820.886	26868
821.026	26967
821.167	26895
821.307	26899
821.447	26819
821.588	26659
821.728	26400
821.868	26412
822.008	26347
822.149	26278
822.289	26161
822.429	25989
822.569	25963
822.709	25845
822.849	25708
822.99	25898
823.13	25750
823.27	25723
823.41	25624
823.55	25647
823.69	25605
823.83	25502
823.97	25567
824.11	25312
824.25	25381
824.389	25373
824.529	25487
824.669	25521
824.809	25464
824.949	25559
825.089	25506
825.228	25544
825.368	25285
825.508	25240
825.648	25335
825.787	25358
825.927	25403
826.067	25194
826.206	25194
826.346	25331
826.485	25217
826.625	25175
826.765	25369
826.904	25350
827.044	25008
827.183	24806
827.323	24878
827.462	24985
827.601	24913
827.741	24875
827.88	24962
828.02	24814
828.159	24882
828.298	24973
828.437	25034
828.577	25034
828.716	25110
828.855	24863
828.994	24658
829.134	24703
829.273	24654
829.412	24509
829.551	24505
829.69	24574
829.829	24631
829.968	24745
830.107	24669
830.246	24525
830.385	24658
830.524	24502
830.663	24426
830.802	24353
830.941	24235
831.08	24152
831.219	24467
831.357	24228
831.496	24441
831.635	24308
831.774	24216
831.913	24091
832.051	24064
832.19	24125
832.329	24049
832.467	24060
832.606	23802
832.744	23897
832.883	23980
833.022	23923
833.16	23969
833.299	23931
833.437	23920
833.576	23889
833.714	24018
833.852	24152
833.991	23950
834.129	24030
834.267	24087
834.406	24155
834.544	24015
834.682	23935
834.821	23939
834.959	24091
835.097	23973
835.235	23988
835.373	23939
835.511	23897
835.65	23847
835.788	23927
835.926	23733
836.064	23558
836.202	23554
836.34	23912
836.478	23847
836.615	23824
836.753	23775
836.891	23847
837.029	23813
837.167	23786
837.305	23817
837.443	23649
837.58	23672
837.718	23760
837.856	23535
837.993	23657
838.131	23627
838.269	23436
838.406	23570
838.544	23463
838.681	23455
838.819	23288
838.956	23235
839.094	23193
839.231	23174
839.369	23322
839.506	23512
839.643	23227
839.781	23128
839.918	23006
840.055	23098
840.193	23136
840.33	23037
840.467	23140
840.604	23064
840.742	23326
840.879	22873
841.016	23113
841.153	22965
841.29	23128
841.427	23056
841.564	23067
841.701	23025
841.838	23003
841.975	22873
842.112	22949
842.249	22953
842.385	22790
842.522	23029
842.659	22767
842.796	22634
842.933	22873
843.069	22755
843.206	22687
843.343	22805
843.479	22748
843.616	22763
843.752	22531
843.889	22569
844.025	22634
844.162	22523
844.298	22713
844.435	22546
844.571	22580
844.708	22611
844.844	22767
844.98	22767
845.117	22710
845.253	22497
845.389	22413
845.525	22580
845.661	22478
845.798	22272
845.934	22451
846.07	22287
846.206	22287
846.342	22261
846.478	22173
846.614	22040
846.75	22025
846.886	22105
847.022	22154
847.158	22070
847.294	22158
847.429	22097
847.565	21873
847.701	22215
847.837	21838
847.972	21747
848.108	21800
848.244	21850
848.379	21667
848.515	21629
848.65	21641
848.786	21561
848.921	21633
849.057	21720
849.192	21648
849.328	21698
849.463	21583
849.598	21675
849.734	21545
849.869	21519
850.004	21401
850.14	21519
850.275	21370
850.41	21302
850.545	21272
850.68	21542
850.815	21428
850.95	21435
851.085	21641
851.22	21504
851.355	21428
851.49	21408
851.625	21310
851.76	21344
851.895	21233
852.03	21317
852.165	21382
852.299	21481
852.434	21481
852.569	21431
852.703	21332
852.838	21488
852.973	21488
853.107	21561
853.242	21291
853.376	21146
853.511	21062
853.645	21138
853.78	21306
853.914	21245
854.048	21272
854.183	21176
854.317	21157
854.451	21401
854.585	21218
854.72	21138
854.854	21294
854.988	21081
855.122	21279
855.256	21131
855.39	21291
855.524	21252
855.658	21336
855.792	21241
855.926	21405
856.06	21317
856.194	21298
856.327	21157
856.461	21188
856.595	21081
856.729	21138
856.862	21408
856.996	21222
857.13	21420
857.263	21268
857.397	21268
857.53	21260
857.664	21260
857.797	21264
857.931	21355
858.064	21173
858.197	21416
858.331	21176
858.464	21093
858.597	21154
858.731	21157
858.864	21203
858.997	21176
859.13	21237
859.263	21256
859.396	21428
859.529	21150
859.662	21233
859.795	21146
859.928	21203
860.061	21359
860.194	21306
860.327	21268
860.46	21279
860.592	21348
860.725	21431
860.858	21386
860.99	21207
861.123	21074
861.256	21104
861.388	21146
861.521	21953
861.653	21165
861.786	20899
861.918	21017
862.05	21127
862.183	21138
862.315	21138
862.447	21260
862.58	21157
862.712	20781
862.844	20910
862.976	21055
863.108	21013
863.24	21397
863.372	20872
863.504	20902
863.636	20967
863.768	20960
863.9	21009
864.032	20811
864.164	20906
864.296	21001
864.428	20967
864.559	21013
864.691	20975
864.823	20956
864.954	20975
865.086	20899
865.217	20929
865.349	20804
865.48	20750
865.612	20834
865.743	20906
865.875	20899
866.006	20697
866.137	20632
866.269	20727
866.4	20788
866.531	20861
866.662	20697
866.793	20724
866.924	20785
867.055	20754
867.186	20777
867.317	20804
867.448	20651
867.579	20705
867.71	20678
867.841	20678
867.972	20857
868.103	20773
868.233	20777
868.364	20689
868.495	20849
868.625	20982
868.756	21138
868.886	20918
869.017	21047
869.147	21131
869.278	21074
869.408	20918
869.539	20933
869.669	21070
869.799	20941
869.929	21161
870.06	21184
870.19	21393
870.32	21241
870.45	21359
870.58	21405
870.71	21481
870.84	21488
870.97	21249
871.1	21389
871.23	21599
871.36	21641
871.489	21507
871.619	21618
871.749	21530
871.879	21587
872.008	21770
872.138	21564
872.267	21576
872.397	21428
872.526	21477
872.656	21370
872.785	21435
872.915	21618
873.044	21667
873.173	21606
873.303	21629
873.432	21652
873.561	21682
873.69	21625
873.819	21671
873.948	21663
874.077	21679
874.206	21614
874.335	21466
874.464	21713
874.593	21895
874.722	21873
874.851	21804
874.979	21751
875.108	21972
875.237	21797
875.365	21751
875.494	21724
875.623	21861
875.751	21808
875.88	21968
876.008	21956
876.136	21998
876.265	22375
876.393	22375
876.521	22226
876.65	22382
876.778	22207
876.906	22219
877.034	22097
877.162	22238
877.29	22086
877.418	22173
877.546	22200
877.674	22261
877.802	22272
877.93	22219
878.058	22135
878.185	21937
878.313	22116
878.441	22238
878.568	22048
878.696	22185
878.824	22223
878.951	22230
879.079	22474
879.206	22363
879.333	22322
879.461	22177
879.588	22299
879.715	22421
879.842	22390
879.97	22150
880.097	21983
880.224	22006
880.351	21983
880.478	22032
880.605	21941
880.732	22021
880.859	22177
880.986	21930
881.112	21983
881.239	21846
881.366	21747
881.493	21717
881.619	21679
881.746	21553
881.872	21603
881.999	21606
882.125	21492
882.252	21709
882.378	21610
882.505	21545
882.631	21428
882.757	21302
882.883	21408
883.01	21279
883.136	21272
883.262	21116
883.388	21165
883.514	21329
883.64	21382
883.766	21176
883.892	21085
884.018	21123
884.143	21176
884.269	21294
884.395	20986
884.52	20777
884.646	20952
884.772	20918
884.897	20781
885.023	20937
885.148	20994
885.274	21043
885.399	21146
885.524	20906
885.65	20883
885.775	20929
885.9	20986
886.025	20979
886.15	21005
886.275	20902
886.4	20823
886.525	20902
886.65	20853
886.775	20807
886.9	21104
887.025	21184
887.149	20891
887.274	20678
887.399	20667
887.523	20663
887.648	20571
887.773	20655
887.897	20857
888.021	20682
888.146	20590
888.27	20872
888.395	20750
888.519	20788
888.643	20815
888.767	20758
888.891	20609
889.015	20461
889.139	20507
889.263	20537
889.387	20773
889.511	20659
889.635	20712
889.759	20533
889.883	20461
890.006	20465
890.13	20609
890.254	20476
890.377	20309
890.501	20229
890.624	20290
890.748	20294
890.871	20092
890.995	20172
891.118	20043
891.241	19986
891.364	19989
891.488	20164
891.611	20027
891.734	20145
891.857	20081
891.98	19978
892.103	20259
892.226	20157
892.349	19928
892.471	19826
892.594	19936
892.717	20134
892.839	19928
892.962	20031
893.085	20062
893.207	20020
893.33	19814
893.452	19925
893.575	20062
893.697	19837
893.819	20172
893.941	20145
894.064	20111
894.186	19928
894.308	19883
894.43	20008
894.552	20039
894.674	20126
894.796	19894
894.918	19944
895.04	20031
895.161	20100
895.283	19944
895.405	19932
895.526	19997
895.648	20012
895.769	20058
895.891	20111
896.012	20001
896.134	20027
896.255	19894
896.376	19940
896.498	19894
896.619	19993
896.74	19997
896.861	19997
896.982	20328
897.103	20305
897.224	20240
897.345	20149
897.466	20195
897.587	20183
897.708	20290
897.828	20210
897.949	20210
898.07	20084
898.19	20183
898.311	20355
898.431	20275
898.552	20172
898.672	20286
898.792	20176
898.913	20206
899.033	20149
899.153	19932
899.273	19917
899.393	20103
899.513	20077
899.633	20092
899.753	19921
899.873	19986
899.993	19936
900.113	20020
900.232	19826
900.352	19849
900.472	19807
900.591	19704
900.711	19803
900.83	19620
900.95	19826
901.069	19807
901.189	19567
901.308	19525
901.427	19289
901.546	19369
901.665	19293
901.784	19339
901.904	19152
902.023	19179
902.141	18882
902.26	18958
902.379	19000
902.498	18814
902.617	18821
902.735	18890
902.854	18764
902.973	18757
903.091	18658
903.21	18506
903.328	18475
903.446	18357
903.565	18361
903.683	18395
903.801	18327
903.919	18296
904.038	18235
904.156	18019
904.274	18049
904.392	18064
904.51	17954
904.627	18095
904.745	18197
904.863	18121
904.981	18003
905.098	17756
905.216	17703
905.334	17870
905.451	17642
905.569	17752
905.686	17809
905.803	17729
905.921	17554
906.038	17649
906.155	17657
906.272	17402
906.389	17448
906.506	17307
906.623	17246
906.74	17235
906.857	17189
906.974	17265
907.091	17250
907.208	17433
907.324	17258
907.441	17162
907.557	17067
907.674	17067
907.79	16995
907.907	16999
908.023	17128
908.139	16999
908.256	16938
908.372	16991
908.488	16885
908.604	16717
908.72	16740
908.836	16786
908.952	16687
909.068	16847
909.184	16767
909.3	16626
909.415	16710
909.531	16812
909.647	16535
909.762	16394
909.878	16390
909.993	16538
910.108	16337
910.224	16428
910.339	16356
910.454	16265
910.57	16219
910.685	16082
910.8	16485
910.915	16440
911.03	16280
911.145	16109
911.259	16010
911.374	16051
911.489	16048
911.604	15956
911.718	15861
911.833	15835
911.947	15701
912.062	15751
912.176	15819
912.291	15793
912.405	15781
912.519	15964
912.633	15979
912.748	15759
912.862	15713
912.976	15618
913.09	15477
913.204	15576
913.318	15698
913.431	15637
913.545	15671
913.659	15656
913.772	15603
913.886	15389
914	15370
914.113	15488
914.226	15466
914.34	15431
914.453	15370
914.566	15492
914.68	15306
914.793	15245
914.906	15116
915.019	14986
915.132	15032
915.245	15017
915.358	15005
915.47	15032
915.583	15024
915.696	15097
915.809	15127
915.921	15119
916.034	14937
916.146	14929
916.259	14880
916.371	15074
916.483	14925
916.595	14811
916.708	14769
916.82	14948
916.932	14788
917.044	14762
917.156	14705
917.268	14640
917.38	14670
917.491	14606
917.603	14743
917.715	14777
917.826	14777
917.938	14632
918.049	14533
918.161	14629
918.272	14693
918.384	14720
918.495	14541
918.606	14415
918.717	14324
918.828	14514
918.939	14431
919.05	14385
919.161	14366
919.272	14294
919.383	14294
919.494	14374
919.604	14727
919.715	14393
919.826	14332
919.936	14419
920.047	14473
920.157	14358
920.267	14590
920.378	14427
920.488	14370
920.598	14610
920.708	14610
920.818	14518
920.928	14518
921.038	14716
921.148	14636
921.258	14362
921.368	14199
921.477	14164
921.587	14069
921.697	13932
921.806	14145
921.916	13986
922.025	13822
922.134	13849
922.244	13856
922.353	13700
922.462	13780
922.571	13597
922.68	13495
922.789	13396
922.898	13400
923.007	13411
923.116	13441
923.224	13430
923.333	13308
923.442	13247
923.55	13247
923.659	13228
923.767	13251
923.876	13240
923.984	13320
924.092	13175
924.201	13213
924.309	13217
924.417	13236
924.525	13198
924.633	13034
924.741	14027
924.849	12886
924.956	13118
925.064	12897
925.172	12776
925.279	12726
925.387	12791
925.494	12821
925.602	13038
925.709	12916
925.816	12779
925.924	12814
926.031	12909
926.138	12833
926.245	12787
926.352	12715
926.459	12798
926.566	12798
926.673	12688
926.779	12566
926.886	12620
926.993	12403
927.099	12426
927.206	12319
927.312	12418
927.419	12506
927.525	12407
927.631	12490
927.737	12270
927.843	12171
927.95	12121
928.056	12239
928.162	12296
928.267	12235
928.373	12935
928.479	12376
928.585	12095
928.69	12235
928.796	12338
928.901	12057
929.007	12015
929.112	12083
929.218	12083
929.323	12015
929.428	11889
929.533	12098
929.638	11836
929.743	11912
929.848	11931
929.953	11942
930.058	11756
930.163	11691
930.267	11695
930.372	11821
930.477	11642
930.581	11813
930.685	11741
930.79	11581
930.894	11661
930.998	11566
931.103	11684
931.207	11284
931.311	11239
931.415	11105
931.519	10991
931.623	10908
