Data from test_V78500241_2579.txt Node
Date: Fri Mar 25 15:59:39 CST 2022
User: usil
Spectrometer: V785-0024
Trigger mode: 0
Integration Time (sec): 4.000000E-1
Scans to average: 1
Nonlinearity correction enabled: false
Boxcar width: 0
Storing dark spectrum: false
XAxis mode: Wavelengths
Number of Pixels in Spectrum: 1024
>>>>>Begin Spectral Data<<<<<
801.071	28500
801.214	28371
801.356	28207
801.499	28238
801.641	28006
801.783	28063
801.926	28181
802.068	28006
802.211	27907
802.353	27899
802.496	27762
802.638	27800
802.78	27705
802.923	27690
803.065	27637
803.208	27762
803.35	27808
803.492	27884
803.635	28044
803.777	27884
803.919	27876
804.061	28188
804.204	28097
804.346	28036
804.488	27930
804.63	28036
804.773	27774
804.915	27861
805.057	28128
805.199	28040
805.341	27960
805.483	28169
805.626	28150
805.768	27854
805.91	28158
806.052	28169
806.194	28006
806.336	28375
806.478	28093
806.62	28105
806.762	28341
806.904	28421
807.046	28554
807.188	28489
807.33	28615
807.472	28664
807.614	28557
807.756	28470
807.898	28466
808.04	28322
808.182	28367
808.324	28440
808.465	28466
808.607	28611
808.749	28767
808.891	28968
809.033	28949
809.174	28835
809.316	28858
809.458	28828
809.6	28713
809.741	29014
809.883	28824
810.025	28995
810.166	28965
810.308	29147
810.45	29029
810.591	28862
810.733	28858
810.875	28801
811.016	28698
811.158	28645
811.299	28949
811.441	28831
811.582	28854
811.724	28816
811.865	28892
812.007	28672
812.148	28839
812.29	28839
812.431	29014
812.573	29166
812.714	29273
812.855	29326
812.997	29364
813.138	29528
813.279	29395
813.421	29379
813.562	29254
813.703	29185
813.845	28987
813.986	28691
814.127	28694
814.268	28508
814.41	28538
814.551	28508
814.692	28592
814.833	28508
814.974	28527
815.115	28481
815.256	28348
815.397	28310
815.539	28265
815.68	28295
815.821	28226
815.962	28466
816.103	28314
816.244	28097
816.385	28150
816.526	28036
816.666	27918
816.807	27667
816.948	27842
817.089	27953
817.23	27781
817.371	27705
817.512	27774
817.653	27698
817.793	27728
817.934	27652
818.075	27869
818.216	27774
818.356	27770
818.497	27690
818.638	27466
818.778	27454
818.919	27568
819.06	27720
819.2	27641
819.341	27743
819.481	27838
819.622	27972
819.762	28093
819.903	28025
820.043	27964
820.184	27949
820.324	27922
820.465	28010
820.605	27983
820.746	27914
820.886	27766
821.026	27819
821.167	27759
821.307	27873
821.447	27960
821.588	27682
821.728	27614
821.868	27367
822.008	27275
822.149	27294
822.289	27329
822.429	26921
822.569	27009
822.709	27005
822.849	26864
822.99	26754
823.13	26800
823.27	26644
823.41	26697
823.55	26526
823.69	26587
823.83	26549
823.97	26453
824.11	26419
824.25	26282
824.389	26412
824.529	26503
824.669	26275
824.809	26602
824.949	26450
825.089	26442
825.228	26427
825.368	26191
825.508	26313
825.648	26317
825.787	26434
825.927	26343
826.067	26252
826.206	26275
826.346	26434
826.485	26457
826.625	26183
826.765	26473
826.904	26328
827.044	25951
827.183	26115
827.323	25944
827.462	26024
827.601	26084
827.741	25883
827.88	26035
828.02	25928
828.159	25986
828.298	26050
828.437	26012
828.577	25947
828.716	26054
828.855	25868
828.994	25727
829.134	25655
829.273	25780
829.412	25700
829.551	25533
829.69	25715
829.829	25746
829.968	25643
830.107	25753
830.246	25750
830.385	25791
830.524	25578
830.663	25438
830.802	25350
830.941	25320
831.08	25343
831.219	25422
831.357	25350
831.496	25559
831.635	25358
831.774	25137
831.913	25148
832.051	25099
832.19	25164
832.329	24897
832.467	25015
832.606	24825
832.744	24806
832.883	24867
833.022	24920
833.16	24992
833.299	25008
833.437	25023
833.576	25084
833.714	25046
833.852	25038
833.991	24947
834.129	25103
834.267	25099
834.406	25023
834.544	25137
834.682	25027
834.821	25004
834.959	25251
835.097	24856
835.235	24943
835.373	24943
835.511	24833
835.65	24916
835.788	24897
835.926	24760
836.064	24604
836.202	24642
836.34	24932
836.478	24951
836.615	24909
836.753	24920
836.891	24901
837.029	24932
837.167	24681
837.305	24665
837.443	24623
837.58	24768
837.718	24817
837.856	24661
837.993	24669
838.131	24681
838.269	24475
838.406	24802
838.544	24574
838.681	24182
838.819	24334
838.956	24201
839.094	24121
839.231	24292
839.369	24407
839.506	24483
839.643	24277
839.781	24057
839.918	24121
840.055	24095
840.193	24182
840.33	24136
840.467	24182
840.604	24038
840.742	24182
840.879	23904
841.016	23977
841.153	23889
841.29	24239
841.427	24030
841.564	24022
841.701	24167
841.838	23904
841.975	23901
842.112	23946
842.249	23836
842.385	23767
842.522	23965
842.659	23809
842.796	23737
842.933	23687
843.069	23813
843.206	23638
843.343	23885
843.479	23821
843.616	23748
843.752	23634
843.889	23668
844.025	23665
844.162	23520
844.298	23775
844.435	23501
844.571	23585
844.708	23562
844.844	23680
844.98	23737
845.117	23699
845.253	23562
845.389	23379
845.525	23493
845.661	23558
845.798	23376
845.934	23421
846.07	23334
846.206	23307
846.342	23490
846.478	23254
846.614	23105
846.75	22946
846.886	23075
847.022	23166
847.158	23029
847.294	23083
847.429	22923
847.565	23014
847.701	23330
847.837	22778
847.972	22820
848.108	22881
848.244	22915
848.379	22790
848.515	22634
848.65	22569
848.786	22470
848.921	22596
849.057	22839
849.192	22725
849.328	22588
849.463	22550
849.598	22634
849.734	22615
849.869	22500
850.004	22390
850.14	22371
850.275	22394
850.41	22272
850.545	22405
850.68	22314
850.815	22424
850.95	22390
851.085	22531
851.22	22504
851.355	22519
851.49	22424
851.625	22280
851.76	22386
851.895	22265
852.03	22398
852.165	22417
852.299	22466
852.434	22500
852.569	22390
852.703	22356
852.838	22493
852.973	22500
853.107	22478
853.242	22375
853.376	22097
853.511	22143
853.645	22223
853.78	22291
853.914	22226
854.048	22147
854.183	22219
854.317	22223
854.451	22447
854.585	22173
854.72	22185
854.854	22143
854.988	22192
855.122	22188
855.256	22032
855.39	22333
855.524	22192
855.658	22211
855.792	22329
855.926	22211
856.06	22276
856.194	22265
856.327	22120
856.461	22147
856.595	22154
856.729	22185
856.862	22276
856.996	22200
857.13	22341
857.263	22432
857.397	22314
857.53	22310
857.664	22234
857.797	22295
857.931	22280
858.064	22219
858.197	22291
858.331	22185
858.464	22131
858.597	22070
858.731	22215
858.864	22124
858.997	22318
859.13	22169
859.263	22196
859.396	22299
859.529	22181
859.662	22116
859.795	22173
859.928	22196
860.061	22409
860.194	22413
860.327	22223
860.46	22211
860.592	22295
860.725	22253
860.858	22265
860.99	22211
861.123	22166
861.256	22135
861.388	22211
861.521	22828
861.653	22169
861.786	22063
861.918	22082
862.05	22036
862.183	22128
862.315	22238
862.447	22181
862.58	22120
862.712	21873
862.844	21869
862.976	22048
863.108	22029
863.24	22375
863.372	21941
863.504	21918
863.636	21823
863.768	21994
863.9	21884
864.032	21842
864.164	21987
864.296	21983
864.428	22105
864.559	22078
864.691	21979
864.823	22002
864.954	21979
865.086	21930
865.217	21819
865.349	21656
865.48	21797
865.612	21690
865.743	21956
865.875	21831
866.006	21869
866.137	21857
866.269	21838
866.4	21808
866.531	21686
866.662	21679
866.793	21717
866.924	21831
867.055	21789
867.186	21686
867.317	21713
867.448	21629
867.579	21705
867.71	21641
867.841	21633
867.972	21759
868.103	21789
868.233	21686
868.364	21747
868.495	21861
868.625	21895
868.756	22025
868.886	21873
869.017	21937
869.147	22029
869.278	22128
869.408	21949
869.539	21956
869.669	22078
869.799	22055
869.929	22112
870.06	22116
870.19	22196
870.32	22242
870.45	22371
870.58	22238
870.71	22402
870.84	22417
870.97	22341
871.1	22485
871.23	22569
871.36	22611
871.489	22421
871.619	22557
871.749	22466
871.879	22542
872.008	22694
872.138	22622
872.267	22493
872.397	22375
872.526	22371
872.656	22322
872.785	22367
872.915	22531
873.044	22626
873.173	22592
873.303	22649
873.432	22660
873.561	22691
873.69	22622
873.819	22577
873.948	22649
874.077	22599
874.206	22531
874.335	22634
874.464	22797
874.593	22782
874.722	22752
874.851	22698
874.979	22831
875.108	22675
875.237	22713
875.365	22710
875.494	22790
875.623	23010
875.751	22828
875.88	22858
876.008	22869
876.136	22938
876.265	23109
876.393	23227
876.521	23273
876.65	23254
876.778	23254
876.906	23216
877.034	23071
877.162	23151
877.29	23117
877.418	23280
877.546	23147
877.674	23079
877.802	23242
877.93	23098
878.058	23033
878.185	23052
878.313	23052
878.441	23132
878.568	22869
878.696	23121
878.824	23181
878.951	23166
879.079	23299
879.206	23474
879.333	23288
879.461	23227
879.588	23284
879.715	23280
879.842	23440
879.97	23181
880.097	23003
880.224	22930
880.351	22984
880.478	22984
880.605	23022
880.732	23022
880.859	23143
880.986	23018
881.112	23033
881.239	22892
881.366	22577
881.493	22550
881.619	22580
881.746	22569
881.872	22523
881.999	22447
882.125	22497
882.252	22447
882.378	22489
882.505	22516
882.631	22508
882.757	22173
882.883	22421
883.01	22169
883.136	22230
883.262	22139
883.388	22093
883.514	22192
883.64	22223
883.766	22051
883.892	21987
884.018	21949
884.143	22097
884.269	22139
884.395	21835
884.52	21759
884.646	21766
884.772	21823
884.897	21728
885.023	21895
885.148	21964
885.274	22055
885.399	21945
885.524	21937
885.65	21808
885.775	21949
885.9	21899
886.025	22040
886.15	21873
886.275	21854
886.4	21800
886.525	21819
886.65	21800
886.775	21698
886.9	22105
887.025	22086
887.149	21720
887.274	21580
887.399	21587
887.523	21618
887.648	21549
887.773	21443
887.897	21614
888.021	21812
888.146	21507
888.27	21614
888.395	21591
888.519	21610
888.643	21572
888.767	21606
888.891	21504
889.015	21435
889.139	21473
889.263	21447
889.387	21473
889.511	21618
889.635	21523
889.759	21359
889.883	21374
890.006	21355
890.13	21454
890.254	21348
890.377	21401
890.501	21192
890.624	21066
890.748	21237
890.871	21051
890.995	20998
891.118	20979
891.241	20902
891.364	20982
891.488	21028
891.611	20925
891.734	20994
891.857	20914
891.98	21020
892.103	20990
892.226	21024
892.349	20864
892.471	20811
892.594	20830
892.717	20880
892.839	20811
892.962	20956
893.085	20941
893.207	20792
893.33	20849
893.452	20716
893.575	21001
893.697	20880
893.819	20910
893.941	20990
894.064	20944
894.186	20792
894.308	20811
894.43	20902
894.552	21024
894.674	20895
894.796	20609
894.918	20880
895.04	20906
895.161	20902
895.283	20960
895.405	20758
895.526	20857
895.648	20788
895.769	20785
895.891	20849
896.012	20918
896.134	20925
896.255	20834
896.376	20830
896.498	20906
896.619	20731
896.74	20849
896.861	20823
896.982	21154
897.103	21252
897.224	21112
897.345	21055
897.466	21047
897.587	21032
897.708	21150
897.828	21089
897.949	20952
898.07	20819
898.19	20952
898.311	21074
898.431	21005
898.552	21154
898.672	21070
898.792	21032
898.913	21157
899.033	20975
899.153	20762
899.273	20636
899.393	20823
899.513	20724
899.633	20712
899.753	20800
899.873	20739
899.993	20826
900.113	20648
900.232	20762
900.352	20746
900.472	20621
900.591	20366
900.711	20632
900.83	20518
900.95	20568
901.069	20560
901.189	20358
901.308	20233
901.427	20187
901.546	20050
901.665	20218
901.784	20119
901.904	19963
902.023	20001
902.141	19719
902.26	19731
902.379	19689
902.498	19563
902.617	19609
902.735	19635
902.854	19537
902.973	19537
903.091	19293
903.21	19369
903.328	19164
903.446	19232
903.565	19137
903.683	19088
903.801	19031
903.919	19091
904.038	19107
904.156	18973
904.274	19023
904.392	18753
904.51	18814
904.627	18856
904.745	18905
904.863	18848
904.981	18597
905.098	18563
905.216	18452
905.334	18471
905.451	18566
905.569	18513
905.686	18574
905.803	18471
905.921	18384
906.038	18372
906.155	18262
906.272	18110
906.389	18239
906.506	18038
906.623	17992
906.74	18041
906.857	18038
906.974	17954
907.091	18076
907.208	18133
907.324	18068
907.441	18015
907.557	17832
907.674	17748
907.79	17726
907.907	17691
908.023	17786
908.139	17756
908.256	17646
908.372	17691
908.488	17520
908.604	17596
908.72	17490
908.836	17455
908.952	17326
909.068	17520
909.184	17551
909.3	17482
909.415	17486
909.531	17478
909.647	17307
909.762	17261
909.878	17045
909.993	17113
910.108	17181
910.224	17067
910.339	17071
910.454	17079
910.57	16927
910.685	16938
910.8	17212
910.915	17098
911.03	16927
911.145	16828
911.259	16748
911.374	16790
911.489	16653
911.604	16538
911.718	16443
911.833	16402
911.947	16352
912.062	16303
912.176	16398
912.291	16512
912.405	16398
912.519	16694
912.633	16736
912.748	16535
912.862	16481
912.976	16295
913.09	16162
913.204	16322
913.318	16344
913.431	16371
913.545	16402
913.659	16398
913.772	16207
913.886	16124
914	16086
914.113	16143
914.226	16169
914.34	16124
914.453	15983
914.566	16196
914.68	15964
914.793	15926
914.906	15774
915.019	15781
915.132	15747
915.245	15660
915.358	15694
915.47	15686
915.583	15660
915.696	15755
915.809	15751
915.921	15915
916.034	15618
916.146	15610
916.259	15507
916.371	15641
916.483	15568
916.595	15507
916.708	15496
916.82	15504
916.932	15507
917.044	15401
917.156	15507
917.268	15378
917.38	15363
917.491	15367
917.603	15355
917.715	15370
917.826	15462
917.938	15272
918.049	15138
918.161	15317
918.272	15393
918.384	15389
918.495	15275
918.606	15188
918.717	15123
918.828	15112
918.939	15074
919.05	14975
919.161	15138
919.272	14880
919.383	14918
919.494	15055
919.604	15275
919.715	15058
919.826	14921
919.936	15070
920.047	15135
920.157	15112
920.267	15184
920.378	15119
920.488	14990
920.598	15268
920.708	15340
920.818	15062
920.928	15207
921.038	15321
921.148	15188
921.258	15062
921.368	14781
921.477	14739
921.587	14724
921.697	14682
921.806	14815
921.916	14632
922.025	14499
922.134	14412
922.244	14385
922.353	14488
922.462	14385
922.571	14328
922.68	14111
922.789	14039
922.898	14103
923.007	14016
923.116	14111
923.224	14020
923.333	13932
923.442	13932
923.55	13856
923.659	13906
923.767	13921
923.876	13788
923.984	13856
924.092	13807
924.201	13723
924.309	13860
924.417	13814
924.525	13712
924.633	13803
924.741	14606
924.849	13540
924.956	13689
925.064	13422
925.172	13400
925.279	13430
925.387	13506
925.494	13438
925.602	13540
925.709	13483
925.816	13327
925.924	13339
926.031	13483
926.138	13392
926.245	13445
926.352	13274
926.459	13400
926.566	13415
926.673	13259
926.779	13198
926.886	13137
926.993	12996
927.099	13004
927.206	13000
927.312	12913
927.419	13004
927.525	13000
927.631	12985
927.737	12817
927.843	12859
927.95	12669
928.056	12806
928.162	12833
928.267	12928
928.373	13270
928.479	12894
928.585	12631
928.69	12757
928.796	12840
928.901	12650
929.007	12506
929.112	12753
929.218	12627
929.323	12532
929.428	12490
929.533	12650
929.638	12467
929.743	12471
929.848	12536
929.953	12509
930.058	12292
930.163	12148
930.267	12140
930.372	12338
930.477	12095
930.581	12353
930.685	12254
930.79	12136
930.894	12110
930.998	12015
931.103	12098
931.207	11828
931.311	11783
931.415	11695
931.519	11490
931.623	11341
