Data from test_V78500241_2705.txt Node
Date: Fri Mar 25 16:00:32 CST 2022
User: usil
Spectrometer: V785-0024
Trigger mode: 0
Integration Time (sec): 4.000000E-1
Scans to average: 1
Nonlinearity correction enabled: false
Boxcar width: 0
Storing dark spectrum: false
XAxis mode: Wavelengths
Number of Pixels in Spectrum: 1024
>>>>>Begin Spectral Data<<<<<
801.071	28390
801.214	28223
801.356	28154
801.499	28002
801.641	27903
801.783	28040
801.926	28090
802.068	27949
802.211	27842
802.353	27850
802.496	27667
802.638	27690
802.78	27492
802.923	27492
803.065	27500
803.208	27545
803.35	27553
803.492	27743
803.635	27755
803.777	27694
803.919	27808
804.061	28112
804.204	27827
804.346	27800
804.488	27774
804.63	27789
804.773	27857
804.915	27831
805.057	28021
805.199	27835
805.341	28044
805.483	27991
805.626	27884
805.768	27857
805.91	27922
806.052	28051
806.194	27857
806.336	28048
806.478	28006
806.62	27842
806.762	28150
806.904	28207
807.046	28462
807.188	28337
807.33	28375
807.472	28531
807.614	28188
807.756	28325
807.898	28314
808.04	28169
808.182	28223
808.324	28379
808.465	28200
808.607	28500
808.749	28622
808.891	28771
809.033	28797
809.174	28607
809.316	28607
809.458	28717
809.6	28565
809.741	28801
809.883	28774
810.025	28805
810.166	28923
810.308	28923
810.45	28786
810.591	28896
810.733	28649
810.875	28611
811.016	28599
811.158	28596
811.299	28603
811.441	28835
811.582	28927
811.724	28744
811.865	28744
812.007	28622
812.148	28630
812.29	28596
812.431	28908
812.573	28930
812.714	29147
812.855	29086
812.997	29280
813.138	29181
813.279	29189
813.421	29136
813.562	28900
813.703	29079
813.845	28812
813.986	28500
814.127	28554
814.268	28318
814.41	28421
814.551	28150
814.692	28394
814.833	28249
814.974	28394
815.115	28401
815.256	28185
815.397	28352
815.539	28181
815.68	28150
815.821	27960
815.962	28200
816.103	28169
816.244	28055
816.385	27956
816.526	27907
816.666	27835
816.807	27641
816.948	27694
817.089	27679
817.23	27603
817.371	27720
817.512	27583
817.653	27686
817.793	27606
817.934	27724
818.075	27732
818.216	27644
818.356	27629
818.497	27557
818.638	27382
818.778	27249
818.919	27325
819.06	27477
819.2	27641
819.341	27732
819.481	27789
819.622	27648
819.762	28063
819.903	27918
820.043	27964
820.184	27701
820.324	27835
820.465	27770
820.605	27759
820.746	27739
820.886	27599
821.026	27599
821.167	27614
821.307	27808
821.447	27797
821.588	27549
821.728	27519
821.868	27184
822.008	27203
822.149	27161
822.289	27066
822.429	26811
822.569	26750
822.709	26762
822.849	26750
822.99	26792
823.13	26503
823.27	26621
823.41	26518
823.55	26237
823.69	26533
823.83	26431
823.97	26358
824.11	26244
824.25	26218
824.389	26221
824.529	26290
824.669	26206
824.809	26343
824.949	26103
825.089	26290
825.228	26343
825.368	26142
825.508	26183
825.648	26191
825.787	26134
825.927	26343
826.067	26126
826.206	26176
826.346	26077
826.485	26248
826.625	26122
826.765	26191
826.904	26248
827.044	25849
827.183	25986
827.323	25757
827.462	26005
827.601	25906
827.741	25753
827.88	25803
828.02	25727
828.159	25852
828.298	25894
828.437	25955
828.577	25814
828.716	25883
828.855	25769
828.994	25639
829.134	25544
829.273	25620
829.412	25548
829.551	25426
829.69	25632
829.829	25609
829.968	25597
830.107	25624
830.246	25567
830.385	25491
830.524	25369
830.663	25324
830.802	25110
830.941	25061
831.08	24970
831.219	25187
831.357	25244
831.496	25388
831.635	25179
831.774	25091
831.913	25012
832.051	25012
832.19	24890
832.329	24871
832.467	24928
832.606	24779
832.744	24802
832.883	24783
833.022	24696
833.16	24890
833.299	24924
833.437	24856
833.576	24913
833.714	24935
833.852	24894
833.991	24989
834.129	24856
834.267	24954
834.406	24734
834.544	24901
834.682	24920
834.821	24833
834.959	24958
835.097	24814
835.235	24829
835.373	24947
835.511	24905
835.65	24677
835.788	24772
835.926	24661
836.064	24589
836.202	24570
836.34	24719
836.478	24825
836.615	24604
836.753	24616
836.891	24897
837.029	24692
837.167	24673
837.305	24578
837.443	24574
837.58	24532
837.718	24547
837.856	24608
837.993	24456
838.131	24441
838.269	24505
838.406	24433
838.544	24270
838.681	24224
838.819	24216
838.956	24060
839.094	24007
839.231	24133
839.369	24213
839.506	24357
839.643	24308
839.781	24015
839.918	24026
840.055	24003
840.193	23999
840.33	23901
840.467	23805
840.604	23904
840.742	24163
840.879	23726
841.016	23847
841.153	23840
841.29	23980
841.427	23916
841.564	23866
841.701	23912
841.838	23828
841.975	23764
842.112	23927
842.249	23741
842.385	23611
842.522	23961
842.659	23893
842.796	23623
842.933	23623
843.069	23566
843.206	23554
843.343	23695
843.479	23684
843.616	23608
843.752	23486
843.889	23395
844.025	23577
844.162	23463
844.298	23459
844.435	23467
844.571	23395
844.708	23471
844.844	23649
844.98	23585
845.117	23402
845.253	23334
845.389	23311
845.525	23277
845.661	23242
845.798	23010
845.934	23261
846.07	23159
846.206	23212
846.342	23417
846.478	23143
846.614	23003
846.75	22911
846.886	22809
847.022	22873
847.158	22946
847.294	22881
847.429	22831
847.565	22915
847.701	23151
847.837	22752
847.972	22656
848.108	22752
848.244	22740
848.379	22421
848.515	22459
848.65	22512
848.786	22538
848.921	22341
849.057	22615
849.192	22599
849.328	22459
849.463	22497
849.598	22462
849.734	22284
849.869	22356
850.004	22265
850.14	22234
850.275	22169
850.41	22128
850.545	22215
850.68	22226
850.815	22238
850.95	22226
851.085	22363
851.22	22386
851.355	22291
851.49	22272
851.625	22192
851.76	22177
851.895	22185
852.03	22131
852.165	22303
852.299	22310
852.434	22398
852.569	22166
852.703	22226
852.838	22291
852.973	22356
853.107	22409
853.242	22185
853.376	22120
853.511	22036
853.645	22135
853.78	22139
853.914	22051
854.048	22158
854.183	22055
854.317	22215
854.451	22253
854.585	22173
854.72	22048
854.854	22166
854.988	22025
855.122	22097
855.256	21865
855.39	22070
855.524	22112
855.658	22074
855.792	22040
855.926	22006
856.06	22131
856.194	22143
856.327	22013
856.461	22055
856.595	21953
856.729	22013
856.862	22150
856.996	22078
857.13	22154
857.263	22173
857.397	22207
857.53	21937
857.664	22166
857.797	22207
857.931	22150
858.064	22017
858.197	22204
858.331	22211
858.464	22036
858.597	22040
858.731	22082
858.864	21975
858.997	21972
859.13	22135
859.263	22036
859.396	22177
859.529	22101
859.662	21907
859.795	22120
859.928	22067
860.061	22158
860.194	22253
860.327	22143
860.46	22021
860.592	22287
860.725	22295
860.858	22139
860.99	22120
861.123	22086
861.256	21949
861.388	22044
861.521	22755
861.653	21968
861.786	21926
861.918	21895
862.05	21983
862.183	21934
862.315	21949
862.447	22055
862.58	21937
862.712	21755
862.844	21804
862.976	21953
863.108	21831
863.24	22360
863.372	21694
863.504	21778
863.636	21766
863.768	21804
863.9	21827
864.032	21625
864.164	21766
864.296	21785
864.428	21846
864.559	21701
864.691	21831
864.823	21762
864.954	21789
865.086	21743
865.217	21606
865.349	21568
865.48	21595
865.612	21667
865.743	21709
865.875	21778
866.006	21572
866.137	21770
866.269	21663
866.4	21606
866.531	21618
866.662	21428
866.793	21591
866.924	21523
867.055	21622
867.186	21618
867.317	21648
867.448	21500
867.579	21534
867.71	21534
867.841	21408
867.972	21576
868.103	21637
868.233	21519
868.364	21545
868.495	21682
868.625	21816
868.756	21861
868.886	21713
869.017	21736
869.147	21812
869.278	22063
869.408	21781
869.539	21770
869.669	21861
869.799	21884
869.929	21964
870.06	21964
870.19	22215
870.32	22105
870.45	22120
870.58	22090
870.71	22394
870.84	22223
870.97	22242
871.1	22360
871.23	22493
871.36	22459
871.489	22249
871.619	22402
871.749	22478
871.879	22398
872.008	22596
872.138	22523
872.267	22303
872.397	22322
872.526	22287
872.656	22287
872.785	22303
872.915	22531
873.044	22424
873.173	22390
873.303	22443
873.432	22546
873.561	22508
873.69	22493
873.819	22569
873.948	22451
874.077	22421
874.206	22329
874.335	22493
874.464	22599
874.593	22618
874.722	22660
874.851	22729
874.979	22778
875.108	22828
875.237	22493
875.365	22626
875.494	22615
875.623	22717
875.751	22653
875.88	22786
876.008	22729
876.136	22900
876.265	23128
876.393	23071
876.521	23181
876.65	23136
876.778	23098
876.906	23025
877.034	22949
877.162	23109
877.29	22896
877.418	23067
877.546	22934
877.674	23060
877.802	22915
877.93	22995
878.058	22946
878.185	22889
878.313	23006
878.441	22976
878.568	22881
878.696	23105
878.824	23006
878.951	23227
879.079	23151
879.206	23364
879.333	23143
879.461	23022
879.588	23143
879.715	23159
879.842	23254
879.97	23029
880.097	22820
880.224	22759
880.351	22786
880.478	22896
880.605	22809
880.732	22980
880.859	23044
880.986	22908
881.112	22824
881.239	22702
881.366	22622
881.493	22527
881.619	22421
881.746	22550
881.872	22462
881.999	22421
882.125	22291
882.252	22557
882.378	22497
882.505	22478
882.631	22226
882.757	22166
882.883	22181
883.01	22090
883.136	21998
883.262	21922
883.388	21918
883.514	22109
883.64	22067
883.766	21972
883.892	21732
884.018	21812
884.143	22101
884.269	22204
884.395	21736
884.52	21812
884.646	21720
884.772	21595
884.897	21606
885.023	21747
885.148	21850
885.274	21857
885.399	21838
885.524	21720
885.65	21728
885.775	21606
885.9	21736
886.025	21816
886.15	21960
886.275	21542
886.4	21572
886.525	21572
886.65	21686
886.775	21793
886.9	21857
887.025	22063
887.149	21660
887.274	21515
887.399	21420
887.523	21401
887.648	21473
887.773	21306
887.897	21606
888.021	21519
888.146	21386
888.27	21564
888.395	21587
888.519	21466
888.643	21439
888.767	21530
888.891	21477
889.015	21321
889.139	21329
889.263	21176
889.387	21367
889.511	21462
889.635	21454
889.759	21275
889.883	21256
890.006	21306
890.13	21268
890.254	21207
890.377	21146
890.501	20937
890.624	20902
890.748	21089
890.871	20975
890.995	20769
891.118	20804
891.241	20769
891.364	20849
891.488	20952
891.611	20880
891.734	20750
891.857	20823
891.98	20899
892.103	20861
892.226	20826
892.349	20895
892.471	20625
892.594	20693
892.717	20838
892.839	20754
892.962	20777
893.085	20781
893.207	20811
893.33	20575
893.452	20716
893.575	20731
893.697	20682
893.819	20952
893.941	20933
894.064	20902
894.186	20632
894.308	20689
894.43	20807
894.552	20807
894.674	20807
894.796	20705
894.918	20689
895.04	20708
895.161	20777
895.283	20727
895.405	20739
895.526	20746
895.648	20731
895.769	20571
895.891	20758
896.012	20857
896.134	20724
896.255	20708
896.376	20754
896.498	20743
896.619	20670
896.74	20697
896.861	20807
896.982	21062
897.103	21188
897.224	20994
897.345	20906
897.466	20967
897.587	20941
897.708	21123
897.828	20941
897.949	20883
898.07	20765
898.19	20849
898.311	21074
898.431	20914
898.552	20864
898.672	20937
898.792	20933
898.913	20952
899.033	20902
899.153	20804
899.273	20689
899.393	20583
899.513	20678
899.633	20743
899.753	20800
899.873	20670
899.993	20651
900.113	20625
900.232	20636
900.352	20606
900.472	20533
900.591	20396
900.711	20442
900.83	20400
900.95	20629
901.069	20537
901.189	20389
901.308	20027
901.427	19913
901.546	19947
901.665	19951
901.784	20069
901.904	19963
902.023	19723
902.141	19586
902.26	19571
902.379	19594
902.498	19559
902.617	19449
902.735	19567
902.854	19419
902.973	19373
903.091	19171
903.21	19244
903.328	19217
903.446	19065
903.565	19088
903.683	18977
903.801	18821
903.919	18795
904.038	18928
904.156	18760
904.274	18878
904.392	18692
904.51	18711
904.627	18673
904.745	18764
904.863	18726
904.981	18650
905.098	18426
905.216	18365
905.334	18532
905.451	18460
905.569	18479
905.686	18517
905.803	18273
905.921	18209
906.038	18296
906.155	18270
906.272	18125
906.389	18136
906.506	18057
906.623	18038
906.74	17855
906.857	17897
906.974	17901
907.091	18019
907.208	18015
907.324	17999
907.441	17946
907.557	17627
907.674	17668
907.79	17554
907.907	17729
908.023	17699
908.139	17649
908.256	17524
908.372	17589
908.488	17455
908.604	17311
908.72	17315
908.836	17353
908.952	17170
909.068	17414
909.184	17417
909.3	17421
909.415	17391
909.531	17356
909.647	17113
909.762	16999
909.878	17086
909.993	17045
910.108	17045
910.224	16934
910.339	16995
910.454	16915
910.57	16980
910.685	16862
910.8	17094
910.915	16949
911.03	16858
911.145	16694
911.259	16721
911.374	16596
911.489	16546
911.604	16516
911.718	16344
911.833	16440
911.947	16284
912.062	16265
912.176	16489
912.291	16360
912.405	16405
912.519	16592
912.633	16675
912.748	16504
912.862	16409
912.976	16272
913.09	16116
913.204	16211
913.318	16188
913.431	16276
913.545	16306
913.659	16223
913.772	16074
913.886	16044
914	15987
914.113	16135
914.226	16150
914.34	16067
914.453	15972
914.566	16051
914.68	15903
914.793	15762
914.906	15614
915.019	15542
915.132	15576
915.245	15542
915.358	15644
915.47	15561
915.583	15663
915.696	15549
915.809	15648
915.921	15724
916.034	15439
916.146	15435
916.259	15485
916.371	15557
916.483	15458
916.595	15386
916.708	15420
916.82	15370
916.932	15382
917.044	15317
917.156	15306
917.268	15310
917.38	15279
917.491	15313
917.603	15275
917.715	15283
917.826	15291
917.938	15195
918.049	14937
918.161	15245
918.272	15249
918.384	15275
918.495	15146
918.606	15070
918.717	14941
918.828	15020
918.939	14914
919.05	14902
919.161	14952
919.272	14735
919.383	14864
919.494	14952
919.604	15108
919.715	14963
919.826	14762
919.936	14902
920.047	15032
920.157	14842
920.267	15020
920.378	14864
920.488	14918
920.598	15032
920.708	15127
920.818	15112
920.928	15097
921.038	15226
921.148	15150
921.258	14876
921.368	14720
921.477	14583
921.587	14610
921.697	14423
921.806	14621
921.916	14419
922.025	14317
922.134	14278
922.244	14305
922.353	14393
922.462	14145
922.571	14145
922.68	13978
922.789	13917
922.898	13970
923.007	13879
923.116	14035
923.224	13909
923.333	13898
923.442	13811
923.55	13731
923.659	13742
923.767	13734
923.876	13731
923.984	13807
924.092	13643
924.201	13696
924.309	13674
924.417	13586
924.525	13601
924.633	13609
924.741	14560
924.849	13464
924.956	13556
925.064	13445
925.172	13217
925.279	13369
925.387	13407
925.494	13301
925.602	13487
925.709	13297
925.816	13206
925.924	13259
926.031	13407
926.138	13362
926.245	13304
926.352	13228
926.459	13365
926.566	13384
926.673	13183
926.779	13103
926.886	13137
926.993	12939
927.099	12878
927.206	12928
927.312	12871
927.419	12993
927.525	12863
927.631	12932
927.737	12878
927.843	12802
927.95	12681
928.056	12707
928.162	12753
928.267	12745
928.373	13301
928.479	12688
928.585	12608
928.69	12681
928.796	12715
928.901	12578
929.007	12483
929.112	12585
929.218	12536
929.323	12555
929.428	12452
929.533	12566
929.638	12433
929.743	12422
929.848	12426
929.953	12426
930.058	12338
930.163	12140
930.267	12163
930.372	12239
930.477	12053
930.581	12281
930.685	12178
930.79	12026
930.894	12064
930.998	12072
931.103	12140
931.207	11805
931.311	11710
931.415	11535
931.519	11425
931.623	11353
