Data from test_V78500241_11.txt Node
Date: Fri Mar 25 15:41:52 CST 2022
User: usil
Spectrometer: V785-0024
Trigger mode: 0
Integration Time (sec): 4.000000E-1
Scans to average: 1
Nonlinearity correction enabled: false
Boxcar width: 0
Storing dark spectrum: false
XAxis mode: Wavelengths
Number of Pixels in Spectrum: 1024
>>>>>Begin Spectral Data<<<<<
801.071	27043
801.214	26994
801.356	26674
801.499	26705
801.641	26545
801.783	26533
801.926	26511
802.068	26514
802.211	26355
802.353	26355
802.496	26180
802.638	26153
802.78	25993
802.923	25936
803.065	25887
803.208	25898
803.35	26054
803.492	26096
803.635	26088
803.777	25898
803.919	26077
804.061	26370
804.204	26103
804.346	25947
804.488	25818
804.63	25955
804.773	25674
804.915	25883
805.057	26016
805.199	25818
805.341	26020
805.483	26031
805.626	26073
805.768	25951
805.91	26054
806.052	25997
806.194	25936
806.336	26199
806.478	26020
806.62	26088
806.762	25986
806.904	26168
807.046	26465
807.188	26377
807.33	26290
807.472	26237
807.614	26214
807.756	26077
807.898	26035
808.04	26001
808.182	25864
808.324	26157
808.465	26100
808.607	26248
808.749	26507
808.891	26503
809.033	26476
809.174	26294
809.316	26366
809.458	26461
809.6	26298
809.741	26560
809.883	26461
810.025	26606
810.166	26617
810.308	26750
810.45	26571
810.591	26442
810.733	26267
810.875	26309
811.016	26290
811.158	26096
811.299	26419
811.441	26446
811.582	26393
811.724	26240
811.865	26164
812.007	26153
812.148	26172
812.29	26183
812.431	26427
812.573	26438
812.714	26644
812.855	26777
812.997	26883
813.138	27051
813.279	26906
813.421	26796
813.562	26667
813.703	26590
813.845	26324
813.986	26062
814.127	25887
814.268	25772
814.41	25776
814.551	25719
814.692	25822
814.833	25772
814.974	25757
815.115	25750
815.256	25658
815.397	25647
815.539	25597
815.68	25320
815.821	25365
815.962	25445
816.103	25499
816.244	25293
816.385	25308
816.526	25263
816.666	24954
816.807	24890
816.948	24977
817.089	25209
817.23	24875
817.371	24837
817.512	24905
817.653	24821
817.793	24787
817.934	24928
818.075	24833
818.216	24817
818.356	24722
818.497	24525
818.638	24429
818.778	24505
818.919	24601
819.06	24593
819.2	24711
819.341	24753
819.481	24692
819.622	24840
819.762	25110
819.903	25012
820.043	24825
820.184	24798
820.324	24764
820.465	24772
820.605	24745
820.746	24787
820.886	24604
821.026	24738
821.167	24806
821.307	24768
821.447	24646
821.588	24566
821.728	24414
821.868	24319
822.008	24140
822.149	24178
822.289	24117
822.429	23874
822.569	23809
822.709	23828
822.849	23657
822.99	23661
823.13	23486
823.27	23490
823.41	23337
823.55	23258
823.69	23292
823.83	23444
823.97	23170
824.11	22957
824.25	22984
824.389	23121
824.529	23231
824.669	23128
824.809	23113
824.949	23117
825.089	23155
825.228	23189
825.368	22915
825.508	23060
825.648	22892
825.787	22889
825.927	22999
826.067	22809
826.206	22847
826.346	22930
826.485	22927
826.625	22889
826.765	22938
826.904	22911
827.044	22637
827.183	22615
827.323	22394
827.462	22554
827.601	22489
827.741	22561
827.88	22497
828.02	22333
828.159	22402
828.298	22504
828.437	22634
828.577	22367
828.716	22653
828.855	22341
828.994	22207
829.134	22154
829.273	22329
829.412	22166
829.551	22082
829.69	22101
829.829	22147
829.968	22150
830.107	22158
830.246	22306
830.385	22101
830.524	22036
830.663	21956
830.802	21774
830.941	21751
831.08	21660
831.219	21816
831.357	21785
831.496	21907
831.635	21774
831.774	21606
831.913	21629
832.051	21481
832.19	21473
832.329	21466
832.467	21351
832.606	21294
832.744	21230
832.883	21306
833.022	21382
833.16	21268
833.299	21431
833.437	21294
833.576	21306
833.714	21435
833.852	21466
833.991	21370
834.129	21359
834.267	21424
834.406	21378
834.544	21370
834.682	21256
834.821	21344
834.959	21447
835.097	21260
835.235	21408
835.373	21313
835.511	21180
835.65	21222
835.788	21127
835.926	21001
836.064	20921
836.202	21093
836.34	21214
836.478	21310
836.615	21142
836.753	21249
836.891	21241
837.029	21325
837.167	21154
837.305	21161
837.443	21055
837.58	20998
837.718	21108
837.856	21051
837.993	21089
838.131	21077
838.269	20937
838.406	20960
838.544	20838
838.681	20629
838.819	20731
838.956	20457
839.094	20442
839.231	20507
839.369	20697
839.506	20788
839.643	20781
839.781	20415
839.918	20408
840.055	20469
840.193	20381
840.33	20358
840.467	20469
840.604	20415
840.742	20689
840.879	20267
841.016	20263
841.153	20195
841.29	20518
841.427	20233
841.564	20415
841.701	20366
841.838	20286
841.975	20332
842.112	20286
842.249	20267
842.385	20046
842.522	20412
842.659	20218
842.796	20084
842.933	20073
843.069	19978
843.206	19970
843.343	20065
843.479	20043
843.616	20043
843.752	19887
843.889	19712
844.025	19970
844.162	19708
844.298	19932
844.435	19750
844.571	19666
844.708	19833
844.844	19959
844.98	19944
845.117	19932
845.253	19757
845.389	19582
845.525	19761
845.661	19628
845.798	19548
845.934	19502
846.07	19518
846.206	19715
846.342	19586
846.478	19453
846.614	19384
846.75	19236
846.886	19297
847.022	19331
847.158	19331
847.294	19251
847.429	19259
847.565	19129
847.701	19571
847.837	18951
847.972	18920
848.108	19004
848.244	19046
848.379	18875
848.515	18844
848.65	18764
848.786	18859
848.921	18757
849.057	18924
849.192	18848
849.328	18867
849.463	18825
849.598	18726
849.734	18703
849.869	18502
850.004	18623
850.14	18555
850.275	18521
850.41	18486
850.545	18502
850.68	18593
850.815	18498
850.95	18471
851.085	18692
851.22	18513
851.355	18483
851.49	18452
851.625	18475
851.76	18433
851.895	18319
852.03	18342
852.165	18426
852.299	18467
852.434	18601
852.569	18566
852.703	18475
852.838	18551
852.973	18597
853.107	18566
853.242	18376
853.376	18342
853.511	18216
853.645	18216
853.78	18502
853.914	18296
854.048	18277
854.183	18281
854.317	18254
854.451	18551
854.585	18311
854.72	18254
854.854	18357
854.988	18171
855.122	18388
855.256	18197
855.39	18304
855.524	18330
855.658	18334
855.792	18289
855.926	18315
856.06	18418
856.194	18426
856.327	18285
856.461	18159
856.595	18289
856.729	18323
856.862	18437
856.996	18300
857.13	18388
857.263	18403
857.397	18407
857.53	18353
857.664	18323
857.797	18300
857.931	18414
858.064	18346
858.197	18369
858.331	18266
858.464	18140
858.597	18243
858.731	18159
858.864	18163
858.997	18194
859.13	18258
859.263	18399
859.396	18376
859.529	18186
859.662	18209
859.795	18216
859.928	18338
860.061	18426
860.194	18304
860.327	18338
860.46	18323
860.592	18391
860.725	18407
860.858	18452
860.99	18228
861.123	18163
861.256	18270
861.388	18205
861.521	18806
861.653	18197
861.786	18072
861.918	18125
862.05	18251
862.183	18281
862.315	18410
862.447	18395
862.58	18228
862.712	18209
862.844	18064
862.976	18030
863.108	18098
863.24	18471
863.372	17901
863.504	18026
863.636	17999
863.768	18121
863.9	17863
864.032	17904
864.164	17961
864.296	17996
864.428	18091
864.559	18026
864.691	18038
864.823	18038
864.954	17988
865.086	17954
865.217	18007
865.349	17893
865.48	17893
865.612	18019
865.743	17977
865.875	17870
866.006	17878
866.137	17920
866.269	17961
866.4	17904
866.531	17836
866.662	17840
866.793	17939
866.924	17942
867.055	17901
867.186	17950
867.317	17935
867.448	17794
867.579	17874
867.71	17805
867.841	17741
867.972	17878
868.103	17817
868.233	17859
868.364	18003
868.495	18011
868.625	18110
868.756	18121
868.886	17969
869.017	18098
869.147	18258
869.278	18136
869.408	18110
869.539	18171
869.669	18213
869.799	18178
869.929	18350
870.06	18190
870.19	18407
870.32	18456
870.45	18437
870.58	18559
870.71	18623
870.84	18574
870.97	18494
871.1	18448
871.23	18681
871.36	18665
871.489	18623
871.619	18650
871.749	18745
871.879	18760
872.008	18829
872.138	18738
872.267	18738
872.397	18650
872.526	18608
872.656	18388
872.785	18528
872.915	18711
873.044	18810
873.173	18726
873.303	18741
873.432	18749
873.561	18875
873.69	18783
873.819	18688
873.948	18757
874.077	18669
874.206	18661
874.335	18783
874.464	18897
874.593	18989
874.722	18913
874.851	19114
874.979	19088
875.108	19023
875.237	18977
875.365	19023
875.494	19103
875.623	19148
875.751	19107
875.88	19050
876.008	19179
876.136	19247
876.265	19529
876.393	19468
876.521	19552
876.65	19495
876.778	19419
876.906	19396
877.034	19373
877.162	19510
877.29	19285
877.418	19510
877.546	19377
877.674	19464
877.802	19415
877.93	19438
878.058	19381
878.185	19331
878.313	19441
878.441	19400
878.568	19278
878.696	19266
878.824	19476
878.951	19449
879.079	19731
879.206	19685
879.333	19487
879.461	19449
879.588	19499
879.715	19518
879.842	19685
879.97	19518
880.097	19388
880.224	19148
880.351	19312
880.478	19301
880.605	19244
880.732	19175
880.859	19476
880.986	19293
881.112	19339
881.239	19217
881.366	18981
881.493	18939
881.619	18947
881.746	18924
881.872	18916
881.999	18779
882.125	18859
882.252	18996
882.378	18901
882.505	19012
882.631	18871
882.757	18570
882.883	18814
883.01	18703
883.136	18604
883.262	18593
883.388	18608
883.514	18700
883.64	18673
883.766	18616
883.892	18559
884.018	18445
884.143	18692
884.269	18783
884.395	18426
884.52	18399
884.646	18315
884.772	18330
884.897	18216
885.023	18342
885.148	18433
885.274	18566
885.399	18448
885.524	18235
885.65	18372
885.775	18353
885.9	18224
886.025	18426
886.15	18391
886.275	18273
886.4	18155
886.525	18277
886.65	18197
886.775	18171
886.9	18357
887.025	18536
887.149	18144
887.274	18121
887.399	18106
887.523	18072
887.648	18034
887.773	17950
887.897	18098
888.021	18155
888.146	18072
888.27	18022
888.395	18216
888.519	18060
888.643	18152
888.767	18152
888.891	17927
889.015	17897
889.139	17901
889.263	17840
889.387	18003
889.511	18083
889.635	18015
889.759	17874
889.883	17946
890.006	17817
890.13	18019
890.254	17828
890.377	17790
890.501	17684
890.624	17600
890.748	17756
890.871	17577
890.995	17421
891.118	17490
891.241	17535
891.364	17482
891.488	17577
891.611	17478
891.734	17471
891.857	17592
891.98	17528
892.103	17532
892.226	17585
892.349	17440
892.471	17315
892.594	17471
892.717	17539
892.839	17334
892.962	17455
893.085	17573
893.207	17471
893.33	17337
893.452	17326
893.575	17528
893.697	17524
893.819	17661
893.941	17642
894.064	17493
894.186	17429
894.308	17425
894.43	17493
894.552	17627
894.674	17604
894.796	17326
894.918	17402
895.04	17516
895.161	17547
895.283	17497
895.405	17497
895.526	17596
895.648	17421
895.769	17486
895.891	17562
896.012	17570
896.134	17573
896.255	17653
896.376	17528
896.498	17604
896.619	17657
896.74	17680
896.861	17638
896.982	17920
897.103	18060
897.224	17946
897.345	17843
897.466	17741
897.587	17863
897.708	17988
897.828	17965
897.949	17813
898.07	17722
898.19	17790
898.311	17942
898.431	17786
898.552	17897
898.672	17927
898.792	17843
898.913	17817
899.033	17695
899.153	17619
899.273	17463
899.393	17501
899.513	17524
899.633	17566
899.753	17611
899.873	17505
899.993	17619
900.113	17551
900.232	17619
900.352	17501
900.472	17436
900.591	17395
900.711	17452
900.83	17326
900.95	17436
901.069	17482
901.189	17246
901.308	17102
901.427	16999
901.546	17022
901.665	17067
901.784	17018
901.904	16877
902.023	16801
902.141	16694
902.26	16455
902.379	16622
902.498	16535
902.617	16462
902.735	16679
902.854	16653
902.973	16367
903.091	16253
903.21	16268
903.328	16204
903.446	16234
903.565	16044
903.683	16139
903.801	15930
903.919	16139
904.038	16105
904.156	15861
904.274	15892
904.392	15838
904.51	15857
904.627	15865
904.745	15831
904.863	15949
904.981	15660
905.098	15500
905.216	15515
905.334	15469
905.451	15485
905.569	15443
905.686	15500
905.803	15576
905.921	15355
906.038	15473
906.155	15306
906.272	15142
906.389	15150
906.506	15195
906.623	15138
906.74	15108
906.857	14948
906.974	14937
907.091	15146
907.208	15142
907.324	15100
907.441	15001
907.557	14811
907.674	14773
907.79	14625
907.907	14720
908.023	14788
908.139	14727
908.256	14583
908.372	14511
908.488	14678
908.604	14377
908.72	14393
908.836	14423
908.952	14431
909.068	14446
909.184	14579
909.3	14385
909.415	14454
909.531	14518
909.647	14168
909.762	14229
909.878	14100
909.993	14157
910.108	14134
910.224	14115
910.339	14240
910.454	13947
910.57	13894
910.685	13955
910.8	14153
910.915	14168
911.03	14027
911.145	13837
911.259	13811
911.374	13803
911.489	13708
911.604	13677
911.718	13590
911.833	13544
911.947	13556
912.062	13362
912.176	13571
912.291	13525
912.405	13571
912.519	13731
912.633	13746
912.748	13575
912.862	13559
912.976	13343
913.09	13327
913.204	13343
913.318	13388
913.431	13464
913.545	13415
913.659	13506
913.772	13335
913.886	13247
914	13274
914.113	13228
914.226	13362
914.34	13339
914.453	13141
914.566	13407
914.68	13194
914.793	13118
914.906	12977
915.019	12852
915.132	12848
915.245	12848
915.358	12878
915.47	12943
915.583	13008
915.696	12966
915.809	13088
915.921	13118
916.034	12916
916.146	12894
916.259	12802
916.371	12909
916.483	12852
916.595	12779
916.708	12795
916.82	12719
916.932	12787
917.044	12760
917.156	12681
917.268	12616
917.38	12662
917.491	12563
917.603	12616
917.715	12673
917.826	12726
917.938	12528
918.049	12460
918.161	12612
918.272	12730
918.384	12730
918.495	12555
918.606	12380
918.717	12448
918.828	12418
918.939	12506
919.05	12190
919.161	12384
919.272	12216
919.383	12194
919.494	12426
919.604	12654
919.715	12346
919.826	12308
919.936	12380
920.047	12384
920.157	12422
920.267	12616
920.378	12353
920.488	12330
920.598	12506
920.708	12623
920.818	12585
920.928	12563
921.038	12764
921.148	12688
921.258	12361
921.368	12308
921.477	12148
921.587	12076
921.697	12041
921.806	12178
921.916	12019
922.025	11904
922.134	11885
922.244	11710
922.353	11977
922.462	11695
922.571	11714
922.68	11554
922.789	11425
922.898	11573
923.007	11463
923.116	11516
923.224	11429
923.333	11410
923.442	11391
923.55	11353
923.659	11368
923.767	11353
923.876	11349
923.984	11356
924.092	11299
924.201	11277
924.309	11231
924.417	11353
924.525	11170
924.633	11269
924.741	12136
924.849	11010
924.956	11212
925.064	11052
925.172	10980
925.279	11079
925.387	11048
925.494	11056
925.602	11124
925.709	11109
925.816	10968
925.924	11075
926.031	11098
926.138	11052
926.245	11048
926.352	10972
926.459	10991
926.566	11159
926.673	10972
926.779	10896
926.886	10911
926.993	10740
927.099	10672
927.206	10622
927.312	10607
927.419	10694
927.525	10683
927.631	10702
927.737	10588
927.843	10561
927.95	10405
928.056	10618
928.162	10558
928.267	10569
928.373	11197
928.479	10637
928.585	10375
928.69	10512
928.796	10538
928.901	10409
929.007	10204
929.112	10462
929.218	10398
929.323	10367
929.428	10303
929.533	10451
929.638	10234
929.743	10375
929.848	10215
929.953	10253
930.058	10207
930.163	9994
930.267	10040
930.372	10139
930.477	10029
930.581	10185
930.685	10086
930.79	9934
930.894	9945
930.998	9956
931.103	9994
931.207	9610
931.311	9622
931.415	9576
931.519	9420
931.623	9313
