Data from test_V78500241_3053.txt Node
Date: Fri Mar 25 16:02:57 CST 2022
User: usil
Spectrometer: V785-0024
Trigger mode: 0
Integration Time (sec): 4.000000E-1
Scans to average: 1
Nonlinearity correction enabled: false
Boxcar width: 0
Storing dark spectrum: false
XAxis mode: Wavelengths
Number of Pixels in Spectrum: 1024
>>>>>Begin Spectral Data<<<<<
801.071	28059
801.214	28013
801.356	27766
801.499	27804
801.641	27755
801.783	27629
801.926	27663
802.068	27793
802.211	27553
802.353	27625
802.496	27397
802.638	27458
802.78	27393
802.923	27359
803.065	27294
803.208	27313
803.35	27359
803.492	27523
803.635	27557
803.777	27367
803.919	27587
804.061	27751
804.204	27656
804.346	27564
804.488	27519
804.63	27477
804.773	27572
804.915	27705
805.057	27724
805.199	27580
805.341	27568
805.483	27717
805.626	27892
805.768	27492
805.91	27701
806.052	27835
806.194	27629
806.336	27903
806.478	27804
806.62	27709
806.762	27876
806.904	28002
807.046	28173
807.188	28177
807.33	28166
807.472	28261
807.614	28040
807.756	28169
807.898	28006
808.04	27987
808.182	27895
808.324	28025
808.465	27991
808.607	28090
808.749	28219
808.891	28455
809.033	28634
809.174	28474
809.316	28390
809.458	28261
809.6	28474
809.741	28550
809.883	28474
810.025	28694
810.166	28588
810.308	28721
810.45	28660
810.591	28592
810.733	28390
810.875	28398
811.016	28375
811.158	28295
811.299	28348
811.441	28717
811.582	28580
811.724	28436
811.865	28375
812.007	28329
812.148	28432
812.29	28447
812.431	28512
812.573	28748
812.714	28771
812.855	28923
812.997	29090
813.138	28995
813.279	29041
813.421	28820
813.562	28691
813.703	28752
813.845	28523
813.986	28261
814.127	28097
814.268	28055
814.41	28173
814.551	28063
814.692	28036
814.833	27983
814.974	28025
815.115	28067
815.256	28063
815.397	27816
815.539	28021
815.68	27941
815.821	27591
815.962	27816
816.103	27732
816.244	27865
816.385	27648
816.526	27663
816.666	27519
816.807	27443
816.948	27469
817.089	27473
817.23	27367
817.371	27230
817.512	27283
817.653	27340
817.793	27260
817.934	27310
818.075	27477
818.216	27291
818.356	27272
818.497	27313
818.638	27112
818.778	27036
818.919	27169
819.06	27131
819.2	27226
819.341	27389
819.481	27500
819.622	27526
819.762	27823
819.903	27641
820.043	27564
820.184	27515
820.324	27370
820.465	27515
820.605	27420
820.746	27530
820.886	27336
821.026	27401
821.167	27450
821.307	27454
821.447	27389
821.588	27287
821.728	27142
821.868	27047
822.008	26804
822.149	26998
822.289	26777
822.429	26602
822.569	26621
822.709	26575
822.849	26351
822.99	26377
823.13	26355
823.27	26282
823.41	26214
823.55	26111
823.69	26168
823.83	26282
823.97	26084
824.11	26016
824.25	25913
824.389	25944
824.529	26084
824.669	25966
824.809	26092
824.949	26202
825.089	26065
825.228	25997
825.368	25860
825.508	25814
825.648	25772
825.787	25909
825.927	25890
826.067	25776
826.206	25864
826.346	25879
826.485	25803
826.625	25830
826.765	25909
826.904	25864
827.044	25563
827.183	25639
827.323	25445
827.462	25582
827.601	25643
827.741	25487
827.88	25567
828.02	25540
828.159	25662
828.298	25715
828.437	25533
828.577	25457
828.716	25609
828.855	25460
828.994	25206
829.134	25259
829.273	25343
829.412	25206
829.551	25266
829.69	25187
829.829	25316
829.968	25373
830.107	25392
830.246	25244
830.385	25213
830.524	25171
830.663	24928
830.802	24981
830.941	24817
831.08	24962
831.219	24905
831.357	25118
831.496	25019
831.635	24863
831.774	24779
831.913	24787
832.051	24684
832.19	24559
832.329	24593
832.467	24452
832.606	24448
832.744	24429
832.883	24426
833.022	24528
833.16	24369
833.299	24509
833.437	24509
833.576	24639
833.714	24555
833.852	24589
833.991	24627
834.129	24635
834.267	24654
834.406	24544
834.544	24654
834.682	24555
834.821	24528
834.959	24798
835.097	24517
835.235	24703
835.373	24570
835.511	24544
835.65	24429
835.788	24433
835.926	24254
836.064	24228
836.202	24190
836.34	24429
836.478	24517
836.615	24456
836.753	24311
836.891	24391
837.029	24372
837.167	24296
837.305	24311
837.443	24247
837.58	24247
837.718	24399
837.856	24292
837.993	24239
838.131	24224
838.269	24201
838.406	24216
838.544	24125
838.681	23859
838.819	23790
838.956	23767
839.094	23623
839.231	23859
839.369	24018
839.506	24015
839.643	23961
839.781	23779
839.918	23783
840.055	23783
840.193	23672
840.33	23596
840.467	23528
840.604	23802
840.742	23855
840.879	23531
841.016	23604
841.153	23585
841.29	23699
841.427	23630
841.564	23630
841.701	23646
841.838	23653
841.975	23406
842.112	23509
842.249	23387
842.385	23387
842.522	23638
842.659	23433
842.796	23455
842.933	23524
843.069	23376
843.206	23387
843.343	23524
843.479	23368
843.616	23360
843.752	23273
843.889	23227
844.025	23261
844.162	23109
844.298	23235
844.435	23105
844.571	23151
844.708	23208
844.844	23337
844.98	23334
845.117	23258
845.253	23041
845.389	23079
845.525	23029
845.661	22896
845.798	22816
845.934	23029
846.07	22847
846.206	22942
846.342	23064
846.478	22927
846.614	22710
846.75	22649
846.886	22645
847.022	22687
847.158	22664
847.294	22637
847.429	22615
847.565	22637
847.701	22961
847.837	22413
847.972	22314
848.108	22413
848.244	22447
848.379	22181
848.515	22101
848.65	22196
848.786	22295
848.921	22325
849.057	22371
849.192	22257
849.328	22318
849.463	22204
849.598	22257
849.734	22078
849.869	22032
850.004	21975
850.14	22067
850.275	21949
850.41	21930
850.545	22040
850.68	21911
850.815	21991
850.95	22048
851.085	22143
851.22	22128
851.355	21922
851.49	21972
851.625	22013
851.76	21987
851.895	21892
852.03	21895
852.165	22002
852.299	22082
852.434	22139
852.569	21922
852.703	22017
852.838	22112
852.973	22078
853.107	22059
853.242	21991
853.376	21770
853.511	21751
853.645	21690
853.78	21941
853.914	21762
854.048	21762
854.183	21701
854.317	21747
854.451	21987
854.585	21838
854.72	21755
854.854	21949
854.988	21743
855.122	21892
855.256	21614
855.39	21789
855.524	21915
855.658	21880
855.792	21968
855.926	21808
856.06	21892
856.194	21930
856.327	21736
856.461	21762
856.595	21648
856.729	21755
856.862	21937
856.996	21850
857.13	21979
857.263	21915
857.397	22006
857.53	21842
857.664	21781
857.797	21778
857.931	21846
858.064	21804
858.197	21915
858.331	21743
858.464	21728
858.597	21614
858.731	21747
858.864	21766
858.997	21770
859.13	21781
859.263	21766
859.396	21831
859.529	21823
859.662	21857
859.795	21701
859.928	21793
860.061	21911
860.194	21945
860.327	21880
860.46	21808
860.592	21895
860.725	22036
860.858	22029
860.99	21797
861.123	21641
861.256	21774
861.388	21838
861.521	22550
861.653	21709
861.786	21660
861.918	21572
862.05	21816
862.183	21667
862.315	21785
862.447	21842
862.58	21747
862.712	21534
862.844	21576
862.976	21603
863.108	21648
863.24	22029
863.372	21538
863.504	21591
863.636	21481
863.768	21485
863.9	21542
864.032	21481
864.164	21469
864.296	21542
864.428	21553
864.559	21504
864.691	21637
864.823	21481
864.954	21420
865.086	21473
865.217	21515
865.349	21332
865.48	21469
865.612	21359
865.743	21530
865.875	21504
866.006	21435
866.137	21313
866.269	21443
866.4	21447
866.531	21370
866.662	21431
866.793	21344
866.924	21389
867.055	21378
867.186	21241
867.317	21378
867.448	21317
867.579	21222
867.71	21272
867.841	21294
867.972	21416
868.103	21382
868.233	21279
868.364	21511
868.495	21561
868.625	21614
868.756	21698
868.886	21485
869.017	21671
869.147	21686
869.278	21675
869.408	21625
869.539	21557
869.669	21625
869.799	21644
869.929	21675
870.06	21656
870.19	21972
870.32	21895
870.45	21876
870.58	22002
870.71	22032
870.84	22097
870.97	22025
871.1	21880
871.23	22173
871.36	22181
871.489	22032
871.619	22188
871.749	22207
871.879	22219
872.008	22341
872.138	22303
872.267	22158
872.397	22059
872.526	22166
872.656	22090
872.785	21975
872.915	22314
873.044	22230
873.173	22306
873.303	22215
873.432	22329
873.561	22284
873.69	22234
873.819	22135
873.948	22234
874.077	22280
874.206	22177
874.335	22188
874.464	22272
874.593	22375
874.722	22306
874.851	22436
874.979	22550
875.108	22512
875.237	22284
875.365	22459
875.494	22417
875.623	22485
875.751	22379
875.88	22478
876.008	22485
876.136	22580
876.265	22847
876.393	23014
876.521	22843
876.65	22793
876.778	22774
876.906	22809
877.034	22812
877.162	22889
877.29	22702
877.418	22782
877.546	22767
877.674	22843
877.802	22733
877.93	22733
878.058	22721
878.185	22679
878.313	22683
878.441	22740
878.568	22634
878.696	22767
878.824	22843
878.951	22828
879.079	22923
879.206	23090
879.333	22927
879.461	22729
879.588	22927
879.715	22984
879.842	23044
879.97	22801
880.097	22596
880.224	22565
880.351	22721
880.478	22436
880.605	22592
880.732	22599
880.859	22778
880.986	22637
881.112	22466
881.239	22523
881.366	22436
881.493	22211
881.619	22215
881.746	22226
881.872	22204
881.999	22162
882.125	22109
882.252	22181
882.378	22192
882.505	22204
882.631	22086
882.757	21838
882.883	21941
883.01	21789
883.136	21949
883.262	21625
883.388	21671
883.514	21819
883.64	21968
883.766	21759
883.892	21637
884.018	21496
884.143	21857
884.269	21728
884.395	21587
884.52	21564
884.646	21492
884.772	21386
884.897	21363
885.023	21534
885.148	21534
885.274	21561
885.399	21591
885.524	21557
885.65	21603
885.775	21545
885.9	21466
886.025	21641
886.15	21526
886.275	21454
886.4	21340
886.525	21492
886.65	21473
886.775	21477
886.9	21454
887.025	21713
887.149	21443
887.274	21188
887.399	21401
887.523	21363
887.648	21142
887.773	21230
887.897	21222
888.021	21287
888.146	21100
888.27	21329
888.395	21359
888.519	21329
888.643	21218
888.767	21302
888.891	21283
889.015	21051
889.139	21032
889.263	21074
889.387	21112
889.511	21195
889.635	21203
889.759	21116
889.883	20952
890.006	21077
890.13	21199
890.254	20986
890.377	21085
890.501	20804
890.624	20792
890.748	20899
890.871	20724
890.995	20602
891.118	20556
891.241	20590
891.364	20621
891.488	20773
891.611	20743
891.734	20621
891.857	20640
891.98	20545
892.103	20587
892.226	20594
892.349	20648
892.471	20374
892.594	20537
892.717	20590
892.839	20450
892.962	20530
893.085	20560
893.207	20545
893.33	20461
893.452	20434
893.575	20530
893.697	20537
893.819	20564
893.941	20670
894.064	20579
894.186	20374
894.308	20461
894.43	20609
894.552	20697
894.674	20579
894.796	20351
894.918	20503
895.04	20499
895.161	20556
895.283	20396
895.405	20248
895.526	20503
895.648	20526
895.769	20636
895.891	20537
896.012	20575
896.134	20568
896.255	20438
896.376	20412
896.498	20629
896.619	20598
896.74	20514
896.861	20640
896.982	20804
897.103	20891
897.224	20811
897.345	20743
897.466	20674
897.587	20735
897.708	20807
897.828	20796
897.949	20678
898.07	20476
898.19	20655
898.311	20739
898.431	20674
898.552	20663
898.672	20842
898.792	20887
898.913	20819
899.033	20568
899.153	20537
899.273	20473
899.393	20389
899.513	20613
899.633	20374
899.753	20571
899.873	20431
899.993	20492
900.113	20389
900.232	20412
900.352	20412
900.472	20263
900.591	20214
900.711	20309
900.83	20191
900.95	20305
901.069	20324
901.189	20195
901.308	19947
901.427	19849
901.546	19833
901.665	19894
901.784	19746
901.904	19651
902.023	19594
902.141	19411
902.26	19419
902.379	19415
902.498	19190
902.617	19308
902.735	19377
902.854	19244
902.973	19232
903.091	19053
903.21	18901
903.328	19004
903.446	18882
903.565	18844
903.683	18745
903.801	18833
903.919	18760
904.038	18779
904.156	18578
904.274	18726
904.392	18593
904.51	18665
904.627	18574
904.745	18642
904.863	18589
904.981	18308
905.098	18174
905.216	18277
905.334	18300
905.451	18323
905.569	18178
905.686	18369
905.803	18205
905.921	18007
906.038	18087
906.155	17939
906.272	17977
906.389	17999
906.506	17748
906.623	17668
906.74	17714
906.857	17570
906.974	17551
907.091	17684
907.208	17817
907.324	17687
907.441	17726
907.557	17539
907.674	17395
907.79	17273
907.907	17452
908.023	17440
908.139	17444
908.256	17345
908.372	17303
908.488	17299
908.604	17151
908.72	17124
908.836	17181
908.952	17109
909.068	17086
909.184	17311
909.3	17292
909.415	17185
909.531	17208
909.647	17022
909.762	16934
909.878	16782
909.993	16919
910.108	16904
910.224	16869
910.339	16862
910.454	16778
910.57	16656
910.685	16660
910.8	16934
910.915	16915
911.03	16698
911.145	16565
911.259	16531
911.374	16485
911.489	16341
911.604	16367
911.718	16211
911.833	16162
911.947	16048
912.062	16029
912.176	16188
912.291	16124
912.405	16246
912.519	16481
912.633	16459
912.748	16261
912.862	16192
912.976	16063
913.09	15991
913.204	16093
913.318	15983
913.431	16143
913.545	16105
913.659	16223
913.772	15972
913.886	15861
914	15880
914.113	15865
914.226	15846
914.34	15854
914.453	15717
914.566	15956
914.68	15755
914.793	15652
914.906	15462
915.019	15454
915.132	15355
915.245	15401
915.358	15477
915.47	15523
915.583	15370
915.696	15401
915.809	15405
915.921	15473
916.034	15435
916.146	15405
916.259	15294
916.371	15405
916.483	15313
916.595	15233
916.708	15310
916.82	15214
916.932	15218
917.044	15161
917.156	15203
917.268	15093
917.38	15108
917.491	15020
917.603	15097
917.715	15093
917.826	15165
917.938	14975
918.049	14948
918.161	15039
918.272	15252
918.384	15150
918.495	15001
918.606	14872
918.717	14819
918.828	14849
918.939	14830
919.05	14697
919.161	14701
919.272	14610
919.383	14667
919.494	14853
919.604	14986
919.715	14785
919.826	14678
919.936	14800
920.047	14750
920.157	14807
920.267	15001
920.378	14754
920.488	14743
920.598	14868
920.708	15036
920.818	14830
920.928	14868
921.038	15058
921.148	15123
921.258	14697
921.368	14606
921.477	14590
921.587	14613
921.697	14385
921.806	14587
921.916	14324
922.025	14252
922.134	14149
922.244	14115
922.353	14161
922.462	14050
922.571	13906
922.68	13856
922.789	13830
922.898	13753
923.007	13799
923.116	13868
923.224	13875
923.333	13742
923.442	13639
923.55	13586
923.659	13685
923.767	13670
923.876	13685
923.984	13594
924.092	13620
924.201	13449
924.309	13559
924.417	13559
924.525	13400
924.633	13476
924.741	14183
924.849	13247
924.956	13407
925.064	13228
925.172	13331
925.279	13088
925.387	13190
925.494	13247
925.602	13377
925.709	13156
925.816	13019
925.924	13141
926.031	13206
926.138	13023
926.245	13217
926.352	13027
926.459	13114
926.566	13187
926.673	13027
926.779	12947
926.886	12962
926.993	12753
927.099	12722
927.206	12745
927.312	12650
927.419	12722
927.525	12768
927.631	12764
927.737	12555
927.843	12688
927.95	12464
928.056	12585
928.162	12513
928.267	12646
928.373	13080
928.479	12574
928.585	12388
928.69	12490
928.796	12536
928.901	12399
929.007	12384
929.112	12486
929.218	12388
929.323	12300
929.428	12311
929.533	12422
929.638	12167
929.743	12330
929.848	12270
929.953	12171
930.058	12114
930.163	11961
930.267	11992
930.372	12114
930.477	11889
930.581	12129
930.685	12011
930.79	11950
930.894	11893
930.998	11779
931.103	11946
931.207	11543
931.311	11520
931.415	11482
931.519	11269
931.623	11261
