Data from test_V78500241_1774.txt Node
Date: Fri Mar 25 15:54:05 CST 2022
User: usil
Spectrometer: V785-0024
Trigger mode: 0
Integration Time (sec): 4.000000E-1
Scans to average: 1
Nonlinearity correction enabled: false
Boxcar width: 0
Storing dark spectrum: false
XAxis mode: Wavelengths
Number of Pixels in Spectrum: 1024
>>>>>Begin Spectral Data<<<<<
801.071	28523
801.214	28428
801.356	28284
801.499	28287
801.641	28196
801.783	28116
801.926	28082
802.068	28078
802.211	27899
802.353	27960
802.496	27934
802.638	27903
802.78	27914
802.923	27690
803.065	27717
803.208	27637
803.35	27884
803.492	27888
803.635	27949
803.777	27854
803.919	28032
804.061	28219
804.204	28059
804.346	27945
804.488	28044
804.63	28143
804.773	28021
804.915	28097
805.057	28223
805.199	28032
805.341	27987
805.483	28200
805.626	28093
805.768	28101
805.91	28200
806.052	28135
806.194	28124
806.336	28329
806.478	28181
806.62	28242
806.762	28436
806.904	28588
807.046	28790
807.188	28592
807.33	28542
807.472	28694
807.614	28588
807.756	28557
807.898	28436
808.04	28348
808.182	28344
808.324	28523
808.465	28474
808.607	28656
808.749	28930
808.891	29006
809.033	29044
809.174	28999
809.316	28835
809.458	28843
809.6	28725
809.741	29041
809.883	29003
810.025	29220
810.166	29193
810.308	29235
810.45	29075
810.591	29086
810.733	28976
810.875	28755
811.016	28691
811.158	28729
811.299	28987
811.441	28927
811.582	29014
811.724	28824
811.865	28869
812.007	28858
812.148	28991
812.29	28877
812.431	28946
812.573	29143
812.714	29303
812.855	29235
812.997	29547
813.138	29585
813.279	29474
813.421	29406
813.562	29417
813.703	29143
813.845	29037
813.986	28938
814.127	28687
814.268	28637
814.41	28527
814.551	28478
814.692	28569
814.833	28546
814.974	28390
815.115	28546
815.256	28333
815.397	28592
815.539	28386
815.68	28348
815.821	28360
815.962	28436
816.103	28356
816.244	28139
816.385	28200
816.526	28074
816.666	27956
816.807	27892
816.948	28006
817.089	27956
817.23	27808
817.371	27816
817.512	27884
817.653	27701
817.793	27800
817.934	27717
818.075	27785
818.216	27918
818.356	27964
818.497	27724
818.638	27648
818.778	27629
818.919	27629
819.06	27618
819.2	27724
819.341	27861
819.481	27934
819.622	28128
819.762	28185
819.903	28082
820.043	28029
820.184	27930
820.324	27823
820.465	28090
820.605	27804
820.746	27895
820.886	27827
821.026	27945
821.167	27907
821.307	28192
821.447	27983
821.588	27880
821.728	27599
821.868	27488
822.008	27378
822.149	27435
822.289	27275
822.429	27184
822.569	26940
822.709	26933
822.849	26971
822.99	26857
823.13	26735
823.27	26712
823.41	26530
823.55	26583
823.69	26602
823.83	26594
823.97	26609
824.11	26450
824.25	26419
824.389	26503
824.529	26644
824.669	26590
824.809	26545
824.949	26556
825.089	26541
825.228	26480
825.368	26263
825.508	26336
825.648	26301
825.787	26358
825.927	26473
826.067	26305
826.206	26286
826.346	26309
826.485	26404
826.625	26355
826.765	26655
826.904	26324
827.044	26233
827.183	26202
827.323	26065
827.462	26138
827.601	26008
827.741	26043
827.88	26024
828.02	25974
828.159	26050
828.298	26206
828.437	26073
828.577	26046
828.716	26256
828.855	26142
828.994	25727
829.134	25784
829.273	25811
829.412	25811
829.551	25784
829.69	25719
829.829	25807
829.968	25875
830.107	25822
830.246	25731
830.385	25788
830.524	25693
830.663	25609
830.802	25563
830.941	25384
831.08	25392
831.219	25388
831.357	25483
831.496	25647
831.635	25419
831.774	25194
831.913	25358
832.051	25213
832.19	25202
832.329	25183
832.467	25175
832.606	25080
832.744	24886
832.883	24951
833.022	24992
833.16	25053
833.299	25156
833.437	25069
833.576	25160
833.714	25000
833.852	25209
833.991	25202
834.129	25293
834.267	25148
834.406	25027
834.544	25057
834.682	25107
834.821	25091
834.959	25285
835.097	25114
835.235	25255
835.373	25160
835.511	25110
835.65	24947
835.788	25050
835.926	24802
836.064	24741
836.202	24833
836.34	24859
836.478	24973
836.615	24909
836.753	25027
836.891	25190
837.029	24897
837.167	24837
837.305	24840
837.443	24795
837.58	24688
837.718	24897
837.856	24684
837.993	24734
838.131	24764
838.269	24722
838.406	24597
838.544	24475
838.681	24445
838.819	24410
838.956	24220
839.094	24323
839.231	24342
839.369	24304
839.506	24623
839.643	24452
839.781	24216
839.918	24178
840.055	24186
840.193	24159
840.33	24155
840.467	24186
840.604	24190
840.742	24467
840.879	23923
841.016	24155
841.153	24003
841.29	24273
841.427	24201
841.564	24163
841.701	24079
841.838	24125
841.975	24015
842.112	24015
842.249	23897
842.385	23775
842.522	24129
842.659	23927
842.796	23874
842.933	23874
843.069	23866
843.206	23843
843.343	23775
843.479	23775
843.616	23870
843.752	23665
843.889	23756
844.025	23847
844.162	23707
844.298	23783
844.435	23672
844.571	23619
844.708	23707
844.844	23840
844.98	23790
845.117	23687
845.253	23695
845.389	23528
845.525	23531
845.661	23364
845.798	23387
845.934	23322
846.07	23429
846.206	23376
846.342	23417
846.478	23440
846.614	23117
846.75	23109
846.886	23094
847.022	23330
847.158	23098
847.294	23159
847.429	23052
847.565	23052
847.701	23337
847.837	22771
847.972	22831
848.108	22896
848.244	22881
848.379	22839
848.515	22592
848.65	22702
848.786	22763
848.921	22778
849.057	22831
849.192	22729
849.328	22771
849.463	22596
849.598	22641
849.734	22542
849.869	22569
850.004	22500
850.14	22451
850.275	22474
850.41	22363
850.545	22493
850.68	22447
850.815	22466
850.95	22405
851.085	22641
851.22	22531
851.355	22325
851.49	22459
851.625	22436
851.76	22398
851.895	22470
852.03	22436
852.165	22394
852.299	22504
852.434	22512
852.569	22424
852.703	22360
852.838	22428
852.973	22596
853.107	22538
853.242	22405
853.376	22322
853.511	22257
853.645	22280
853.78	22329
853.914	22322
854.048	22299
854.183	22291
854.317	22181
854.451	22512
854.585	22310
854.72	22249
854.854	22367
854.988	22169
855.122	22394
855.256	22200
855.39	22261
855.524	22390
855.658	22306
855.792	22287
855.926	22265
856.06	22207
856.194	22417
856.327	22280
856.461	22310
856.595	22059
856.729	22219
856.862	22436
856.996	22341
857.13	22337
857.263	22360
857.397	22398
857.53	22261
857.664	22329
857.797	22344
857.931	22348
858.064	22265
858.197	22379
858.331	22246
858.464	22154
858.597	22128
858.731	22162
858.864	22192
858.997	22299
859.13	22158
859.263	22314
859.396	22375
859.529	22211
859.662	22230
859.795	22215
859.928	22238
860.061	22443
860.194	22440
860.327	22424
860.46	22382
860.592	22371
860.725	22462
860.858	22333
860.99	22299
861.123	22284
861.256	22314
861.388	22284
861.521	23083
861.653	22150
861.786	21998
861.918	22131
862.05	22188
862.183	22223
862.315	22257
862.447	22360
862.58	22192
862.712	22086
862.844	21926
862.976	22059
863.108	22082
863.24	22386
863.372	22013
863.504	21926
863.636	21979
863.768	22074
863.9	21937
864.032	21994
864.164	22006
864.296	22032
864.428	22082
864.559	21956
864.691	22006
864.823	21956
864.954	21884
865.086	21964
865.217	21800
865.349	21880
865.48	21842
865.612	21918
865.743	22013
865.875	21835
866.006	21812
866.137	21880
866.269	21861
866.4	21823
866.531	21736
866.662	21816
866.793	21766
866.924	21694
867.055	21724
867.186	21739
867.317	21865
867.448	21770
867.579	21899
867.71	21797
867.841	21637
867.972	21781
868.103	21759
868.233	21903
868.364	21831
868.495	21770
868.625	21964
868.756	22063
868.886	22093
869.017	21987
869.147	22154
869.278	22101
869.408	22048
869.539	22055
869.669	22017
869.799	22101
869.929	22101
870.06	22097
870.19	22371
870.32	22242
870.45	22333
870.58	22447
870.71	22398
870.84	22519
870.97	22379
871.1	22413
871.23	22641
871.36	22592
871.489	22428
871.619	22569
871.749	22618
871.879	22569
872.008	22877
872.138	22694
872.267	22615
872.397	22485
872.526	22451
872.656	22474
872.785	22478
872.915	22626
873.044	22736
873.173	22626
873.303	22869
873.432	22656
873.561	22687
873.69	22672
873.819	22561
873.948	22809
874.077	22729
874.206	22748
874.335	22683
874.464	22721
874.593	22999
874.722	22710
874.851	22858
874.979	22843
875.108	22923
875.237	22885
875.365	22790
875.494	22847
875.623	23060
875.751	22839
875.88	22911
876.008	22961
876.136	23060
876.265	23204
876.393	23292
876.521	23311
876.65	23337
876.778	23216
876.906	23162
877.034	23174
877.162	23147
877.29	23239
877.418	23227
877.546	23284
877.674	23258
877.802	23223
877.93	23159
878.058	23178
878.185	23098
878.313	23162
878.441	23064
878.568	22957
878.696	23208
878.824	23322
878.951	23261
879.079	23364
879.206	23608
879.333	23440
879.461	23166
879.588	23337
879.715	23356
879.842	23444
879.97	23208
880.097	23041
880.224	23029
880.351	23113
880.478	22900
880.605	22938
880.732	22972
880.859	23216
880.986	22999
881.112	23185
881.239	22892
881.366	22729
881.493	22615
881.619	22580
881.746	22573
881.872	22615
881.999	22538
882.125	22421
882.252	22569
882.378	22561
882.505	22740
882.631	22542
882.757	22310
882.883	22413
883.01	22390
883.136	22318
883.262	22162
883.388	22040
883.514	22268
883.64	22230
883.766	22188
883.892	21949
884.018	22067
884.143	22295
884.269	22318
884.395	21972
884.52	21865
884.646	21888
884.772	21899
884.897	21709
885.023	21979
885.148	21987
885.274	22143
885.399	22055
885.524	21975
885.65	21831
885.775	21899
885.9	21892
886.025	21994
886.15	21861
886.275	21831
886.4	21949
886.525	21842
886.65	21945
886.775	21781
886.9	21991
887.025	22025
887.149	21861
887.274	21667
887.399	21728
887.523	21477
887.648	21713
887.773	21492
887.897	21625
888.021	21713
888.146	21728
888.27	21827
888.395	21785
888.519	21682
888.643	21663
888.767	21732
888.891	21538
889.015	21420
889.139	21629
889.263	21401
889.387	21561
889.511	21671
889.635	21595
889.759	21469
889.883	21466
890.006	21511
890.13	21549
890.254	21447
890.377	21538
890.501	21192
890.624	21062
890.748	21203
890.871	21173
890.995	20902
891.118	20937
891.241	21070
891.364	21032
891.488	21047
891.611	20967
891.734	20975
891.857	21112
891.98	20990
892.103	21013
892.226	21058
892.349	20864
892.471	20785
892.594	20990
892.717	20990
892.839	20804
892.962	20910
893.085	20967
893.207	20937
893.33	20720
893.452	20731
893.575	20986
893.697	21055
893.819	20975
893.941	21081
894.064	21047
894.186	20819
894.308	20769
894.43	20941
894.552	21039
894.674	20960
894.796	20739
894.918	20792
895.04	20788
895.161	20944
895.283	20823
895.405	20796
895.526	20895
895.648	20864
895.769	20868
895.891	20975
896.012	20982
896.134	20929
896.255	20899
896.376	20868
896.498	20971
896.619	21017
896.74	20880
896.861	21062
896.982	21233
897.103	21382
897.224	21184
897.345	21146
897.466	21062
897.587	21047
897.708	21241
897.828	21142
897.949	20944
898.07	20872
898.19	20998
898.311	21169
898.431	21062
898.552	21074
898.672	21142
898.792	21112
898.913	21074
899.033	21005
899.153	20929
899.273	20883
899.393	20777
899.513	20746
899.633	20842
899.753	20971
899.873	20644
899.993	20868
900.113	20781
900.232	20796
900.352	20823
900.472	20670
900.591	20461
900.711	20629
900.83	20507
900.95	20613
901.069	20667
901.189	20419
901.308	20328
901.427	20229
901.546	20134
901.665	20073
901.784	20248
901.904	20027
902.023	19955
902.141	19871
902.26	19658
902.379	19742
902.498	19784
902.617	19567
902.735	19685
902.854	19670
902.973	19651
903.091	19365
903.21	19259
903.328	19312
903.446	19232
903.565	19160
903.683	19179
903.801	19088
903.919	19164
904.038	19122
904.156	18970
904.274	18947
904.392	18886
904.51	18867
904.627	18787
904.745	18970
904.863	18909
904.981	18608
905.098	18536
905.216	18623
905.334	18684
905.451	18608
905.569	18589
905.686	18604
905.803	18521
905.921	18350
906.038	18486
906.155	18350
906.272	18395
906.389	18384
906.506	18057
906.623	18083
906.74	18072
906.857	18045
906.974	18022
907.091	18163
907.208	18277
907.324	18144
907.441	17950
907.557	17817
907.674	17798
907.79	17722
907.907	17630
908.023	17866
908.139	17824
908.256	17737
908.372	17668
908.488	17771
908.604	17524
908.72	17395
908.836	17436
908.952	17505
909.068	17398
909.184	17551
909.3	17501
909.415	17459
909.531	17474
909.647	17193
909.762	17326
909.878	17147
909.993	17162
910.108	17204
910.224	17189
910.339	17284
910.454	16961
910.57	17064
910.685	16900
910.8	17083
910.915	17178
911.03	16961
911.145	16740
911.259	16702
911.374	16801
911.489	16710
911.604	16733
911.718	16493
911.833	16546
911.947	16481
912.062	16337
912.176	16466
912.291	16580
912.405	16504
912.519	16740
912.633	16729
912.748	16596
912.862	16504
912.976	16325
913.09	16192
913.204	16371
913.318	16413
913.431	16455
913.545	16409
913.659	16329
913.772	16280
913.886	16154
914	16131
914.113	16268
914.226	16131
914.34	16310
914.453	16051
914.566	16139
914.68	16025
914.793	15915
914.906	15854
915.019	15720
915.132	15656
915.245	15732
915.358	15835
915.47	15709
915.583	15690
915.696	15785
915.809	15861
915.921	15778
916.034	15694
916.146	15564
916.259	15629
916.371	15625
916.483	15663
916.595	15526
916.708	15542
916.82	15538
916.932	15469
917.044	15397
917.156	15469
917.268	15412
917.38	15329
917.491	15249
917.603	15378
917.715	15416
917.826	15374
917.938	15252
918.049	15195
918.161	15332
918.272	15416
918.384	15481
918.495	15184
918.606	15176
918.717	15043
918.828	15157
918.939	15077
919.05	14982
919.161	15077
919.272	14876
919.383	14929
919.494	15127
919.604	15218
919.715	15089
919.826	14918
919.936	15036
920.047	15108
920.157	15036
920.267	15203
920.378	14994
920.488	14967
920.598	15241
920.708	15317
920.818	15127
920.928	15093
921.038	15313
921.148	15294
921.258	15009
921.368	14804
921.477	14842
921.587	14769
921.697	14674
921.806	14773
921.916	14613
922.025	14469
922.134	14400
922.244	14301
922.353	14492
922.462	14286
922.571	14309
922.68	14054
922.789	14107
922.898	14024
923.007	13928
923.116	14035
923.224	14001
923.333	14008
923.442	13993
923.55	13909
923.659	13963
923.767	13925
923.876	13753
923.984	13936
924.092	13738
924.201	13746
924.309	13746
924.417	13852
924.525	13769
924.633	13780
924.741	14431
924.849	13487
924.956	13620
925.064	13495
925.172	13377
925.279	13487
925.387	13460
925.494	13514
925.602	13483
925.709	13518
925.816	13426
925.924	13384
926.031	13529
926.138	13529
926.245	13388
926.352	13339
926.459	13392
926.566	13339
926.673	13331
926.779	13206
926.886	13198
926.993	13160
927.099	13141
927.206	12935
927.312	13031
927.419	13171
927.525	13012
927.631	13084
927.737	12973
927.843	12848
927.95	12684
928.056	12734
928.162	12882
928.267	12795
928.373	13510
928.479	12901
928.585	12734
928.69	12753
928.796	12890
928.901	12646
929.007	12494
929.112	12684
929.218	12639
929.323	12551
929.428	12525
929.533	12616
929.638	12547
929.743	12464
929.848	12639
929.953	12445
930.058	12467
930.163	12182
930.267	12228
930.372	12403
930.477	12098
930.581	12437
930.685	12205
930.79	12098
930.894	12205
930.998	12049
931.103	12186
931.207	11836
931.311	11786
931.415	11649
931.519	11452
931.623	11341
