Data from test_V78500241_3156.txt Node
Date: Fri Mar 25 16:03:39 CST 2022
User: usil
Spectrometer: V785-0024
Trigger mode: 0
Integration Time (sec): 4.000000E-1
Scans to average: 1
Nonlinearity correction enabled: false
Boxcar width: 0
Storing dark spectrum: false
XAxis mode: Wavelengths
Number of Pixels in Spectrum: 1024
>>>>>Begin Spectral Data<<<<<
801.071	28599
801.214	28554
801.356	28257
801.499	28207
801.641	28196
801.783	28101
801.926	28226
802.068	28253
802.211	28006
802.353	28051
802.496	27922
802.638	27854
802.78	27911
802.923	27701
803.065	27717
803.208	27854
803.35	27937
803.492	28032
803.635	28067
803.777	27991
803.919	28002
804.061	28401
804.204	28131
804.346	28029
804.488	27918
804.63	28074
804.773	28048
804.915	28048
805.057	28120
805.199	28048
805.341	28090
805.483	28276
805.626	28105
805.768	28105
805.91	28219
806.052	28177
806.194	28299
806.336	28185
806.478	28181
806.62	28276
806.762	28356
806.904	28512
807.046	28717
807.188	28725
807.33	28679
807.472	28637
807.614	28584
807.756	28584
807.898	28493
808.04	28546
808.182	28436
808.324	28588
808.465	28615
808.607	28580
808.749	28782
808.891	29113
809.033	29014
809.174	29003
809.316	28809
809.458	28862
809.6	28816
809.741	29075
809.883	29132
810.025	29102
810.166	29265
810.308	29098
810.45	29193
810.591	29143
810.733	28858
810.875	28949
811.016	28888
811.158	28774
811.299	29022
811.441	29037
811.582	28999
811.724	29033
811.865	28900
812.007	28866
812.148	28911
812.29	28949
812.431	29056
812.573	29208
812.714	29315
812.855	29387
812.997	29687
813.138	29570
813.279	29627
813.421	29383
813.562	29311
813.703	29235
813.845	29368
813.986	28809
814.127	28721
814.268	28668
814.41	28683
814.551	28660
814.692	28687
814.833	28634
814.974	28554
815.115	28557
815.256	28546
815.397	28531
815.539	28485
815.68	28398
815.821	28325
815.962	28447
816.103	28421
816.244	28337
816.385	28238
816.526	28173
816.666	27941
816.807	27922
816.948	27956
817.089	28002
817.23	27865
817.371	27960
817.512	27953
817.653	28006
817.793	27850
817.934	27842
818.075	27804
818.216	27869
818.356	27991
818.497	27937
818.638	27656
818.778	27797
818.919	27603
819.06	27705
819.2	27911
819.341	27911
819.481	27934
819.622	27903
819.762	28360
819.903	28112
820.043	28185
820.184	28063
820.324	28082
820.465	28101
820.605	27998
820.746	27949
820.886	27964
821.026	28090
821.167	27774
821.307	28025
821.447	28021
821.588	27922
821.728	27759
821.868	27485
822.008	27412
822.149	27507
822.289	27374
822.429	27241
822.569	26956
822.709	27070
822.849	26853
822.99	26918
823.13	26921
823.27	26842
823.41	26720
823.55	26727
823.69	26777
823.83	26758
823.97	26689
824.11	26545
824.25	26507
824.389	26552
824.529	26743
824.669	26617
824.809	26777
824.949	26621
825.089	26670
825.228	26655
825.368	26427
825.508	26457
825.648	26431
825.787	26465
825.927	26632
826.067	26404
826.206	26358
826.346	26507
826.485	26450
826.625	26446
826.765	26549
826.904	26511
827.044	26218
827.183	26119
827.323	26164
827.462	26229
827.601	26172
827.741	26054
827.88	26339
828.02	26073
828.159	26050
828.298	26244
828.437	26233
828.577	26043
828.716	26103
828.855	26012
828.994	25826
829.134	25856
829.273	25875
829.412	25727
829.551	25856
829.69	25742
829.829	25902
829.968	26016
830.107	25963
830.246	25841
830.385	25772
830.524	25727
830.663	25655
830.802	25502
830.941	25377
831.08	25556
831.219	25388
831.357	25457
831.496	25624
831.635	25586
831.774	25419
831.913	25270
832.051	25289
832.19	25202
832.329	25240
832.467	25145
832.606	25095
832.744	25129
832.883	25110
833.022	25152
833.16	25175
833.299	25206
833.437	25213
833.576	25160
833.714	25118
833.852	25046
833.991	25263
834.129	25278
834.267	25297
834.406	25202
834.544	25194
834.682	25228
834.821	25156
834.959	25441
835.097	25061
835.235	25183
835.373	25171
835.511	25107
835.65	25004
835.788	25126
835.926	25000
836.064	24783
836.202	24856
836.34	25148
836.478	25088
836.615	24973
836.753	24996
836.891	25141
837.029	25050
837.167	25053
837.305	24882
837.443	24791
837.58	24886
837.718	25008
837.856	24943
837.993	24738
838.131	24833
838.269	24684
838.406	24730
838.544	24650
838.681	24475
838.819	24566
838.956	24296
839.094	24270
839.231	24407
839.369	24445
839.506	24650
839.643	24589
839.781	24308
839.918	24289
840.055	24357
840.193	24330
840.33	24247
840.467	24159
840.604	24228
840.742	24448
840.879	24174
841.016	24190
841.153	24144
841.29	24357
841.427	24178
841.564	24197
841.701	24152
841.838	24224
841.975	24049
842.112	24095
842.249	24003
842.385	24064
842.522	24258
842.659	24117
842.796	23958
842.933	24022
843.069	23893
843.206	23969
843.343	23916
843.479	24018
843.616	23939
843.752	23779
843.889	23642
844.025	23874
844.162	23707
844.298	23843
844.435	23752
844.571	23707
844.708	23745
844.844	23843
844.98	23897
845.117	23885
845.253	23665
845.389	23562
845.525	23581
845.661	23547
845.798	23414
845.934	23577
846.07	23429
846.206	23512
846.342	23710
846.478	23376
846.614	23383
846.75	23132
846.886	23273
847.022	23330
847.158	23200
847.294	23151
847.429	23239
847.565	23109
847.701	23410
847.837	22957
847.972	22809
848.108	22953
848.244	22972
848.379	22824
848.515	22729
848.65	22862
848.786	22839
848.921	22877
849.057	22748
849.192	22911
849.328	22809
849.463	22831
849.598	22721
849.734	22626
849.869	22664
850.004	22550
850.14	22516
850.275	22561
850.41	22523
850.545	22493
850.68	22546
850.815	22630
850.95	22565
851.085	22752
851.22	22672
851.355	22691
851.49	22485
851.625	22599
851.76	22573
851.895	22508
852.03	22512
852.165	22459
852.299	22656
852.434	22630
852.569	22660
852.703	22554
852.838	22645
852.973	22656
853.107	22622
853.242	22500
853.376	22413
853.511	22253
853.645	22280
853.78	22455
853.914	22352
854.048	22348
854.183	22379
854.317	22466
854.451	22596
854.585	22352
854.72	22432
854.854	22580
854.988	22379
855.122	22371
855.256	22284
855.39	22459
855.524	22474
855.658	22569
855.792	22417
855.926	22295
856.06	22474
856.194	22546
856.327	22424
856.461	22303
856.595	22261
856.729	22352
856.862	22474
856.996	22413
857.13	22432
857.263	22523
857.397	22580
857.53	22352
857.664	22424
857.797	22519
857.931	22485
858.064	22462
858.197	22500
858.331	22356
858.464	22371
858.597	22295
858.731	22436
858.864	22405
858.997	22379
859.13	22379
859.263	22440
859.396	22641
859.529	22421
859.662	22341
859.795	22424
859.928	22394
860.061	22557
860.194	22607
860.327	22508
860.46	22481
860.592	22611
860.725	22577
860.858	22413
860.99	22455
861.123	22443
861.256	22333
861.388	22363
861.521	23079
861.653	22310
861.786	22249
861.918	22299
862.05	22348
862.183	22242
862.315	22287
862.447	22390
862.58	22303
862.712	22188
862.844	22131
862.976	22188
863.108	22192
863.24	22451
863.372	22036
863.504	22131
863.636	22128
863.768	22169
863.9	22150
864.032	22090
864.164	22120
864.296	22143
864.428	22215
864.559	22147
864.691	22150
864.823	22093
864.954	22139
865.086	22013
865.217	22013
865.349	22002
865.48	21911
865.612	22048
865.743	22177
865.875	22067
866.006	22025
866.137	22044
866.269	22006
866.4	22013
866.531	21888
866.662	21876
866.793	21915
866.924	22017
867.055	21937
867.186	21945
867.317	22055
867.448	21865
867.579	21892
867.71	21812
867.841	22002
867.972	21846
868.103	21888
868.233	21850
868.364	21907
868.495	21953
868.625	22215
868.756	22363
868.886	22074
869.017	22131
869.147	22329
869.278	22280
869.408	22223
869.539	22101
869.669	22253
869.799	22223
869.929	22226
870.06	22360
870.19	22398
870.32	22379
870.45	22481
870.58	22500
870.71	22580
870.84	22664
870.97	22626
871.1	22630
871.23	22740
871.36	22733
871.489	22653
871.619	22653
871.749	22622
871.879	22839
872.008	22858
872.138	22862
872.267	22771
872.397	22580
872.526	22519
872.656	22531
872.785	22573
872.915	22847
873.044	22995
873.173	22733
873.303	22793
873.432	22824
873.561	22930
873.69	22873
873.819	22850
873.948	22816
874.077	22812
874.206	22702
874.335	22755
874.464	22923
874.593	22972
874.722	22946
874.851	23075
874.979	23060
875.108	23014
875.237	22946
875.365	22968
875.494	22908
875.623	23018
875.751	22946
875.88	23086
876.008	23098
876.136	23235
876.265	23284
876.393	23520
876.521	23383
876.65	23395
876.778	23444
876.906	23364
877.034	23273
877.162	23452
877.29	23292
877.418	23512
877.546	23299
877.674	23284
877.802	23261
877.93	23326
878.058	23246
878.185	23132
878.313	23204
878.441	23349
878.568	23132
878.696	23223
878.824	23254
878.951	23421
879.079	23535
879.206	23638
879.333	23592
879.461	23402
879.588	23429
879.715	23551
879.842	23642
879.97	23368
880.097	23155
880.224	23140
880.351	23265
880.478	23200
880.605	23056
880.732	23189
880.859	23353
880.986	23200
881.112	23197
881.239	23064
881.366	22934
881.493	22645
881.619	22828
881.746	22828
881.872	22755
881.999	22706
882.125	22664
882.252	22664
882.378	22725
882.505	22889
882.631	22443
882.757	22295
882.883	22478
883.01	22394
883.136	22322
883.262	22265
883.388	22181
883.514	22428
883.64	22424
883.766	22394
883.892	22090
884.018	22097
884.143	22379
884.269	22325
884.395	22044
884.52	22154
884.646	22013
884.772	21797
884.897	21934
885.023	22044
885.148	22143
885.274	22169
885.399	22112
885.524	22013
885.65	21979
885.775	22002
885.9	21926
886.025	22124
886.15	22093
886.275	22029
886.4	21911
886.525	22010
886.65	21876
886.775	21956
886.9	22105
887.025	22246
887.149	21964
887.274	21827
887.399	21774
887.523	21736
887.648	21762
887.773	21739
887.897	21911
888.021	21884
888.146	21751
888.27	21884
888.395	21918
888.519	21854
888.643	21717
888.767	21724
888.891	21660
889.015	21629
889.139	21679
889.263	21469
889.387	21736
889.511	21698
889.635	21679
889.759	21572
889.883	21469
890.006	21633
890.13	21542
890.254	21580
890.377	21462
890.501	21264
890.624	21203
890.748	21363
890.871	21222
890.995	21070
891.118	21119
891.241	21226
891.364	21146
891.488	21298
891.611	21142
891.734	21074
891.857	21184
891.98	21104
892.103	21294
892.226	21089
892.349	21154
892.471	20845
892.594	21009
892.717	21169
892.839	21077
892.962	21036
893.085	21077
893.207	21104
893.33	20815
893.452	20960
893.575	21108
893.697	21024
893.819	21188
893.941	21135
894.064	21203
894.186	20975
894.308	20960
894.43	21036
894.552	21207
894.674	21112
894.796	20921
894.918	20948
895.04	21058
895.161	21028
895.283	21146
895.405	20891
895.526	21017
895.648	20929
895.769	21062
895.891	21032
896.012	21013
896.134	21074
896.255	21081
896.376	20952
896.498	20880
896.619	21146
896.74	21074
896.861	20975
896.982	21264
897.103	21401
897.224	21275
897.345	21142
897.466	21062
897.587	21294
897.708	21363
897.828	21211
897.949	21241
898.07	21032
898.19	21218
898.311	21363
898.431	21138
898.552	21176
898.672	21302
898.792	21272
898.913	21165
899.033	21142
899.153	21074
899.273	20842
899.393	20880
899.513	20986
899.633	20849
899.753	20933
899.873	20857
899.993	20902
900.113	20895
900.232	20918
900.352	20804
900.472	20788
900.591	20648
900.711	20724
900.83	20613
900.95	20750
901.069	20754
901.189	20621
901.308	20457
901.427	20172
901.546	20263
901.665	20317
901.784	20393
901.904	20050
902.023	20024
902.141	19761
902.26	19791
902.379	19864
902.498	19864
902.617	19791
902.735	19780
902.854	19590
902.973	19731
903.091	19441
903.21	19388
903.328	19377
903.446	19377
903.565	19320
903.683	19228
903.801	19069
903.919	19175
904.038	19156
904.156	19080
904.274	19069
904.392	18962
904.51	18981
904.627	18962
904.745	18947
904.863	19015
904.981	18833
905.098	18528
905.216	18677
905.334	18719
905.451	18722
905.569	18681
905.686	18707
905.803	18707
905.921	18475
906.038	18525
906.155	18426
906.272	18372
906.389	18388
906.506	18190
906.623	18266
906.74	18144
906.857	17954
906.974	18057
907.091	18159
907.208	18254
907.324	18201
907.441	18030
907.557	17958
907.674	17931
907.79	17798
907.907	17847
908.023	17942
908.139	17946
908.256	17756
908.372	17802
908.488	17726
908.604	17653
908.72	17668
908.836	17615
908.952	17668
909.068	17608
909.184	17611
909.3	17516
909.415	17623
909.531	17630
909.647	17360
909.762	17307
909.878	17250
909.993	17277
910.108	17212
910.224	17311
910.339	17193
910.454	17170
910.57	17151
910.685	17079
910.8	17299
910.915	17299
911.03	17185
911.145	16942
911.259	16869
911.374	16927
911.489	16854
911.604	16733
911.718	16618
911.833	16721
911.947	16527
912.062	16535
912.176	16626
912.291	16622
912.405	16535
912.519	16854
912.633	16858
912.748	16668
912.862	16683
912.976	16405
913.09	16440
913.204	16428
913.318	16527
913.431	16409
913.545	16504
913.659	16550
913.772	16421
913.886	16318
914	16150
914.113	16284
914.226	16299
914.34	16276
914.453	16166
914.566	16291
914.68	16090
914.793	16059
914.906	15865
915.019	15831
915.132	15747
915.245	15770
915.358	15766
915.47	15846
915.583	15720
915.696	15869
915.809	15994
915.921	15926
916.034	15713
916.146	15614
916.259	15717
916.371	15720
916.483	15747
916.595	15641
916.708	15751
916.82	15663
916.932	15698
917.044	15530
917.156	15553
917.268	15458
917.38	15416
917.491	15351
917.603	15401
917.715	15496
917.826	15511
917.938	15359
918.049	15268
918.161	15386
918.272	15515
918.384	15374
918.495	15447
918.606	15287
918.717	15146
918.828	15188
918.939	15176
919.05	15165
919.161	15207
919.272	14948
919.383	15001
919.494	15214
919.604	15405
919.715	15131
919.826	15043
919.936	15138
920.047	15222
920.157	14994
920.267	15336
920.378	15131
920.488	15074
920.598	15306
920.708	15439
920.818	15233
920.928	15268
921.038	15370
921.148	15386
921.258	15013
921.368	14967
921.477	14849
921.587	14811
921.697	14720
921.806	14834
921.916	14640
922.025	14545
922.134	14488
922.244	14499
922.353	14564
922.462	14412
922.571	14286
922.68	14168
922.789	14176
922.898	14153
923.007	14096
923.116	14183
923.224	14142
923.333	14081
923.442	14001
923.55	14020
923.659	13940
923.767	14016
923.876	14005
923.984	13940
924.092	13799
924.201	13849
924.309	13849
924.417	13887
924.525	13757
924.633	13856
924.741	14629
924.849	13575
924.956	13696
925.064	13533
925.172	13502
925.279	13502
925.387	13605
925.494	13632
925.602	13594
925.709	13605
925.816	13453
925.924	13453
926.031	13487
926.138	13411
926.245	13525
926.352	13297
926.459	13441
926.566	13552
926.673	13331
926.779	13316
926.886	13251
926.993	13149
927.099	13118
927.206	12947
927.312	13000
927.419	13091
927.525	13023
927.631	13019
927.737	12985
927.843	12753
927.95	12681
928.056	12920
928.162	12844
928.267	12913
928.373	13419
928.479	12920
928.585	12707
928.69	12882
928.796	12779
928.901	12703
929.007	12654
929.112	12783
929.218	12639
929.323	12525
929.428	12578
929.533	12684
929.638	12566
929.743	12528
929.848	12509
929.953	12536
930.058	12452
930.163	12346
930.267	12251
930.372	12380
930.477	12190
930.581	12403
930.685	12315
930.79	12076
930.894	12155
930.998	12041
931.103	12232
931.207	11821
931.311	11870
931.415	11676
931.519	11505
931.623	11459
