Data from test_V78500241_3300.txt Node
Date: Fri Mar 25 16:04:39 CST 2022
User: usil
Spectrometer: V785-0024
Trigger mode: 0
Integration Time (sec): 4.000000E-1
Scans to average: 1
Nonlinearity correction enabled: false
Boxcar width: 0
Storing dark spectrum: false
XAxis mode: Wavelengths
Number of Pixels in Spectrum: 1024
>>>>>Begin Spectral Data<<<<<
801.071	28535
801.214	28462
801.356	28280
801.499	28223
801.641	28268
801.783	28143
801.926	28230
802.068	28310
802.211	28131
802.353	28055
802.496	27998
802.638	27926
802.78	27816
802.923	27778
803.065	27724
803.208	27854
803.35	27983
803.492	28032
803.635	28002
803.777	27956
803.919	28105
804.061	28436
804.204	28173
804.346	28032
804.488	27918
804.63	28029
804.773	27960
804.915	28078
805.057	28230
805.199	28112
805.341	28158
805.483	28109
805.626	28169
805.768	28280
805.91	28246
806.052	28246
806.194	28169
806.336	28527
806.478	28398
806.62	28322
806.762	28512
806.904	28599
807.046	28778
807.188	28672
807.33	28816
807.472	28702
807.614	28618
807.756	28755
807.898	28660
808.04	28599
808.182	28611
808.324	28489
808.465	28599
808.607	28774
808.749	29041
808.891	29029
809.033	29060
809.174	28961
809.316	28957
809.458	29037
809.6	28877
809.741	29185
809.883	29067
810.025	29208
810.166	29204
810.308	29368
810.45	29269
810.591	29223
810.733	29041
810.875	28946
811.016	28877
811.158	28934
811.299	29102
811.441	29128
811.582	29098
811.724	29022
811.865	28995
812.007	29025
812.148	28972
812.29	28946
812.431	29223
812.573	29345
812.714	29505
812.855	29528
812.997	29524
813.138	29760
813.279	29570
813.421	29490
813.562	29516
813.703	29307
813.845	29360
813.986	28942
814.127	28672
814.268	28717
814.41	28584
814.551	28706
814.692	28828
814.833	28710
814.974	28645
815.115	28675
815.256	28664
815.397	28596
815.539	28569
815.68	28542
815.821	28409
815.962	28500
816.103	28550
816.244	28379
816.385	28333
816.526	28147
816.666	28112
816.807	27994
816.948	28013
817.089	28067
817.23	28112
817.371	28177
817.512	27934
817.653	27873
817.793	27865
817.934	28059
818.075	27991
818.216	27983
818.356	27918
818.497	27816
818.638	27743
818.778	27663
818.919	27644
819.06	27876
819.2	27884
819.341	28044
819.481	27956
819.622	28166
819.762	28398
819.903	28272
820.043	28128
820.184	28090
820.324	28135
820.465	28192
820.605	28242
820.746	28173
820.886	27972
821.026	28078
821.167	28055
821.307	28166
821.447	27934
821.588	27736
821.728	27876
821.868	27500
822.008	27401
822.149	27538
822.289	27477
822.429	27146
822.569	27252
822.709	27089
822.849	27020
822.99	26944
823.13	27077
823.27	26982
823.41	26769
823.55	26670
823.69	26918
823.83	26743
823.97	26689
824.11	26560
824.25	26423
824.389	26594
824.529	26644
824.669	26670
824.809	26769
824.949	26697
825.089	26750
825.228	26678
825.368	26621
825.508	26545
825.648	26583
825.787	26526
825.927	26651
826.067	26393
826.206	26571
826.346	26514
826.485	26629
826.625	26476
826.765	26609
826.904	26648
827.044	26328
827.183	26343
827.323	26202
827.462	26339
827.601	26301
827.741	26206
827.88	26412
828.02	26134
828.159	26161
828.298	26202
828.437	26301
828.577	26248
828.716	26183
828.855	26054
828.994	25898
829.134	25978
829.273	26024
829.412	25917
829.551	25906
829.69	25951
829.829	26069
829.968	25890
830.107	26153
830.246	25917
830.385	25875
830.524	25811
830.663	25696
830.802	25651
830.941	25499
831.08	25453
831.219	25712
831.357	25685
831.496	25837
831.635	25677
831.774	25483
831.913	25464
832.051	25343
832.19	25331
832.329	25346
832.467	25247
832.606	25156
832.744	25088
832.883	25263
833.022	25183
833.16	25187
833.299	25194
833.437	25084
833.576	25316
833.714	25175
833.852	25320
833.991	25403
834.129	25339
834.267	25415
834.406	25312
834.544	25304
834.682	25354
834.821	25270
834.959	25403
835.097	25217
835.235	25156
835.373	25232
835.511	25350
835.65	25091
835.788	25187
835.926	24920
836.064	24913
836.202	24886
836.34	25050
836.478	25209
836.615	25034
836.753	25156
836.891	25038
837.029	25065
837.167	25114
837.305	25065
837.443	24924
837.58	24970
837.718	24977
837.856	25015
837.993	24901
838.131	24928
838.269	24852
838.406	24825
838.544	24787
838.681	24593
838.819	24505
838.956	24525
839.094	24315
839.231	24414
839.369	24540
839.506	24905
839.643	24578
839.781	24391
839.918	24228
840.055	24391
840.193	24418
840.33	24403
840.467	24365
840.604	24395
840.742	24452
840.879	24247
841.016	24247
841.153	24235
841.29	24369
841.427	24095
841.564	24308
841.701	24319
841.838	24235
841.975	24140
842.112	24273
842.249	24053
842.385	23984
842.522	24342
842.659	24171
842.796	24121
842.933	24106
843.069	23935
843.206	23992
843.343	24098
843.479	24007
843.616	23920
843.752	23798
843.889	23794
844.025	23977
844.162	23764
844.298	23904
844.435	23771
844.571	23779
844.708	23863
844.844	23992
844.98	23946
845.117	23904
845.253	23779
845.389	23707
845.525	23657
845.661	23570
845.798	23596
845.934	23653
846.07	23600
846.206	23649
846.342	23680
846.478	23646
846.614	23242
846.75	23353
846.886	23128
847.022	23402
847.158	23345
847.294	23258
847.429	23360
847.565	23200
847.701	23577
847.837	22881
847.972	22968
848.108	23132
848.244	23075
848.379	22999
848.515	22915
848.65	22858
848.786	22767
848.921	22934
849.057	23006
849.192	22946
849.328	22831
849.463	23010
849.598	22843
849.734	22622
849.869	22691
850.004	22561
850.14	22656
850.275	22698
850.41	22519
850.545	22554
850.68	22550
850.815	22668
850.95	22588
851.085	22854
851.22	22691
851.355	22462
851.49	22497
851.625	22557
851.76	22687
851.895	22588
852.03	22550
852.165	22675
852.299	22683
852.434	22664
852.569	22618
852.703	22622
852.838	22672
852.973	22755
853.107	22740
853.242	22573
853.376	22493
853.511	22417
853.645	22405
853.78	22573
853.914	22538
854.048	22318
854.183	22474
854.317	22542
854.451	22664
854.585	22447
854.72	22398
854.854	22470
854.988	22322
855.122	22459
855.256	22299
855.39	22451
855.524	22504
855.658	22485
855.792	22504
855.926	22440
856.06	22413
856.194	22584
856.327	22379
856.461	22249
856.595	22390
856.729	22417
856.862	22459
856.996	22500
857.13	22523
857.263	22531
857.397	22538
857.53	22432
857.664	22485
857.797	22557
857.931	22569
858.064	22398
858.197	22615
858.331	22470
858.464	22379
858.597	22253
858.731	22253
858.864	22386
858.997	22333
859.13	22504
859.263	22375
859.396	22546
859.529	22405
859.662	22379
859.795	22405
859.928	22348
860.061	22683
860.194	22713
860.327	22500
860.46	22512
860.592	22584
860.725	22611
860.858	22557
860.99	22451
861.123	22432
861.256	22405
861.388	22603
861.521	23124
861.653	22242
861.786	22257
861.918	22280
862.05	22188
862.183	22341
862.315	22462
862.447	22413
862.58	22337
862.712	22177
862.844	22059
862.976	22344
863.108	22131
863.24	22554
863.372	22200
863.504	22185
863.636	22124
863.768	22276
863.9	22143
864.032	22067
864.164	22139
864.296	22188
864.428	22246
864.559	22257
864.691	22299
864.823	22147
864.954	22082
865.086	22135
865.217	21987
865.349	21979
865.48	21915
865.612	21987
865.743	22128
865.875	22070
866.006	21998
866.137	22074
866.269	21953
866.4	22036
866.531	22086
866.662	21979
866.793	21903
866.924	21975
867.055	21979
867.186	22112
867.317	21888
867.448	21922
867.579	21983
867.71	21888
867.841	22063
867.972	21941
868.103	21880
868.233	21979
868.364	21941
868.495	22112
868.625	22223
868.756	22352
868.886	22086
869.017	22154
869.147	22196
869.278	22265
869.408	22238
869.539	22207
869.669	22261
869.799	22314
869.929	22268
870.06	22268
870.19	22653
870.32	22577
870.45	22607
870.58	22630
870.71	22675
870.84	22615
870.97	22527
871.1	22580
871.23	22854
871.36	22862
871.489	22725
871.619	22679
871.749	22904
871.879	22778
872.008	23022
872.138	22717
872.267	22889
872.397	22744
872.526	22706
872.656	22721
872.785	22649
872.915	22767
873.044	22927
873.173	22934
873.303	22778
873.432	22771
873.561	23003
873.69	22908
873.819	22733
873.948	22927
874.077	22816
874.206	22831
874.335	22748
874.464	22946
874.593	23052
874.722	22869
874.851	23102
874.979	23094
875.108	23037
875.237	22965
875.365	22934
875.494	23143
875.623	23143
875.751	23052
875.88	23109
876.008	23200
876.136	23197
876.265	23429
876.393	23589
876.521	23592
876.65	23570
876.778	23493
876.906	23326
877.034	23345
877.162	23444
877.29	23341
877.418	23482
877.546	23493
877.674	23486
877.802	23425
877.93	23391
878.058	23417
878.185	23280
878.313	23395
878.441	23353
878.568	23200
878.696	23231
878.824	23364
878.951	23436
879.079	23592
879.206	23619
879.333	23653
879.461	23440
879.588	23524
879.715	23577
879.842	23764
879.97	23490
880.097	23193
880.224	23242
880.351	23288
880.478	23360
880.605	23185
880.732	23185
880.859	23395
880.986	23197
881.112	23174
881.239	22987
881.366	22930
881.493	22854
881.619	22904
881.746	22889
881.872	22816
881.999	22584
882.125	22611
882.252	22748
882.378	22725
882.505	22847
882.631	22630
882.757	22375
882.883	22615
883.01	22474
883.136	22348
883.262	22333
883.388	22284
883.514	22447
883.64	22577
883.766	22424
883.892	22162
884.018	22188
884.143	22440
884.269	22413
884.395	22181
884.52	22078
884.646	22086
884.772	21979
884.897	21998
885.023	22070
885.148	22249
885.274	22242
885.399	22188
885.524	22040
885.65	22029
885.775	22036
885.9	22051
886.025	22135
886.15	22097
886.275	22021
886.4	21956
886.525	21987
886.65	22044
886.775	21975
886.9	22280
887.025	22147
887.149	22032
887.274	21835
887.399	21789
887.523	21857
887.648	21949
887.773	21656
887.897	21884
888.021	21831
888.146	21732
888.27	21732
888.395	21979
888.519	21778
888.643	21972
888.767	21850
888.891	21739
889.015	21633
889.139	21701
889.263	21576
889.387	21717
889.511	21766
889.635	21759
889.759	21587
889.883	21671
890.006	21591
890.13	21755
890.254	21614
890.377	21542
890.501	21374
890.624	21249
890.748	21401
890.871	21458
890.995	21074
891.118	21222
891.241	21249
891.364	21256
891.488	21203
891.611	21218
891.734	21237
891.857	21123
891.98	21093
892.103	21203
892.226	21081
892.349	21207
892.471	21070
892.594	21020
892.717	21104
892.839	21028
892.962	20994
893.085	21199
893.207	20986
893.33	21074
893.452	20990
893.575	21055
893.697	21081
893.819	21226
893.941	21321
894.064	21344
894.186	21062
894.308	20952
894.43	21142
894.552	21188
894.674	21074
894.796	20971
894.918	20990
895.04	21081
895.161	21199
895.283	20960
895.405	20952
895.526	20994
895.648	20975
895.769	21108
895.891	21020
896.012	21093
896.134	21055
896.255	21020
896.376	21039
896.498	21013
896.619	21093
896.74	21066
896.861	21116
896.982	21294
897.103	21424
897.224	21408
897.345	21260
897.466	21173
897.587	21249
897.708	21348
897.828	21393
897.949	21287
898.07	21047
898.19	21195
898.311	21287
898.431	21127
898.552	21241
898.672	21374
898.792	21325
898.913	21245
899.033	21142
899.153	21009
899.273	20906
899.393	20948
899.513	21051
899.633	20963
899.753	20975
899.873	20906
899.993	20910
900.113	20826
900.232	20883
900.352	20906
900.472	20834
900.591	20701
900.711	20788
900.83	20712
900.95	20807
901.069	20785
901.189	20651
901.308	20457
901.427	20301
901.546	20355
901.665	20305
901.784	20362
901.904	20218
902.023	20161
902.141	19860
902.26	19898
902.379	19909
902.498	19753
902.617	19822
902.735	19898
902.854	19761
902.973	19658
903.091	19533
903.21	19438
903.328	19491
903.446	19346
903.565	19270
903.683	19244
903.801	19126
903.919	19240
904.038	19206
904.156	19133
904.274	19015
904.392	18985
904.51	19042
904.627	19012
904.745	19148
904.863	19088
904.981	18776
905.098	18738
905.216	18642
905.334	18810
905.451	18738
905.569	18700
905.686	18673
905.803	18635
905.921	18555
906.038	18669
906.155	18555
906.272	18369
906.389	18506
906.506	18239
906.623	18190
906.74	18155
906.857	18079
906.974	18114
907.091	18342
907.208	18384
907.324	18083
907.441	18087
907.557	17927
907.674	17840
907.79	17878
907.907	17893
908.023	17874
908.139	17961
908.256	17939
908.372	17885
908.488	17726
908.604	17737
908.72	17646
908.836	17729
908.952	17668
909.068	17623
909.184	17771
909.3	17570
909.415	17668
909.531	17661
909.647	17223
909.762	17235
909.878	17303
909.993	17322
910.108	17280
910.224	17269
910.339	17296
910.454	17265
910.57	17147
910.685	17124
910.8	17425
910.915	17223
911.03	17094
911.145	16923
911.259	16915
911.374	16965
911.489	16824
911.604	16854
911.718	16698
911.833	16622
911.947	16607
912.062	16478
912.176	16641
912.291	16748
912.405	16615
912.519	16812
912.633	16850
912.748	16733
912.862	16660
912.976	16474
913.09	16318
913.204	16318
913.318	16398
913.431	16668
913.545	16584
913.659	16542
913.772	16405
913.886	16329
914	16265
914.113	16367
914.226	16386
914.34	16348
914.453	16173
914.566	16352
914.68	16116
914.793	16131
914.906	15987
915.019	15854
915.132	15755
915.245	15869
915.358	15854
915.47	15892
915.583	15934
915.696	15876
915.809	16025
915.921	15907
916.034	15751
916.146	15713
916.259	15701
916.371	15781
916.483	15728
916.595	15759
916.708	15709
916.82	15743
916.932	15705
917.044	15660
917.156	15633
917.268	15557
917.38	15511
917.491	15485
917.603	15538
917.715	15580
917.826	15580
917.938	15469
918.049	15310
918.161	15412
918.272	15519
918.384	15641
918.495	15477
918.606	15233
918.717	15222
918.828	15203
918.939	15249
919.05	15249
919.161	15192
919.272	15093
919.383	15123
919.494	15272
919.604	15443
919.715	15233
919.826	15055
919.936	15199
920.047	15279
920.157	15211
920.267	15386
920.378	15214
920.488	15192
920.598	15332
920.708	15496
920.818	15317
920.928	15321
921.038	15606
921.148	15485
921.258	15116
921.368	14982
921.477	15093
921.587	14933
921.697	14834
921.806	14921
921.916	14762
922.025	14640
922.134	14629
922.244	14484
922.353	14606
922.462	14434
922.571	14336
922.68	14237
922.789	14153
922.898	14176
923.007	14176
923.116	14130
923.224	14164
923.333	14100
923.442	14069
923.55	14081
923.659	14001
923.767	14092
923.876	14024
923.984	14027
924.092	13868
924.201	13830
924.309	13925
924.417	13856
924.525	13856
924.633	13845
924.741	14590
924.849	13655
924.956	13894
925.064	13601
925.172	13582
925.279	13586
925.387	13521
925.494	13548
925.602	13731
925.709	13582
925.816	13426
925.924	13472
926.031	13594
926.138	13472
926.245	13594
926.352	13445
926.459	13514
926.566	13533
926.673	13453
926.779	13384
926.886	13343
926.993	13240
927.099	13164
927.206	13046
927.312	13019
927.419	13175
927.525	13072
927.631	13114
927.737	12958
927.843	13019
927.95	12764
928.056	12840
928.162	12996
928.267	12924
928.373	13487
928.479	13015
928.585	12783
928.69	12966
928.796	12920
928.901	12760
929.007	12677
929.112	12776
929.218	12745
929.323	12719
929.428	12665
929.533	12798
929.638	12566
929.743	12597
929.848	12665
929.953	12525
930.058	12517
930.163	12311
930.267	12319
930.372	12513
930.477	12296
930.581	12486
930.685	12376
930.79	12125
930.894	12171
930.998	12125
931.103	12213
931.207	11855
931.311	11779
931.415	11733
931.519	11581
931.623	11551
