Data from test_V78500241_2830.txt Node
Date: Fri Mar 25 16:01:24 CST 2022
User: usil
Spectrometer: V785-0024
Trigger mode: 0
Integration Time (sec): 4.000000E-1
Scans to average: 1
Nonlinearity correction enabled: false
Boxcar width: 0
Storing dark spectrum: false
XAxis mode: Wavelengths
Number of Pixels in Spectrum: 1024
>>>>>Begin Spectral Data<<<<<
801.071	29349
801.214	29166
801.356	28999
801.499	28984
801.641	28965
801.783	28866
801.926	28968
802.068	28877
802.211	28824
802.353	28664
802.496	28455
802.638	28577
802.78	28546
802.923	28485
803.065	28459
803.208	28603
803.35	28561
803.492	28649
803.635	28835
803.777	28721
803.919	28828
804.061	29060
804.204	28858
804.346	28637
804.488	28831
804.63	28763
804.773	28816
804.915	28835
805.057	28968
805.199	28896
805.341	28934
805.483	28892
805.626	28984
805.768	28835
805.91	29052
806.052	29052
806.194	28961
806.336	29311
806.478	29033
806.62	28976
806.762	29239
806.904	29383
807.046	29497
807.188	29383
807.33	29375
807.472	29528
807.614	29379
807.756	29505
807.898	29280
808.04	29273
808.182	29315
808.324	29429
808.465	29387
808.607	29570
808.749	29661
808.891	29843
809.033	30003
809.174	29802
809.316	29710
809.458	29684
809.6	29771
809.741	29668
809.883	29977
810.025	29969
810.166	30015
810.308	30068
810.45	29992
810.591	29878
810.733	29748
810.875	29699
811.016	29668
811.158	29745
811.299	29885
811.441	29942
811.582	29916
811.724	29722
811.865	29722
812.007	29695
812.148	29958
812.29	29783
812.431	29999
812.573	30121
812.714	30091
812.855	30308
812.997	30281
813.138	30479
813.279	30418
813.421	30319
813.562	30273
813.703	30148
813.845	29961
813.986	29733
814.127	29486
814.268	29589
814.41	29406
814.551	29452
814.692	29562
814.833	29364
814.974	29623
815.115	29703
815.256	29433
815.397	29254
815.539	29307
815.68	29227
815.821	29128
815.962	29414
816.103	29239
816.244	29071
816.385	29067
816.526	29067
816.666	28927
816.807	28698
816.948	28778
817.089	28877
817.23	28717
817.371	28866
817.512	28820
817.653	28736
817.793	28694
817.934	28831
818.075	28949
818.216	28653
818.356	28736
818.497	28725
818.638	28698
818.778	28405
818.919	28519
819.06	28790
819.2	28615
819.341	28740
819.481	28736
819.622	28942
819.762	29208
819.903	28953
820.043	29010
820.184	28965
820.324	28831
820.465	29155
820.605	28972
820.746	28927
820.886	28721
821.026	28938
821.167	28927
821.307	28995
821.447	28839
821.588	28786
821.728	28493
821.868	28344
822.008	28226
822.149	28265
822.289	28360
822.429	28010
822.569	27880
822.709	28017
822.849	27842
822.99	27797
823.13	27789
823.27	27610
823.41	27576
823.55	27633
823.69	27675
823.83	27720
823.97	27557
824.11	27340
824.25	27359
824.389	27370
824.529	27504
824.669	27481
824.809	27534
824.949	27561
825.089	27507
825.228	27538
825.368	27230
825.508	27382
825.648	27447
825.787	27374
825.927	27439
826.067	27287
826.206	27336
826.346	27317
826.485	27367
826.625	27321
826.765	27500
826.904	27469
827.044	27100
827.183	27264
827.323	27104
827.462	27245
827.601	27188
827.741	27032
827.88	27039
828.02	26979
828.159	26986
828.298	27036
828.437	27199
828.577	26914
828.716	27116
828.855	26937
828.994	26864
829.134	26648
829.273	26762
829.412	26701
829.551	26629
829.69	26731
829.829	26773
829.968	26781
830.107	26819
830.246	26796
830.385	26678
830.524	26598
830.663	26514
830.802	26541
830.941	26332
831.08	26202
831.219	26545
831.357	26575
831.496	26583
831.635	26370
831.774	26290
831.913	26244
832.051	26134
832.19	26248
832.329	26054
832.467	26031
832.606	26020
832.744	25966
832.883	26035
833.022	25989
833.16	26073
833.299	26191
833.437	26050
833.576	26058
833.714	26092
833.852	26191
833.991	26039
834.129	26252
834.267	26149
834.406	26073
834.544	26024
834.682	26020
834.821	26031
834.959	26191
835.097	25963
835.235	26084
835.373	26001
835.511	26050
835.65	25833
835.788	25841
835.926	25689
836.064	25742
836.202	25704
836.34	26020
836.478	25913
836.615	25909
836.753	25978
836.891	25822
837.029	25974
837.167	25788
837.305	25734
837.443	25761
837.58	25715
837.718	25795
837.856	25689
837.993	25700
838.131	25784
838.269	25712
838.406	25518
838.544	25479
838.681	25335
838.819	25274
838.956	25171
839.094	25225
839.231	25244
839.369	25285
839.506	25575
839.643	25381
839.781	25168
839.918	25084
840.055	25099
840.193	25133
840.33	25114
840.467	24962
840.604	25095
840.742	25381
840.879	24924
841.016	25015
841.153	25023
841.29	25183
841.427	25053
841.564	25179
841.701	25050
841.838	25099
841.975	25004
842.112	24996
842.249	24859
842.385	24738
842.522	25050
842.659	24863
842.796	24897
842.933	24749
843.069	24749
843.206	24802
843.343	24856
843.479	24730
843.616	24806
843.752	24563
843.889	24631
844.025	24779
844.162	24585
844.298	24806
844.435	24635
844.571	24604
844.708	24601
844.844	24795
844.98	24696
845.117	24734
845.253	24642
845.389	24471
845.525	24418
845.661	24494
845.798	24471
845.934	24281
846.07	24315
846.206	24361
846.342	24441
846.478	24270
846.614	24018
846.75	23984
846.886	23969
847.022	24091
847.158	24053
847.294	24064
847.429	24091
847.565	24022
847.701	24308
847.837	23748
847.972	23786
848.108	23882
848.244	23840
848.379	23619
848.515	23592
848.65	23604
848.786	23638
848.921	23756
849.057	23805
849.192	23714
849.328	23642
849.463	23478
849.598	23577
849.734	23452
849.869	23429
850.004	23452
850.14	23345
850.275	23349
850.41	23189
850.545	23334
850.68	23360
850.815	23387
850.95	23337
851.085	23638
851.22	23604
851.355	23448
851.49	23368
851.625	23292
851.76	23280
851.895	23284
852.03	23303
852.165	23265
852.299	23398
852.434	23364
852.569	23395
852.703	23360
852.838	23345
852.973	23512
853.107	23512
853.242	23235
853.376	23162
853.511	23197
853.645	23060
853.78	23406
853.914	23261
854.048	23162
854.183	23147
854.317	23284
854.451	23345
854.585	23124
854.72	23216
854.854	23155
854.988	23174
855.122	23200
855.256	23010
855.39	23041
855.524	23258
855.658	23277
855.792	23231
855.926	23117
856.06	23223
856.194	23170
856.327	23227
856.461	23094
856.595	23155
856.729	23140
856.862	23277
856.996	23181
857.13	23254
857.263	23379
857.397	23391
857.53	23193
857.664	23204
857.797	23170
857.931	23258
858.064	23239
858.197	23402
858.331	23098
858.464	23220
858.597	23048
858.731	23204
858.864	23178
858.997	23098
859.13	23189
859.263	23197
859.396	23356
859.529	23326
859.662	23197
859.795	23121
859.928	23079
860.061	23288
860.194	23467
860.327	23075
860.46	23140
860.592	23311
860.725	23341
860.858	23181
860.99	23231
861.123	23094
861.256	22946
861.388	23140
861.521	23866
861.653	22968
861.786	22919
861.918	23033
862.05	23159
862.183	23006
862.315	23086
862.447	23086
862.58	23041
862.712	22904
862.844	22934
862.976	22908
863.108	22949
863.24	23322
863.372	22759
863.504	22866
863.636	22847
863.768	22904
863.9	22869
864.032	22862
864.164	22839
864.296	22790
864.428	23056
864.559	22873
864.691	23018
864.823	22953
864.954	22850
865.086	22839
865.217	22820
865.349	22736
865.48	22641
865.612	22767
865.743	22961
865.875	22687
866.006	22683
866.137	22759
866.269	22740
866.4	22763
866.531	22668
866.662	22622
866.793	22713
866.924	22615
867.055	22660
867.186	22740
867.317	22637
867.448	22588
867.579	22649
867.71	22588
867.841	22618
867.972	22713
868.103	22691
868.233	22596
868.364	22771
868.495	22866
868.625	22847
868.756	23018
868.886	22972
869.017	22816
869.147	22999
869.278	23056
869.408	22892
869.539	22930
869.669	23022
869.799	22999
869.929	23162
870.06	23079
870.19	23280
870.32	23185
870.45	23265
870.58	23334
870.71	23337
870.84	23220
870.97	23315
871.1	23410
871.23	23497
871.36	23353
871.489	23376
871.619	23398
871.749	23600
871.879	23493
872.008	23573
872.138	23611
872.267	23623
872.397	23299
872.526	23303
872.656	23296
872.785	23372
872.915	23566
873.044	23547
873.173	23547
873.303	23680
873.432	23551
873.561	23676
873.69	23543
873.819	23627
873.948	23619
874.077	23528
874.206	23501
874.335	23516
874.464	23608
874.593	23722
874.722	23611
874.851	23714
874.979	23718
875.108	23817
875.237	23638
875.365	23714
875.494	23657
875.623	23904
875.751	23722
875.88	23737
876.008	23916
876.136	23935
876.265	24140
876.393	24266
876.521	24194
876.65	24220
876.778	24110
876.906	24068
877.034	24129
877.162	24216
877.29	24060
877.418	24110
877.546	24003
877.674	24171
877.802	24117
877.93	24076
878.058	23977
878.185	23920
878.313	24041
878.441	24011
878.568	23954
878.696	23847
878.824	24129
878.951	24182
879.079	24186
879.206	24410
879.333	24136
879.461	24194
879.588	24114
879.715	24216
879.842	24300
879.97	24068
880.097	23893
880.224	23958
880.351	23999
880.478	23961
880.605	23794
880.732	23965
880.859	24152
880.986	23927
881.112	23840
881.239	23847
881.366	23490
881.493	23490
881.619	23429
881.746	23467
881.872	23414
881.999	23299
882.125	23383
882.252	23448
882.378	23299
882.505	23501
882.631	23170
882.757	23117
882.883	23235
883.01	23132
883.136	22965
883.262	22999
883.388	22919
883.514	23132
883.64	23033
883.766	23090
883.892	22919
884.018	22885
884.143	23056
884.269	23079
884.395	22744
884.52	22630
884.646	22862
884.772	22679
884.897	22630
885.023	22729
885.148	22759
885.274	22885
885.399	22812
885.524	22637
885.65	22721
885.775	22630
885.9	22790
886.025	22736
886.15	22774
886.275	22630
886.4	22691
886.525	22675
886.65	22744
886.775	22721
886.9	22744
887.025	22942
887.149	22729
887.274	22447
887.399	22592
887.523	22478
887.648	22382
887.773	22421
887.897	22656
888.021	22504
888.146	22390
888.27	22523
888.395	22649
888.519	22565
888.643	22580
888.767	22565
888.891	22447
889.015	22318
889.139	22306
889.263	22139
889.387	22333
889.511	22455
889.635	22284
889.759	22333
889.883	22280
890.006	22333
890.13	22329
890.254	22253
890.377	22295
890.501	22101
890.624	21964
890.748	22044
890.871	21880
890.995	21789
891.118	21831
891.241	21899
891.364	21819
891.488	21880
891.611	21804
891.734	21888
891.857	21895
891.98	21907
892.103	21911
892.226	21865
892.349	21823
892.471	21606
892.594	21720
892.717	21736
892.839	21660
892.962	21656
893.085	21835
893.207	21698
893.33	21591
893.452	21671
893.575	21774
893.697	21739
893.819	21846
893.941	21854
894.064	21800
894.186	21751
894.308	21671
894.43	21804
894.552	21880
894.674	21835
894.796	21724
894.918	21743
895.04	21720
895.161	21766
895.283	21701
895.405	21492
895.526	21698
895.648	21599
895.769	21656
895.891	21857
896.012	21823
896.134	21778
896.255	21629
896.376	21587
896.498	21713
896.619	21747
896.74	21690
896.861	21759
896.982	22017
897.103	22006
897.224	21865
897.345	21918
897.466	21846
897.587	21774
897.708	21953
897.828	21941
897.949	21759
898.07	21694
898.19	21804
898.311	22002
898.431	21857
898.552	21831
898.672	21911
898.792	21880
898.913	21759
899.033	21671
899.153	21728
899.273	21629
899.393	21637
899.513	21614
899.633	21637
899.753	21587
899.873	21420
899.993	21660
900.113	21477
900.232	21595
900.352	21454
900.472	21435
900.591	21340
900.711	21462
900.83	21252
900.95	21485
901.069	21386
901.189	21310
901.308	20952
901.427	20895
901.546	20948
901.665	20845
901.784	20914
901.904	20838
902.023	20651
902.141	20511
902.26	20473
902.379	20495
902.498	20450
902.617	20305
902.735	20518
902.854	20301
902.973	20374
903.091	20111
903.21	20073
903.328	20046
903.446	20005
903.565	19818
903.683	19864
903.801	19765
903.919	19852
904.038	19811
904.156	19738
904.274	19662
904.392	19586
904.51	19518
904.627	19559
904.745	19651
904.863	19628
904.981	19388
905.098	19335
905.216	19301
905.334	19369
905.451	19263
905.569	19213
905.686	19285
905.803	19255
905.921	19034
906.038	19145
906.155	19027
906.272	19019
906.389	18966
906.506	18821
906.623	18817
906.74	18821
906.857	18696
906.974	18821
907.091	18837
907.208	18973
907.324	18753
907.441	18764
907.557	18460
907.674	18414
907.79	18448
907.907	18426
908.023	18547
908.139	18490
908.256	18502
908.372	18403
908.488	18311
908.604	18300
908.72	18102
908.836	18152
908.952	18197
909.068	18289
909.184	18372
909.3	18209
909.415	18110
909.531	18182
909.647	17958
909.762	17916
909.878	17851
909.993	17885
910.108	17832
910.224	17885
910.339	17893
910.454	17866
910.57	17745
910.685	17680
910.8	17889
910.915	17809
911.03	17752
911.145	17512
911.259	17433
911.374	17410
911.489	17383
911.604	17239
911.718	17231
911.833	17254
911.947	17151
912.062	17048
912.176	17185
912.291	17197
912.405	17235
912.519	17398
912.633	17330
912.748	17216
912.862	17075
912.976	17014
913.09	16839
913.204	16892
913.318	16938
913.431	17166
913.545	17094
913.659	17083
913.772	16881
913.886	16805
914	16721
914.113	16938
914.226	16828
914.34	16896
914.453	16733
914.566	16805
914.68	16675
914.793	16634
914.906	16508
915.019	16314
915.132	16230
915.245	16382
915.358	16341
915.47	16428
915.583	16272
915.696	16474
915.809	16538
915.921	16443
916.034	16344
916.146	16200
916.259	16188
916.371	16329
916.483	16284
916.595	16215
916.708	16188
916.82	16120
916.932	16147
917.044	16200
917.156	16048
917.268	15930
917.38	15968
917.491	15979
917.603	16032
917.715	15979
917.826	16078
917.938	15968
918.049	15778
918.161	15861
918.272	16017
918.384	15975
918.495	15755
918.606	15720
918.717	15606
918.828	15736
918.939	15762
919.05	15633
919.161	15690
919.272	15447
919.383	15584
919.494	15736
919.604	15823
919.715	15671
919.826	15481
919.936	15603
920.047	15652
920.157	15606
920.267	15751
920.378	15637
920.488	15564
920.598	15781
920.708	15907
920.818	15717
920.928	15739
921.038	15854
921.148	15846
921.258	15519
921.368	15526
921.477	15336
921.587	15313
921.697	15241
921.806	15291
921.916	15199
922.025	15089
922.134	15043
922.244	14880
922.353	15013
922.462	14910
922.571	14868
922.68	14583
922.789	14636
922.898	14579
923.007	14632
923.116	14629
923.224	14545
923.333	14571
923.442	14518
923.55	14431
923.659	14518
923.767	14484
923.876	14415
923.984	14537
924.092	14263
924.201	14438
924.309	14271
924.417	14324
924.525	14237
924.633	14301
924.741	15165
924.849	13978
924.956	14233
925.064	14062
925.172	13837
925.279	13868
925.387	13967
925.494	13921
925.602	14031
925.709	13944
925.816	13811
925.924	13811
926.031	13993
926.138	13909
926.245	13871
926.352	13814
926.459	13925
926.566	13925
926.673	13708
926.779	13700
926.886	13613
926.993	13552
927.099	13559
927.206	13430
927.312	13438
927.419	13586
927.525	13476
927.631	13430
927.737	13346
927.843	13327
927.95	13225
928.056	13293
928.162	13339
928.267	13362
928.373	14008
928.479	13358
928.585	13141
928.69	13240
928.796	13327
928.901	13133
929.007	12894
929.112	13076
929.218	13133
929.323	13038
929.428	12993
929.533	13160
929.638	12947
929.743	12924
929.848	13004
929.953	12844
930.058	12764
930.163	12669
930.267	12688
930.372	12825
930.477	12578
930.581	12776
930.685	12692
930.79	12585
930.894	12547
930.998	12422
931.103	12642
931.207	12270
931.311	12197
931.415	12224
931.519	11927
931.623	11824
