Data from test_V78500241_1413.txt Node
Date: Fri Mar 25 15:51:35 CST 2022
User: usil
Spectrometer: V785-0024
Trigger mode: 0
Integration Time (sec): 4.000000E-1
Scans to average: 1
Nonlinearity correction enabled: false
Boxcar width: 0
Storing dark spectrum: false
XAxis mode: Wavelengths
Number of Pixels in Spectrum: 1024
>>>>>Begin Spectral Data<<<<<
801.071	28333
801.214	28063
801.356	27911
801.499	27846
801.641	27720
801.783	27652
801.926	27778
802.068	27720
802.211	27599
802.353	27614
802.496	27572
802.638	27348
802.78	27359
802.923	27325
803.065	27359
803.208	27500
803.35	27427
803.492	27504
803.635	27618
803.777	27485
803.919	27595
804.061	27953
804.204	27622
804.346	27557
804.488	27606
804.63	27660
804.773	27564
804.915	27698
805.057	27800
805.199	27587
805.341	27728
805.483	27827
805.626	27816
805.768	27728
805.91	27880
806.052	27918
806.194	27701
806.336	27846
806.478	27671
806.62	27789
806.762	27827
806.904	27937
807.046	28261
807.188	28299
807.33	28291
807.472	28272
807.614	28158
807.756	28253
807.898	28063
808.04	28032
808.182	27899
808.324	28074
808.465	28257
808.607	28360
808.749	28481
808.891	28622
809.033	28634
809.174	28523
809.316	28504
809.458	28352
809.6	28394
809.741	28508
809.883	28557
810.025	28740
810.166	28675
810.308	28710
810.45	28618
810.591	28736
810.733	28462
810.875	28443
811.016	28485
811.158	28337
811.299	28565
811.441	28561
811.582	28607
811.724	28455
811.865	28352
812.007	28379
812.148	28436
812.29	28424
812.431	28637
812.573	28721
812.714	28850
812.855	29025
812.997	29022
813.138	29094
813.279	29037
813.421	28946
813.562	29010
813.703	28759
813.845	28801
813.986	28424
814.127	28207
814.268	28188
814.41	28223
814.551	28109
814.692	28169
814.833	27998
814.974	28150
815.115	28097
815.256	28128
815.397	27972
815.539	28131
815.68	28006
815.821	27914
815.962	27903
816.103	28002
816.244	27785
816.385	27747
816.526	27637
816.666	27545
816.807	27397
816.948	27511
817.089	27511
817.23	27378
817.371	27378
817.512	27507
817.653	27321
817.793	27294
817.934	27561
818.075	27378
818.216	27348
818.356	27416
818.497	27203
818.638	27100
818.778	27230
818.919	27138
819.06	27195
819.2	27222
819.341	27382
819.481	27374
819.622	27614
819.762	27675
819.903	27698
820.043	27492
820.184	27462
820.324	27587
820.465	27610
820.605	27481
820.746	27450
820.886	27332
821.026	27545
821.167	27458
821.307	27557
821.447	27458
821.588	27443
821.728	27237
821.868	27131
822.008	26845
822.149	26967
822.289	26845
822.429	26571
822.569	26682
822.709	26511
822.849	26480
822.99	26324
823.13	26320
823.27	26419
823.41	26313
823.55	26069
823.69	26244
823.83	26221
823.97	26240
824.11	26073
824.25	26035
824.389	25974
824.529	26081
824.669	26221
824.809	26168
824.949	26183
825.089	26084
825.228	26107
825.368	25902
825.508	25795
825.648	25909
825.787	25959
825.927	25925
826.067	25944
826.206	25917
826.346	25966
826.485	25940
826.625	25856
826.765	25864
826.904	25814
827.044	25780
827.183	25670
827.323	25674
827.462	25719
827.601	25666
827.741	25552
827.88	25681
828.02	25491
828.159	25571
828.298	25704
828.437	25738
828.577	25559
828.716	25715
828.855	25487
828.994	25324
829.134	25457
829.273	25358
829.412	25270
829.551	25145
829.69	25369
829.829	25327
829.968	25346
830.107	25430
830.246	25350
830.385	25209
830.524	25209
830.663	25122
830.802	24783
830.941	24928
831.08	24859
831.219	25000
831.357	25012
831.496	25225
831.635	24913
831.774	24859
831.913	24802
832.051	24681
832.19	24627
832.329	24726
832.467	24696
832.606	24616
832.744	24646
832.883	24528
833.022	24547
833.16	24513
833.299	24555
833.437	24623
833.576	24669
833.714	24551
833.852	24692
833.991	24658
834.129	24688
834.267	24681
834.406	24563
834.544	24745
834.682	24745
834.821	24688
834.959	24749
835.097	24658
835.235	24814
835.373	24661
835.511	24532
835.65	24361
835.788	24502
835.926	24365
836.064	24247
836.202	24437
836.34	24486
836.478	24551
836.615	24357
836.753	24403
836.891	24513
837.029	24410
837.167	24342
837.305	24433
837.443	24209
837.58	24330
837.718	24391
837.856	24300
837.993	24380
838.131	24285
838.269	24243
838.406	24201
838.544	24060
838.681	23942
838.819	23931
838.956	23805
839.094	23878
839.231	23726
839.369	24018
839.506	24243
839.643	24072
839.781	23805
839.918	23661
840.055	23676
840.193	23756
840.33	23703
840.467	23790
840.604	23783
840.742	23958
840.879	23570
841.016	23604
841.153	23611
841.29	23786
841.427	23668
841.564	23687
841.701	23634
841.838	23608
841.975	23668
842.112	23600
842.249	23398
842.385	23509
842.522	23634
842.659	23570
842.796	23505
842.933	23398
843.069	23490
843.206	23353
843.343	23410
843.479	23493
843.616	23448
843.752	23197
843.889	23102
844.025	23296
844.162	23204
844.298	23364
844.435	23303
844.571	23147
844.708	23303
844.844	23410
844.98	23539
845.117	23242
845.253	23079
845.389	23121
845.525	23159
845.661	23109
845.798	23033
845.934	23010
846.07	22892
846.206	22900
846.342	23014
846.478	22984
846.614	22793
846.75	22607
846.886	22622
847.022	22740
847.158	22664
847.294	22656
847.429	22816
847.565	22622
847.701	22927
847.837	22337
847.972	22489
848.108	22550
848.244	22459
848.379	22173
848.515	22200
848.65	22158
848.786	22337
848.921	22242
849.057	22333
849.192	22314
849.328	22234
849.463	22249
849.598	22200
849.734	22135
849.869	22086
850.004	22021
850.14	22093
850.275	22162
850.41	21895
850.545	22109
850.68	22139
850.815	22185
850.95	22025
851.085	22158
851.22	22150
851.355	22074
851.49	21968
851.625	21979
851.76	21915
851.895	21975
852.03	21892
852.165	22082
852.299	22059
852.434	22010
852.569	22059
852.703	21998
852.838	22166
852.973	22192
853.107	22147
853.242	21934
853.376	21915
853.511	21804
853.645	21838
853.78	22002
853.914	21869
854.048	21846
854.183	21755
854.317	21964
854.451	22097
854.585	21846
854.72	21701
854.854	21854
854.988	21751
855.122	21728
855.256	21667
855.39	21888
855.524	21880
855.658	22002
855.792	21842
855.926	21983
856.06	21979
856.194	22032
856.327	22036
856.461	21770
856.595	21831
856.729	21846
856.862	21945
856.996	21865
857.13	21895
857.263	22101
857.397	22051
857.53	21854
857.664	21998
857.797	22074
857.931	21842
858.064	21934
858.197	22036
858.331	21846
858.464	21857
858.597	21892
858.731	21838
858.864	21770
858.997	21778
859.13	21861
859.263	21819
859.396	22044
859.529	21827
859.662	21827
859.795	21808
859.928	21979
860.061	22048
860.194	22059
860.327	21934
860.46	21926
860.592	22093
860.725	22006
860.858	22078
860.99	21907
861.123	21804
861.256	21823
861.388	21778
861.521	22546
861.653	21903
861.786	21610
861.918	21682
862.05	21785
862.183	21816
862.315	21736
862.447	21800
862.58	21854
862.712	21603
862.844	21519
862.976	21701
863.108	21561
863.24	22040
863.372	21488
863.504	21603
863.636	21583
863.768	21599
863.9	21538
864.032	21599
864.164	21515
864.296	21580
864.428	21606
864.559	21724
864.691	21614
864.823	21606
864.954	21545
865.086	21698
865.217	21583
865.349	21477
865.48	21492
865.612	21504
865.743	21648
865.875	21519
866.006	21538
866.137	21675
866.269	21473
866.4	21576
866.531	21382
866.662	21389
866.793	21458
866.924	21428
867.055	21462
867.186	21485
867.317	21348
867.448	21306
867.579	21408
867.71	21435
867.841	21340
867.972	21416
868.103	21351
868.233	21355
868.364	21447
868.495	21526
868.625	21648
868.756	21698
868.886	21488
869.017	21633
869.147	21739
869.278	21857
869.408	21618
869.539	21622
869.669	21690
869.799	21698
869.929	21854
870.06	21739
870.19	21918
870.32	22006
870.45	22013
870.58	22013
870.71	22150
870.84	22067
870.97	22112
871.1	22086
871.23	22249
871.36	22276
871.489	22158
871.619	22276
871.749	22325
871.879	22367
872.008	22291
872.138	22150
872.267	22204
872.397	22173
872.526	21987
872.656	22230
872.785	22070
872.915	22238
873.044	22440
873.173	22246
873.303	22299
873.432	22386
873.561	22447
873.69	22276
873.819	22177
873.948	22398
874.077	22337
874.206	22337
874.335	22303
874.464	22402
874.593	22565
874.722	22497
874.851	22519
874.979	22546
875.108	22497
875.237	22409
875.365	22382
875.494	22466
875.623	22573
875.751	22375
875.88	22428
876.008	22729
876.136	22744
876.265	22850
876.393	23064
876.521	22980
876.65	22881
876.778	22911
876.906	22873
877.034	22618
877.162	22801
877.29	22713
877.418	22831
877.546	22904
877.674	22908
877.802	22805
877.93	22862
878.058	22930
878.185	22767
878.313	22778
878.441	22790
878.568	22717
878.696	22919
878.824	22965
878.951	22976
879.079	23052
879.206	23208
879.333	23052
879.461	22763
879.588	22934
879.715	22987
879.842	23048
879.97	22885
880.097	22710
880.224	22713
880.351	22778
880.478	22618
880.605	22527
880.732	22706
880.859	22892
880.986	22733
881.112	22683
881.239	22531
881.366	22360
881.493	22413
881.619	22242
881.746	22284
881.872	22051
881.999	22276
882.125	22166
882.252	22242
882.378	22173
882.505	22402
882.631	22109
882.757	21918
882.883	22082
883.01	21953
883.136	21911
883.262	21827
883.388	21694
883.514	21998
883.64	21888
883.766	21831
883.892	21667
884.018	21686
884.143	21835
884.269	22021
884.395	21648
884.52	21473
884.646	21572
884.772	21557
884.897	21530
885.023	21367
885.148	21682
885.274	21747
885.399	21561
885.524	21572
885.65	21622
885.775	21583
885.9	21663
886.025	21603
886.15	21549
886.275	21568
886.4	21454
886.525	21564
886.65	21481
886.775	21443
886.9	21481
887.025	21743
887.149	21477
887.274	21340
887.399	21291
887.523	21256
887.648	21287
887.773	21150
887.897	21344
888.021	21420
888.146	21249
888.27	21420
888.395	21363
888.519	21355
888.643	21355
888.767	21302
888.891	21192
889.015	21093
889.139	21252
889.263	21017
889.387	21268
889.511	21405
889.635	21283
889.759	20956
889.883	21100
890.006	21192
890.13	21268
890.254	21070
890.377	21047
890.501	20876
890.624	20720
890.748	20887
890.871	20857
890.995	20682
891.118	20674
891.241	20674
891.364	20598
891.488	20807
891.611	20712
891.734	20682
891.857	20754
891.98	20674
892.103	20663
892.226	20617
892.349	20602
892.471	20492
892.594	20693
892.717	20697
892.839	20545
892.962	20598
893.085	20545
893.207	20609
893.33	20541
893.452	20495
893.575	20648
893.697	20492
893.819	20697
893.941	20667
894.064	20606
894.186	20522
894.308	20609
894.43	20606
894.552	20777
894.674	20705
894.796	20507
894.918	20503
895.04	20537
895.161	20682
895.283	20663
895.405	20495
895.526	20446
895.648	20518
895.769	20549
895.891	20583
896.012	20560
896.134	20533
896.255	20537
896.376	20518
896.498	20514
896.619	20598
896.74	20621
896.861	20625
896.982	20838
897.103	20986
897.224	20944
897.345	20800
897.466	20796
897.587	20689
897.708	20982
897.828	20834
897.949	20720
898.07	20530
898.19	20594
898.311	20800
898.431	20796
898.552	20864
898.672	20899
898.792	20811
898.913	20655
899.033	20659
899.153	20579
899.273	20454
899.393	20526
899.513	20408
899.633	20431
899.753	20609
899.873	20415
899.993	20446
900.113	20454
900.232	20469
900.352	20427
900.472	20336
900.591	20256
900.711	20294
900.83	20187
900.95	20385
901.069	20404
901.189	20050
901.308	19909
901.427	19864
901.546	19887
901.665	19799
901.784	19830
901.904	19803
902.023	19647
902.141	19441
902.26	19434
902.379	19491
902.498	19304
902.617	19327
902.735	19453
902.854	19362
902.973	19316
903.091	19057
903.21	19042
903.328	18977
903.446	19000
903.565	18772
903.683	18897
903.801	18665
903.919	18703
904.038	18772
904.156	18688
904.274	18566
904.392	18570
904.51	18620
904.627	18532
904.745	18669
904.863	18563
904.981	18479
905.098	18357
905.216	18277
905.334	18258
905.451	18289
905.569	18213
905.686	18220
905.803	18296
905.921	18144
906.038	18125
906.155	18079
906.272	17935
906.389	17984
906.506	17935
906.623	17779
906.74	17718
906.857	17661
906.974	17665
907.091	17863
907.208	17786
907.324	17764
907.441	17657
907.557	17551
907.674	17558
907.79	17436
907.907	17414
908.023	17486
908.139	17425
908.256	17486
908.372	17402
908.488	17299
908.604	17246
908.72	17231
908.836	17151
908.952	17124
909.068	17181
909.184	17326
909.3	17235
909.415	17223
909.531	17208
909.647	16995
909.762	16915
909.878	17079
909.993	16923
910.108	16904
910.224	16873
910.339	16801
910.454	16831
910.57	16691
910.685	16653
910.8	16984
910.915	16839
911.03	16736
911.145	16580
911.259	16478
911.374	16470
911.489	16360
911.604	16489
911.718	16306
911.833	16261
911.947	16192
912.062	16139
912.176	16287
912.291	16219
912.405	16268
912.519	16497
912.633	16390
912.748	16310
912.862	16135
912.976	16158
913.09	16006
913.204	16032
913.318	16036
913.431	16188
913.545	16128
913.659	16162
913.772	16010
913.886	15823
914	15808
914.113	15956
914.226	15918
914.34	15911
914.453	15679
914.566	15808
914.68	15694
914.793	15709
914.906	15454
915.019	15496
915.132	15454
915.245	15397
915.358	15374
915.47	15401
915.583	15458
915.696	15511
915.809	15511
915.921	15492
916.034	15310
916.146	15336
916.259	15363
916.371	15443
916.483	15401
916.595	15351
916.708	15275
916.82	15287
916.932	15230
917.044	15256
917.156	15176
917.268	15070
917.38	15100
917.491	15161
917.603	15058
917.715	15161
917.826	15119
917.938	15081
918.049	14963
918.161	15051
918.272	15108
918.384	15203
918.495	15104
918.606	14933
918.717	14758
918.828	14853
918.939	14807
919.05	14765
919.161	14815
919.272	14777
919.383	14712
919.494	14823
919.604	15020
919.715	14895
919.826	14678
919.936	14868
920.047	14853
920.157	14743
920.267	14948
920.378	14792
920.488	14697
920.598	14982
920.708	15165
920.818	14937
920.928	14861
921.038	14963
921.148	15005
921.258	14769
921.368	14629
921.477	14564
921.587	14549
921.697	14488
921.806	14511
921.916	14298
922.025	14259
922.134	14180
922.244	14039
922.353	14206
922.462	14020
922.571	14016
922.68	13902
922.789	13822
922.898	13757
923.007	13742
923.116	13765
923.224	13788
923.333	13822
923.442	13605
923.55	13658
923.659	13693
923.767	13765
923.876	13540
923.984	13666
924.092	13499
924.201	13487
924.309	13571
924.417	13537
924.525	13476
924.633	13460
924.741	14149
924.849	13331
924.956	13441
925.064	13221
925.172	13091
925.279	13244
925.387	13274
925.494	13198
925.602	13308
925.709	13274
925.816	13126
925.924	13118
926.031	13152
926.138	13190
926.245	13187
926.352	13000
926.459	13175
926.566	13266
926.673	13046
926.779	12928
926.886	13012
926.993	12787
927.099	12776
927.206	12711
927.312	12700
927.419	12719
927.525	12669
927.631	12814
927.737	12665
927.843	12547
927.95	12456
928.056	12483
928.162	12582
928.267	12635
928.373	13282
928.479	12631
928.585	12433
928.69	12551
928.796	12566
928.901	12456
929.007	12327
929.112	12357
929.218	12410
929.323	12353
929.428	12190
929.533	12475
929.638	12289
929.743	12178
929.848	12311
929.953	12228
930.058	12182
930.163	11999
930.267	12007
930.372	12148
930.477	11965
930.581	12239
930.685	11996
930.79	11813
930.894	11908
930.998	11840
931.103	11931
931.207	11672
931.311	11532
931.415	11398
931.519	11315
931.623	11307
