Data from test_V78500241_1517.txt Node
Date: Fri Mar 25 15:52:18 CST 2022
User: usil
Spectrometer: V785-0024
Trigger mode: 0
Integration Time (sec): 4.000000E-1
Scans to average: 1
Nonlinearity correction enabled: false
Boxcar width: 0
Storing dark spectrum: false
XAxis mode: Wavelengths
Number of Pixels in Spectrum: 1024
>>>>>Begin Spectral Data<<<<<
801.071	28032
801.214	27964
801.356	27603
801.499	27854
801.641	27568
801.783	27511
801.926	27606
802.068	27641
802.211	27481
802.353	27473
802.496	27435
802.638	27412
802.78	27370
802.923	27424
803.065	27249
803.208	27203
803.35	27306
803.492	27408
803.635	27488
803.777	27317
803.919	27500
804.061	27736
804.204	27644
804.346	27485
804.488	27363
804.63	27485
804.773	27466
804.915	27523
805.057	27595
805.199	27466
805.341	27633
805.483	27576
805.626	27614
805.768	27599
805.91	27595
806.052	27614
806.194	27447
806.336	27800
806.478	27656
806.62	27778
806.762	27816
806.904	27899
807.046	28135
807.188	28082
807.33	28021
807.472	28078
807.614	27895
807.756	28036
807.898	27972
808.04	27922
808.182	27922
808.324	27998
808.465	27880
808.607	28154
808.749	28322
808.891	28329
809.033	28390
809.174	28390
809.316	28322
809.458	28413
809.6	28154
809.741	28443
809.883	28478
810.025	28577
810.166	28626
810.308	28577
810.45	28611
810.591	28561
810.733	28363
810.875	28204
811.016	28204
811.158	28158
811.299	28443
811.441	28367
811.582	28455
811.724	28401
811.865	28200
812.007	28478
812.148	28367
812.29	28219
812.431	28443
812.573	28683
812.714	28953
812.855	28717
812.997	28904
813.138	29075
813.279	28820
813.421	28748
813.562	28725
813.703	28554
813.845	28401
813.986	28318
814.127	28051
814.268	27918
814.41	27991
814.551	27922
814.692	28048
814.833	28013
814.974	27991
815.115	27945
815.256	27895
815.397	27949
815.539	27778
815.68	27838
815.821	27755
815.962	27854
816.103	27705
816.244	27671
816.385	27564
816.526	27542
816.666	27401
816.807	27298
816.948	27386
817.089	27279
817.23	27245
817.371	27252
817.512	27393
817.653	27340
817.793	27218
817.934	27302
818.075	27233
818.216	27241
818.356	27214
818.497	27089
818.638	27047
818.778	26967
818.919	27093
819.06	27005
819.2	27066
819.341	27317
819.481	27355
819.622	27572
819.762	27591
819.903	27454
820.043	27454
820.184	27294
820.324	27405
820.465	27473
820.605	27500
820.746	27485
820.886	27169
821.026	27435
821.167	27405
821.307	27443
821.447	27348
821.588	27096
821.728	26948
821.868	26819
822.008	26735
822.149	26785
822.289	26804
822.429	26552
822.569	26374
822.709	26415
822.849	26122
822.99	26374
823.13	26130
823.27	26267
823.41	26183
823.55	25974
823.69	26084
823.83	26092
823.97	25947
824.11	25906
824.25	25833
824.389	25833
824.529	26069
824.669	25894
824.809	25974
824.949	25925
825.089	26187
825.228	25822
825.368	25753
825.508	25826
825.648	25708
825.787	25852
825.927	25738
826.067	25772
826.206	25803
826.346	25818
826.485	25871
826.625	25727
826.765	25883
826.904	25799
827.044	25472
827.183	25559
827.323	25403
827.462	25529
827.601	25556
827.741	25491
827.88	25567
828.02	25331
828.159	25479
828.298	25491
828.437	25495
828.577	25426
828.716	25658
828.855	25354
828.994	25133
829.134	25152
829.273	25164
829.412	25206
829.551	25099
829.69	25152
829.829	25293
829.968	25293
830.107	25244
830.246	25129
830.385	25080
830.524	25114
830.663	25027
830.802	24992
830.941	24753
831.08	24776
831.219	24943
831.357	24894
831.496	25034
831.635	24764
831.774	24798
831.913	24715
832.051	24623
832.19	24536
832.329	24616
832.467	24391
832.606	24376
832.744	24388
832.883	24414
833.022	24399
833.16	24475
833.299	24513
833.437	24475
833.576	24361
833.714	24464
833.852	24570
833.991	24616
834.129	24532
834.267	24635
834.406	24555
834.544	24673
834.682	24608
834.821	24346
834.959	24806
835.097	24422
835.235	24399
835.373	24437
835.511	24505
835.65	24273
835.788	24323
835.926	24251
836.064	24243
836.202	24247
836.34	24426
836.478	24350
836.615	24410
836.753	24380
836.891	24422
837.029	24376
837.167	24270
837.305	24327
837.443	24152
837.58	24133
837.718	24277
837.856	24235
837.993	24152
838.131	24194
838.269	24030
838.406	23977
838.544	24057
838.681	23786
838.819	23760
838.956	23878
839.094	23653
839.231	23794
839.369	23885
839.506	24095
839.643	23885
839.781	23748
839.918	23608
840.055	23691
840.193	23695
840.33	23486
840.467	23684
840.604	23661
840.742	23828
840.879	23452
841.016	23490
841.153	23524
841.29	23604
841.427	23570
841.564	23615
841.701	23585
841.838	23410
841.975	23444
842.112	23429
842.249	23425
842.385	23376
842.522	23554
842.659	23551
842.796	23277
842.933	23296
843.069	23265
843.206	23178
843.343	23402
843.479	23318
843.616	23258
843.752	23071
843.889	22984
844.025	23212
844.162	23010
844.298	23159
844.435	23159
844.571	23075
844.708	23071
844.844	23292
844.98	23292
845.117	23223
845.253	23033
845.389	22892
845.525	23075
845.661	22847
845.798	22710
845.934	22949
846.07	22812
846.206	22889
846.342	22968
846.478	22748
846.614	22584
846.75	22622
846.886	22584
847.022	22637
847.158	22592
847.294	22615
847.429	22592
847.565	22611
847.701	22710
847.837	22344
847.972	22344
848.108	22413
848.244	22337
848.379	22173
848.515	22211
848.65	22017
848.786	22188
848.921	22207
849.057	22253
849.192	22379
849.328	22097
849.463	22173
849.598	22135
849.734	22105
849.869	22131
850.004	21937
850.14	21930
850.275	21983
850.41	21937
850.545	21869
850.68	21937
850.815	22040
850.95	22010
851.085	22128
851.22	21994
851.355	21915
851.49	21949
851.625	21835
851.76	21956
851.895	21835
852.03	21930
852.165	21884
852.299	21880
852.434	22063
852.569	21888
852.703	21930
852.838	21949
852.973	21991
853.107	22006
853.242	21835
853.376	21778
853.511	21629
853.645	21663
853.78	21854
853.914	21713
854.048	21603
854.183	21698
854.317	21751
854.451	21968
854.585	21797
854.72	21747
854.854	21823
854.988	21743
855.122	21755
855.256	21576
855.39	21698
855.524	21827
855.658	21816
855.792	21720
855.926	21774
856.06	21671
856.194	21785
856.327	21736
856.461	21625
856.595	21671
856.729	21705
856.862	21812
856.996	21804
857.13	21838
857.263	21797
857.397	21842
857.53	21778
857.664	21766
857.797	21812
857.931	21907
858.064	21652
858.197	21838
858.331	21736
858.464	21679
858.597	21500
858.731	21751
858.864	21637
858.997	21861
859.13	21694
859.263	21789
859.396	21732
859.529	21751
859.662	21625
859.795	21705
859.928	21736
860.061	21903
860.194	21953
860.327	21789
860.46	21785
860.592	21797
860.725	21884
860.858	21797
860.99	21751
861.123	21660
861.256	21804
861.388	21838
861.521	22272
861.653	21675
861.786	21610
861.918	21466
862.05	21648
862.183	21713
862.315	21736
862.447	21690
862.58	21652
862.712	21496
862.844	21412
862.976	21564
863.108	21492
863.24	21983
863.372	21397
863.504	21485
863.636	21439
863.768	21450
863.9	21443
864.032	21401
864.164	21340
864.296	21492
864.428	21534
864.559	21519
864.691	21606
864.823	21450
864.954	21424
865.086	21291
865.217	21443
865.349	21332
865.48	21348
865.612	21374
865.743	21454
865.875	21416
866.006	21310
866.137	21272
866.269	21416
866.4	21348
866.531	21302
866.662	21161
866.793	21291
866.924	21351
867.055	21233
867.186	21332
867.317	21332
867.448	21195
867.579	21268
867.71	21119
867.841	21260
867.972	21298
868.103	21275
868.233	21252
868.364	21256
868.495	21348
868.625	21351
868.756	21519
868.886	21523
869.017	21523
869.147	21633
869.278	21526
869.408	21583
869.539	21500
869.669	21629
869.799	21481
869.929	21720
870.06	21591
870.19	21732
870.32	21793
870.45	21892
870.58	21899
870.71	21956
870.84	22078
870.97	21937
871.1	21835
871.23	22048
871.36	22063
871.489	21892
871.619	22150
871.749	22166
871.879	22086
872.008	22158
872.138	22029
872.267	22021
872.397	22010
872.526	21911
872.656	21903
872.785	22078
872.915	22143
873.044	22128
873.173	22070
873.303	22097
873.432	22177
873.561	22287
873.69	22261
873.819	22093
873.948	22192
874.077	21998
874.206	22051
874.335	22070
874.464	22280
874.593	22344
874.722	22322
874.851	22409
874.979	22360
875.108	22527
875.237	22382
875.365	22188
875.494	22295
875.623	22409
875.751	22261
875.88	22367
876.008	22512
876.136	22519
876.265	22713
876.393	22927
876.521	22866
876.65	22771
876.778	22622
876.906	22675
877.034	22740
877.162	22721
877.29	22656
877.418	22656
877.546	22675
877.674	22603
877.802	22596
877.93	22630
878.058	22683
878.185	22470
878.313	22664
878.441	22542
878.568	22550
878.696	22596
878.824	22733
878.951	22691
879.079	22885
879.206	22961
879.333	22904
879.461	22641
879.588	22835
879.715	22805
879.842	22987
879.97	22782
880.097	22557
880.224	22630
880.351	22569
880.478	22588
880.605	22516
880.732	22565
880.859	22710
880.986	22489
881.112	22569
881.239	22402
881.366	22314
881.493	22177
881.619	22067
881.746	22086
881.872	22105
881.999	21934
882.125	21994
882.252	22021
882.378	22105
882.505	22101
882.631	21865
882.757	21717
882.883	21930
883.01	21762
883.136	21751
883.262	21686
883.388	21618
883.514	21842
883.64	21755
883.766	21682
883.892	21606
884.018	21511
884.143	21713
884.269	21785
884.395	21389
884.52	21340
884.646	21462
884.772	21466
884.897	21260
885.023	21439
885.148	21534
885.274	21557
885.399	21458
885.524	21374
885.65	21424
885.775	21553
885.9	21523
886.025	21625
886.15	21519
886.275	21363
886.4	21237
886.525	21344
886.65	21340
886.775	21408
886.9	21466
887.025	21679
887.149	21481
887.274	21127
887.399	21161
887.523	21192
887.648	21161
887.773	21135
887.897	21233
888.021	21348
888.146	21154
888.27	21306
888.395	21405
888.519	21233
888.643	21180
888.767	21081
888.891	21104
889.015	20948
889.139	20925
889.263	20982
889.387	21024
889.511	21074
889.635	20948
889.759	20963
889.883	20925
890.006	21013
890.13	21055
890.254	20834
890.377	21039
890.501	20701
890.624	20655
890.748	20716
890.871	20606
890.995	20549
891.118	20362
891.241	20537
891.364	20446
891.488	20655
891.611	20575
891.734	20530
891.857	20594
891.98	20480
892.103	20549
892.226	20549
892.349	20552
892.471	20301
892.594	20389
892.717	20461
892.839	20454
892.962	20412
893.085	20454
893.207	20488
893.33	20309
893.452	20282
893.575	20419
893.697	20396
893.819	20636
893.941	20659
894.064	20476
894.186	20362
894.308	20396
894.43	20541
894.552	20511
894.674	20495
894.796	20278
894.918	20438
895.04	20465
895.161	20514
895.283	20461
895.405	20351
895.526	20488
895.648	20374
895.769	20564
895.891	20488
896.012	20499
896.134	20358
896.255	20431
896.376	20434
896.498	20480
896.619	20389
896.74	20492
896.861	20434
896.982	20781
897.103	20804
897.224	20739
897.345	20735
897.466	20579
897.587	20663
897.708	20788
897.828	20705
897.949	20621
898.07	20473
898.19	20663
898.311	20701
898.431	20640
898.552	20655
898.672	20697
898.792	20602
898.913	20590
899.033	20537
899.153	20450
899.273	20278
899.393	20343
899.513	20419
899.633	20385
899.753	20317
899.873	20282
899.993	20336
900.113	20377
900.232	20431
900.352	20351
900.472	20305
900.591	20111
900.711	20202
900.83	20111
900.95	20218
901.069	20275
901.189	20031
901.308	19841
901.427	19803
901.546	19696
901.665	19731
901.784	19791
901.904	19605
902.023	19624
902.141	19289
902.26	19297
902.379	19285
902.498	19289
902.617	19190
902.735	19206
902.854	19217
902.973	19133
903.091	18920
903.21	18951
903.328	18939
903.446	18958
903.565	18711
903.683	18795
903.801	18551
903.919	18688
904.038	18574
904.156	18494
904.274	18509
904.392	18486
904.51	18456
904.627	18471
904.745	18536
904.863	18471
904.981	18273
905.098	18133
905.216	18186
905.334	18311
905.451	18163
905.569	18091
905.686	18171
905.803	18155
905.921	17874
906.038	18068
906.155	17942
906.272	17824
906.389	17923
906.506	17691
906.623	17722
906.74	17722
906.857	17532
906.974	17638
907.091	17771
907.208	17817
907.324	17760
907.441	17604
907.557	17436
907.674	17486
907.79	17284
907.907	17402
908.023	17391
908.139	17368
908.256	17345
908.372	17292
908.488	17277
908.604	17098
908.72	17037
908.836	17086
908.952	17075
909.068	17117
909.184	17250
909.3	17124
909.415	17151
909.531	17071
909.647	16835
909.762	16858
909.878	16748
909.993	16892
910.108	16793
910.224	16782
910.339	16733
910.454	16710
910.57	16721
910.685	16569
910.8	16786
910.915	16698
911.03	16660
911.145	16500
911.259	16337
911.374	16382
911.489	16375
911.604	16230
911.718	16147
911.833	16230
911.947	16097
912.062	16067
912.176	16147
912.291	16204
912.405	16116
912.519	16375
912.633	16402
912.748	16177
912.862	16135
912.976	16040
913.09	15873
913.204	15907
913.318	15930
913.431	16010
913.545	16010
913.659	16063
913.772	15911
913.886	15819
914	15660
914.113	15861
914.226	15922
914.34	15854
914.453	15641
914.566	15835
914.68	15599
914.793	15675
914.906	15450
915.019	15279
915.132	15260
915.245	15378
915.358	15386
915.47	15549
915.583	15336
915.696	15393
915.809	15488
915.921	15549
916.034	15351
916.146	15291
916.259	15211
916.371	15306
916.483	15237
916.595	15211
916.708	15127
916.82	15195
916.932	15207
917.044	15138
917.156	15176
917.268	14937
917.38	15024
917.491	14914
917.603	15051
917.715	15066
917.826	15039
917.938	14883
918.049	14902
918.161	14971
918.272	15077
918.384	15032
918.495	15028
918.606	14899
918.717	14674
918.828	14765
918.939	14834
919.05	14648
919.161	14701
919.272	14564
919.383	14655
919.494	14762
919.604	14910
919.715	14788
919.826	14625
919.936	14731
920.047	14815
920.157	14663
920.267	14788
920.378	14754
920.488	14686
920.598	14982
920.708	14948
920.818	14880
920.928	14823
921.038	15036
921.148	14933
921.258	14693
921.368	14659
921.477	14480
921.587	14419
921.697	14336
921.806	14389
921.916	14271
922.025	14111
922.134	14077
922.244	14062
922.353	14119
922.462	14012
922.571	13826
922.68	13765
922.789	13750
922.898	13784
923.007	13693
923.116	13788
923.224	13799
923.333	13674
923.442	13605
923.55	13552
923.659	13613
923.767	13590
923.876	13521
923.984	13632
924.092	13441
924.201	13487
924.309	13381
924.417	13438
924.525	13384
924.633	13411
924.741	14305
924.849	13156
924.956	13335
925.064	13149
925.172	13164
925.279	13145
925.387	13152
925.494	13202
925.602	13293
925.709	13152
925.816	13012
925.924	13114
926.031	13190
926.138	13107
926.245	13152
926.352	12905
926.459	13061
926.566	13126
926.673	13000
926.779	12772
926.886	12798
926.993	12802
927.099	12738
927.206	12688
927.312	12547
927.419	12764
927.525	12726
927.631	12646
927.737	12593
927.843	12494
927.95	12433
928.056	12486
928.162	12566
928.267	12555
928.373	13160
928.479	12585
928.585	12353
928.69	12433
928.796	12475
928.901	12308
929.007	12296
929.112	12365
929.218	12258
929.323	12319
929.428	12251
929.533	12361
929.638	12224
929.743	12186
929.848	12228
929.953	12190
930.058	12079
930.163	11901
930.267	11901
930.372	12079
930.477	11840
930.581	12095
930.685	11885
930.79	11745
930.894	11889
930.998	11824
931.103	11935
931.207	11592
931.311	11421
931.415	11410
931.519	11128
931.623	11136
