Data from test_V78500241_3046.txt Node
Date: Fri Mar 25 16:02:54 CST 2022
User: usil
Spectrometer: V785-0024
Trigger mode: 0
Integration Time (sec): 4.000000E-1
Scans to average: 1
Nonlinearity correction enabled: false
Boxcar width: 0
Storing dark spectrum: false
XAxis mode: Wavelengths
Number of Pixels in Spectrum: 1024
>>>>>Begin Spectral Data<<<<<
801.071	28253
801.214	28135
801.356	27945
801.499	27800
801.641	27774
801.783	27797
801.926	27770
802.068	27717
802.211	27580
802.353	27675
802.496	27431
802.638	27408
802.78	27329
802.923	27237
803.065	27272
803.208	27287
803.35	27439
803.492	27397
803.635	27610
803.777	27618
803.919	27549
804.061	27888
804.204	27637
804.346	27572
804.488	27583
804.63	27500
804.773	27534
804.915	27762
805.057	27720
805.199	27606
805.341	27587
805.483	27819
805.626	27789
805.768	27663
805.91	27705
806.052	27854
806.194	27660
806.336	27934
806.478	27709
806.62	27789
806.762	27831
806.904	28029
807.046	28371
807.188	28223
807.33	28223
807.472	28131
807.614	28200
807.756	28417
807.898	27918
808.04	27968
808.182	27941
808.324	28044
808.465	28074
808.607	28318
808.749	28341
808.891	28485
809.033	28649
809.174	28451
809.316	28596
809.458	28447
809.6	28242
809.741	28577
809.883	28546
810.025	28698
810.166	28592
810.308	28755
810.45	28634
810.591	28516
810.733	28489
810.875	28451
811.016	28367
811.158	28166
811.299	28474
811.441	28592
811.582	28683
811.724	28569
811.865	28401
812.007	28485
812.148	28405
812.29	28523
812.431	28653
812.573	28687
812.714	28888
812.855	28877
812.997	28934
813.138	29147
813.279	29048
813.421	29010
813.562	28706
813.703	28748
813.845	28664
813.986	28371
814.127	28177
814.268	28211
814.41	28215
814.551	28188
814.692	28105
814.833	28124
814.974	27960
815.115	28101
815.256	28010
815.397	27964
815.539	28021
815.68	27945
815.821	27785
815.962	27991
816.103	27960
816.244	27743
816.385	27663
816.526	27641
816.666	27523
816.807	27408
816.948	27447
817.089	27504
817.23	27443
817.371	27355
817.512	27317
817.653	27355
817.793	27351
817.934	27386
818.075	27454
818.216	27397
818.356	27340
818.497	27313
818.638	27207
818.778	27211
818.919	27154
819.06	27230
819.2	27321
819.341	27408
819.481	27359
819.622	27504
819.762	27789
819.903	27739
820.043	27614
820.184	27576
820.324	27420
820.465	27595
820.605	27462
820.746	27450
820.886	27386
821.026	27572
821.167	27477
821.307	27534
821.447	27427
821.588	27325
821.728	27184
821.868	27005
822.008	26804
822.149	26842
822.289	26952
822.429	26667
822.569	26537
822.709	26518
822.849	26556
822.99	26412
823.13	26362
823.27	26431
823.41	26259
823.55	26153
823.69	26210
823.83	26233
823.97	26043
824.11	26054
824.25	25917
824.389	26035
824.529	26233
824.669	26035
824.809	26100
824.949	26183
825.089	26161
825.228	26058
825.368	25887
825.508	25913
825.648	25906
825.787	25974
825.927	25913
826.067	25864
826.206	25879
826.346	26100
826.485	25944
826.625	25944
826.765	25944
826.904	26012
827.044	25753
827.183	25791
827.323	25696
827.462	25719
827.601	25750
827.741	25681
827.88	25605
828.02	25499
828.159	25700
828.298	25670
828.437	25632
828.577	25708
828.716	25666
828.855	25548
828.994	25346
829.134	25232
829.273	25259
829.412	25354
829.551	25297
829.69	25327
829.829	25198
829.968	25426
830.107	25430
830.246	25346
830.385	25255
830.524	25270
830.663	25228
830.802	25015
830.941	24909
831.08	24951
831.219	25107
831.357	25168
831.496	25114
831.635	25012
831.774	24810
831.913	24738
832.051	24726
832.19	24760
832.329	24787
832.467	24604
832.606	24559
832.744	24551
832.883	24696
833.022	24658
833.16	24570
833.299	24757
833.437	24642
833.576	24688
833.714	24738
833.852	24616
833.991	24730
834.129	24757
834.267	24859
834.406	24555
834.544	24783
834.682	24726
834.821	24566
834.959	24806
835.097	24650
835.235	24833
835.373	24688
835.511	24692
835.65	24479
835.788	24555
835.926	24433
836.064	24323
836.202	24224
836.34	24418
836.478	24635
836.615	24570
836.753	24593
836.891	24494
837.029	24540
837.167	24525
837.305	24479
837.443	24296
837.58	24456
837.718	24407
837.856	24391
837.993	24338
838.131	24254
838.269	24152
838.406	24213
838.544	24174
838.681	24026
838.819	23908
838.956	23885
839.094	23661
839.231	23824
839.369	23950
839.506	24171
839.643	24049
839.781	23828
839.918	23726
840.055	23745
840.193	23935
840.33	23707
840.467	23756
840.604	23832
840.742	24022
840.879	23554
841.016	23642
841.153	23630
841.29	23863
841.427	23695
841.564	23649
841.701	23737
841.838	23638
841.975	23611
842.112	23661
842.249	23543
842.385	23471
842.522	23627
842.659	23478
842.796	23364
842.933	23414
843.069	23376
843.206	23509
843.343	23528
843.479	23387
843.616	23539
843.752	23269
843.889	23383
844.025	23311
844.162	23208
844.298	23356
844.435	23269
844.571	23216
844.708	23193
844.844	23349
844.98	23417
845.117	23364
845.253	23223
845.389	23159
845.525	23200
845.661	23109
845.798	23048
845.934	23041
846.07	22965
846.206	23105
846.342	23083
846.478	22911
846.614	22805
846.75	22641
846.886	22729
847.022	22896
847.158	22687
847.294	22809
847.429	22729
847.565	22790
847.701	23014
847.837	22554
847.972	22405
848.108	22611
848.244	22664
848.379	22207
848.515	22284
848.65	22329
848.786	22314
848.921	22314
849.057	22333
849.192	22360
849.328	22379
849.463	22223
849.598	22200
849.734	22185
849.869	22090
850.004	21983
850.14	22051
850.275	22101
850.41	21991
850.545	22048
850.68	22097
850.815	22177
850.95	22055
851.085	22169
851.22	22162
851.355	22055
851.49	22044
851.625	22078
851.76	22055
851.895	21994
852.03	22017
852.165	21953
852.299	22109
852.434	22105
852.569	22181
852.703	22048
852.838	22143
852.973	22181
853.107	22204
853.242	21983
853.376	21850
853.511	21816
853.645	21865
853.78	21983
853.914	21819
854.048	21842
854.183	21781
854.317	21994
854.451	22070
854.585	21949
854.72	21930
854.854	21861
854.988	21781
855.122	21918
855.256	21747
855.39	21975
855.524	21956
855.658	21994
855.792	21869
855.926	21918
856.06	21960
856.194	22036
856.327	21857
856.461	21831
856.595	21842
856.729	21755
856.862	22082
856.996	21865
857.13	21918
857.263	22063
857.397	21937
857.53	22021
857.664	21819
857.797	21979
857.931	22006
858.064	21911
858.197	21934
858.331	21846
858.464	21869
858.597	21842
858.731	21926
858.864	21831
858.997	21876
859.13	21869
859.263	21964
859.396	21937
859.529	21835
859.662	21804
859.795	21816
859.928	21926
860.061	21945
860.194	22124
860.327	21987
860.46	21991
860.592	21998
860.725	22040
860.858	21956
860.99	21926
861.123	21739
861.256	21884
861.388	21816
861.521	22538
861.653	21781
861.786	21720
861.918	21808
862.05	21800
862.183	21827
862.315	21819
862.447	21880
862.58	21724
862.712	21504
862.844	21595
862.976	21701
863.108	21660
863.24	21895
863.372	21648
863.504	21625
863.636	21622
863.768	21713
863.9	21663
864.032	21526
864.164	21504
864.296	21595
864.428	21789
864.559	21656
864.691	21618
864.823	21679
864.954	21576
865.086	21644
865.217	21523
865.349	21408
865.48	21504
865.612	21477
865.743	21637
865.875	21477
866.006	21435
866.137	21500
866.269	21515
866.4	21428
866.531	21374
866.662	21424
866.793	21454
866.924	21260
867.055	21458
867.186	21504
867.317	21424
867.448	21435
867.579	21450
867.71	21401
867.841	21416
867.972	21370
868.103	21408
868.233	21450
868.364	21370
868.495	21595
868.625	21625
868.756	21656
868.886	21648
869.017	21622
869.147	21705
869.278	21720
869.408	21736
869.539	21656
869.669	21766
869.799	21694
869.929	21857
870.06	21789
870.19	21903
870.32	21972
870.45	21941
870.58	22017
870.71	22177
870.84	22223
870.97	22101
871.1	21899
871.23	22242
871.36	22226
871.489	22173
871.619	22280
871.749	22211
871.879	22398
872.008	22360
872.138	22348
872.267	22360
872.397	22131
872.526	22120
872.656	22154
872.785	22207
872.915	22314
873.044	22363
873.173	22344
873.303	22360
873.432	22219
873.561	22341
873.69	22310
873.819	22299
873.948	22287
874.077	22276
874.206	22268
874.335	22238
874.464	22382
874.593	22500
874.722	22504
874.851	22569
874.979	22508
875.108	22702
875.237	22447
875.365	22436
875.494	22451
875.623	22542
875.751	22459
875.88	22630
876.008	22546
876.136	22748
876.265	22843
876.393	23094
876.521	22965
876.65	22995
876.778	22892
876.906	22831
877.034	22877
877.162	22752
877.29	22782
877.418	22908
877.546	22831
877.674	22816
877.802	22805
877.93	22835
878.058	22854
878.185	22900
878.313	22812
878.441	22904
878.568	22622
878.696	22729
878.824	22949
878.951	23006
879.079	23044
879.206	23048
879.333	22946
879.461	22812
879.588	22885
879.715	23029
879.842	23105
879.97	22923
880.097	22698
880.224	22675
880.351	22721
880.478	22733
880.605	22622
880.732	22630
880.859	22850
880.986	22698
881.112	22641
881.239	22489
881.366	22481
881.493	22226
881.619	22249
881.746	22253
881.872	22360
881.999	22268
882.125	22090
882.252	22181
882.378	22192
882.505	22314
882.631	22090
882.757	21994
882.883	22101
883.01	21895
883.136	21857
883.262	21857
883.388	21713
883.514	21903
883.64	21964
883.766	21892
883.892	21698
884.018	21770
884.143	22002
884.269	21987
884.395	21557
884.52	21599
884.646	21618
884.772	21488
884.897	21564
885.023	21523
885.148	21682
885.274	21686
885.399	21694
885.524	21523
885.65	21591
885.775	21511
885.9	21564
886.025	21610
886.15	21690
886.275	21568
886.4	21511
886.525	21477
886.65	21469
886.775	21523
886.9	21625
887.025	21808
887.149	21549
887.274	21226
887.399	21260
887.523	21310
887.648	21249
887.773	21226
887.897	21450
888.021	21431
888.146	21275
888.27	21428
888.395	21530
888.519	21355
888.643	21325
888.767	21386
888.891	21291
889.015	21135
889.139	21207
889.263	21157
889.387	21344
889.511	21287
889.635	21226
889.759	21112
889.883	21085
890.006	21146
890.13	21241
890.254	21123
890.377	20998
890.501	20796
890.624	20872
890.748	20979
890.871	20777
890.995	20708
891.118	20594
891.241	20769
891.364	20651
891.488	20952
891.611	20629
891.734	20640
891.857	20800
891.98	20720
892.103	20632
892.226	20727
892.349	20651
892.471	20511
892.594	20560
892.717	20629
892.839	20602
892.962	20587
893.085	20625
893.207	20621
893.33	20434
893.452	20514
893.575	20667
893.697	20598
893.819	20693
893.941	20773
894.064	20769
894.186	20526
894.308	20488
894.43	20457
894.552	20678
894.674	20609
894.796	20488
894.918	20461
895.04	20442
895.161	20590
895.283	20609
895.405	20423
895.526	20564
895.648	20560
895.769	20488
895.891	20511
896.012	20564
896.134	20678
896.255	20560
896.376	20537
896.498	20518
896.619	20689
896.74	20545
896.861	20667
896.982	20826
897.103	21043
897.224	20769
897.345	20918
897.466	20659
897.587	20781
897.708	21032
897.828	20819
897.949	20670
898.07	20575
898.19	20564
898.311	20765
898.431	20716
898.552	20781
898.672	20804
898.792	20845
898.913	20880
899.033	20621
899.153	20743
899.273	20499
899.393	20514
899.513	20590
899.633	20686
899.753	20617
899.873	20419
899.993	20556
900.113	20419
900.232	20442
900.352	20355
900.472	20218
900.591	20206
900.711	20358
900.83	20202
900.95	20419
901.069	20377
901.189	20126
901.308	20050
901.427	19902
901.546	19879
901.665	19997
901.784	19738
901.904	19772
902.023	19734
902.141	19537
902.26	19388
902.379	19350
902.498	19392
902.617	19358
902.735	19369
902.854	19422
902.973	19255
903.091	19133
903.21	19069
903.328	19050
903.446	18947
903.565	18951
903.683	18779
903.801	18688
903.919	18871
904.038	18779
904.156	18635
904.274	18661
904.392	18589
904.51	18475
904.627	18585
904.745	18623
904.863	18635
904.981	18311
905.098	18281
905.216	18277
905.334	18292
905.451	18270
905.569	18315
905.686	18308
905.803	18323
905.921	18102
906.038	18216
906.155	18068
906.272	18053
906.389	18060
906.506	17874
906.623	17798
906.74	17771
906.857	17680
906.974	17710
907.091	17904
907.208	17958
907.324	17863
907.441	17695
907.557	17509
907.674	17436
907.79	17562
907.907	17395
908.023	17528
908.139	17505
908.256	17429
908.372	17436
908.488	17395
908.604	17242
908.72	17204
908.836	17178
908.952	17117
909.068	17254
909.184	17376
909.3	17284
909.415	17265
909.531	17136
909.647	17128
909.762	16987
909.878	16900
909.993	16995
910.108	16942
910.224	16923
910.339	16927
910.454	16824
910.57	16793
910.685	16641
910.8	16908
910.915	16877
911.03	16835
911.145	16519
911.259	16485
911.374	16508
911.489	16371
911.604	16394
911.718	16329
911.833	16371
911.947	16192
912.062	16166
912.176	16341
912.291	16390
912.405	16287
912.519	16443
912.633	16474
912.748	16185
912.862	16234
912.976	16120
913.09	15998
913.204	16002
913.318	15991
913.431	16211
913.545	16162
913.659	16177
913.772	16078
913.886	15934
914	15709
914.113	15945
914.226	15972
914.34	15949
914.453	15743
914.566	15926
914.68	15838
914.793	15736
914.906	15526
915.019	15481
915.132	15374
915.245	15450
915.358	15496
915.47	15447
915.583	15534
915.696	15435
915.809	15561
915.921	15633
916.034	15363
916.146	15420
916.259	15348
916.371	15450
916.483	15367
916.595	15272
916.708	15165
916.82	15310
916.932	15272
917.044	15226
917.156	15283
917.268	15100
917.38	15173
917.491	15138
917.603	15165
917.715	15214
917.826	15180
917.938	15104
918.049	14944
918.161	15017
918.272	15184
918.384	15237
918.495	15028
918.606	14914
918.717	14796
918.828	14925
918.939	14979
919.05	14765
919.161	14830
919.272	14621
919.383	14720
919.494	14868
919.604	15089
919.715	14830
919.826	14735
919.936	14838
920.047	14925
920.157	14861
920.267	14948
920.378	14693
920.488	14724
920.598	14979
920.708	15104
920.818	14861
920.928	14994
921.038	15104
921.148	15051
921.258	14815
921.368	14716
921.477	14583
921.587	14571
921.697	14339
921.806	14579
921.916	14408
922.025	14221
922.134	14233
922.244	14134
922.353	14191
922.462	13997
922.571	13856
922.68	13868
922.789	13803
922.898	13902
923.007	13715
923.116	13928
923.224	13803
923.333	13738
923.442	13708
923.55	13632
923.659	13677
923.767	13715
923.876	13624
923.984	13613
924.092	13609
924.201	13605
924.309	13586
924.417	13556
924.525	13514
924.633	13415
924.741	14301
924.849	13335
924.956	13377
925.064	13282
925.172	13190
925.279	13263
925.387	13331
925.494	13251
925.602	13304
925.709	13282
925.816	13225
925.924	13103
926.031	13304
926.138	13247
926.245	13228
926.352	13171
926.459	13225
926.566	13266
926.673	13141
926.779	12916
926.886	12932
926.993	12791
927.099	12719
927.206	12795
927.312	12745
927.419	12791
927.525	12806
927.631	12859
927.737	12749
927.843	12639
927.95	12517
928.056	12597
928.162	12631
928.267	12627
928.373	13297
928.479	12642
928.585	12483
928.69	12642
928.796	12593
928.901	12429
929.007	12300
929.112	12479
929.218	12479
929.323	12330
929.428	12277
929.533	12540
929.638	12213
929.743	12289
929.848	12327
929.953	12300
930.058	12019
930.163	11996
930.267	12026
930.372	12140
930.477	11912
930.581	12205
930.685	12019
930.79	11874
930.894	11805
930.998	11866
931.103	11988
931.207	11596
931.311	11566
931.415	11482
931.519	11311
931.623	11227
