Data from test_V78500241_1948.txt Node
Date: Fri Mar 25 15:55:17 CST 2022
User: usil
Spectrometer: V785-0024
Trigger mode: 0
Integration Time (sec): 4.000000E-1
Scans to average: 1
Nonlinearity correction enabled: false
Boxcar width: 0
Storing dark spectrum: false
XAxis mode: Wavelengths
Number of Pixels in Spectrum: 1024
>>>>>Begin Spectral Data<<<<<
801.071	28858
801.214	28713
801.356	28565
801.499	28626
801.641	28344
801.783	28325
801.926	28474
802.068	28341
802.211	28360
802.353	28390
802.496	28173
802.638	28166
802.78	28101
802.923	28044
803.065	27964
803.208	28029
803.35	28135
803.492	28177
803.635	28287
803.777	28246
803.919	28356
804.061	28656
804.204	28253
804.346	28379
804.488	28181
804.63	28325
804.773	28261
804.915	28432
805.057	28500
805.199	28341
805.341	28451
805.483	28512
805.626	28462
805.768	28318
805.91	28489
806.052	28485
806.194	28360
806.336	28672
806.478	28508
806.62	28546
806.762	28649
806.904	28759
807.046	29037
807.188	29037
807.33	28965
807.472	28995
807.614	28984
807.756	28881
807.898	28946
808.04	28713
808.182	28752
808.324	28752
808.465	28786
808.607	29025
808.749	29208
808.891	29406
809.033	29349
809.174	29326
809.316	29132
809.458	29151
809.6	29109
809.741	29322
809.883	29341
810.025	29589
810.166	29539
810.308	29455
810.45	29531
810.591	29433
810.733	29094
810.875	29151
811.016	29181
811.158	29220
811.299	29117
811.441	29258
811.582	29326
811.724	29216
811.865	29121
812.007	29239
812.148	29220
812.29	29178
812.431	29284
812.573	29551
812.714	29493
812.855	29733
812.997	29802
813.138	30030
813.279	29939
813.421	29634
813.562	29615
813.703	29444
813.845	29402
813.986	29174
814.127	29056
814.268	28896
814.41	28949
814.551	28839
814.692	28869
814.833	28854
814.974	28839
815.115	29025
815.256	28679
815.397	28790
815.539	28919
815.68	28816
815.821	28672
815.962	28828
816.103	28645
816.244	28653
816.385	28603
816.526	28466
816.666	28322
816.807	28139
816.948	28318
817.089	28337
817.23	28310
817.371	28074
817.512	28257
817.653	28185
817.793	28150
817.934	28226
818.075	28234
818.216	28219
818.356	28097
818.497	28135
818.638	27888
818.778	28021
818.919	27998
819.06	27998
819.2	28090
819.341	28287
819.481	28253
819.622	28367
819.762	28656
819.903	28542
820.043	28440
820.184	28329
820.324	28363
820.465	28367
820.605	28409
820.746	28459
820.886	28181
821.026	28375
821.167	28215
821.307	28497
821.447	28249
821.588	28215
821.728	28036
821.868	27937
822.008	27804
822.149	27686
822.289	27599
822.429	27443
822.569	27591
822.709	27420
822.849	27154
822.99	27180
823.13	27298
823.27	27085
823.41	27013
823.55	27036
823.69	26929
823.83	26971
823.97	27116
824.11	26796
824.25	26823
824.389	26834
824.529	27081
824.669	26872
824.809	27039
824.949	26918
825.089	26979
825.228	26975
825.368	26758
825.508	26788
825.648	26796
825.787	26750
825.927	26891
826.067	26648
826.206	26674
826.346	26777
826.485	26838
826.625	26731
826.765	26895
826.904	26777
827.044	26473
827.183	26667
827.323	26499
827.462	26575
827.601	26431
827.741	26362
827.88	26484
828.02	26404
828.159	26495
828.298	26541
828.437	26480
828.577	26328
828.716	26541
828.855	26252
828.994	26126
829.134	26195
829.273	26282
829.412	26172
829.551	26065
829.69	26081
829.829	26142
829.968	26122
830.107	26237
830.246	26180
830.385	26024
830.524	25974
830.663	26073
830.802	25860
830.941	25693
831.08	25670
831.219	25947
831.357	25849
831.496	25947
831.635	25826
831.774	25780
831.913	25731
832.051	25605
832.19	25502
832.329	25616
832.467	25343
832.606	25419
832.744	25297
832.883	25491
833.022	25373
833.16	25411
833.299	25457
833.437	25453
833.576	25563
833.714	25479
833.852	25556
833.991	25548
834.129	25476
834.267	25647
834.406	25499
834.544	25407
834.682	25381
834.821	25400
834.959	25647
835.097	25510
835.235	25502
835.373	25422
835.511	25449
835.65	25381
835.788	25312
835.926	25190
836.064	25114
836.202	25202
836.34	25285
836.478	25362
836.615	25297
836.753	25316
836.891	25362
837.029	25365
837.167	25187
837.305	25228
837.443	25190
837.58	25042
837.718	25320
837.856	25171
837.993	25183
838.131	25187
838.269	24856
838.406	25034
838.544	25008
838.681	24806
838.819	24783
838.956	24772
839.094	24521
839.231	24673
839.369	24684
839.506	24932
839.643	24901
839.781	24578
839.918	24593
840.055	24578
840.193	24471
840.33	24403
840.467	24521
840.604	24570
840.742	24722
840.879	24285
841.016	24445
841.153	24437
841.29	24593
841.427	24471
841.564	24391
841.701	24422
841.838	24475
841.975	24353
842.112	24433
842.249	24342
842.385	24186
842.522	24505
842.659	24342
842.796	24235
842.933	24155
843.069	24209
843.206	24159
843.343	24232
843.479	24300
843.616	24311
843.752	24079
843.889	23965
844.025	24079
844.162	24034
844.298	24186
844.435	23969
844.571	23855
844.708	23984
844.844	24258
844.98	24155
845.117	24083
845.253	24015
845.389	23859
845.525	23882
845.661	23843
845.798	23805
845.934	23802
846.07	23638
846.206	23847
846.342	23912
846.478	23817
846.614	23497
846.75	23471
846.886	23474
847.022	23562
847.158	23623
847.294	23524
847.429	23520
847.565	23402
847.701	23748
847.837	23208
847.972	23269
848.108	23258
848.244	23303
848.379	23113
848.515	23067
848.65	23044
848.786	23029
848.921	23079
849.057	23162
849.192	23197
849.328	23124
849.463	23010
849.598	22980
849.734	23022
849.869	22869
850.004	22900
850.14	22938
850.275	22752
850.41	22656
850.545	22828
850.68	22839
850.815	22835
850.95	22801
851.085	23121
851.22	22946
851.355	22866
851.49	22847
851.625	22774
851.76	22839
851.895	22839
852.03	22637
852.165	22687
852.299	22744
852.434	22911
852.569	22850
852.703	22702
852.838	22927
852.973	23033
853.107	22919
853.242	22713
853.376	22668
853.511	22546
853.645	22611
853.78	22820
853.914	22649
854.048	22603
854.183	22713
854.317	22672
854.451	22885
854.585	22656
854.72	22550
854.854	22755
854.988	22580
855.122	22634
855.256	22470
855.39	22550
855.524	22668
855.658	22672
855.792	22706
855.926	22660
856.06	22713
856.194	22664
856.327	22691
856.461	22527
856.595	22675
856.729	22641
856.862	22717
856.996	22736
857.13	22748
857.263	22618
857.397	22835
857.53	22557
857.664	22733
857.797	22653
857.931	22683
858.064	22664
858.197	22862
858.331	22721
858.464	22588
858.597	22634
858.731	22653
858.864	22512
858.997	22565
859.13	22592
859.263	22626
859.396	22584
859.529	22672
859.662	22554
859.795	22592
859.928	22721
860.061	22687
860.194	22816
860.327	22725
860.46	22694
860.592	22790
860.725	22843
860.858	22767
860.99	22611
861.123	22550
861.256	22607
861.388	22672
861.521	23379
861.653	22550
861.786	22459
861.918	22455
862.05	22527
862.183	22683
862.315	22554
862.447	22603
862.58	22542
862.712	22386
862.844	22382
862.976	22466
863.108	22402
863.24	22987
863.372	22402
863.504	22367
863.636	22303
863.768	22447
863.9	22265
864.032	22249
864.164	22291
864.296	22341
864.428	22455
864.559	22417
864.691	22481
864.823	22276
864.954	22375
865.086	22295
865.217	22173
865.349	22280
865.48	22158
865.612	22348
865.743	22356
865.875	22318
866.006	22303
866.137	22234
866.269	22329
866.4	22116
866.531	22059
866.662	22135
866.793	22078
866.924	22105
867.055	22143
867.186	22249
867.317	22223
867.448	22036
867.579	22196
867.71	22143
867.841	22128
867.972	22097
868.103	22128
868.233	22097
868.364	22276
868.495	22242
868.625	22386
868.756	22546
868.886	22303
869.017	22390
869.147	22459
869.278	22489
869.408	22485
869.539	22405
869.669	22478
869.799	22405
869.929	22497
870.06	22440
870.19	22694
870.32	22717
870.45	22672
870.58	22854
870.71	22866
870.84	22866
870.97	22831
871.1	22759
871.23	22911
871.36	22953
871.489	22850
871.619	23060
871.749	23006
871.879	22953
872.008	23025
872.138	22934
872.267	22953
872.397	22843
872.526	22771
872.656	22793
872.785	22843
872.915	23010
873.044	23022
873.173	23162
873.303	23003
873.432	23064
873.561	23056
873.69	22930
873.819	22957
873.948	23235
874.077	23003
874.206	22866
874.335	22927
874.464	23113
874.593	23086
874.722	23113
874.851	23265
874.979	23254
875.108	23326
875.237	23067
875.365	23075
875.494	23231
875.623	23345
875.751	23124
875.88	23223
876.008	23242
876.136	23398
876.265	23596
876.393	23745
876.521	23748
876.65	23581
876.778	23707
876.906	23539
877.034	23577
877.162	23551
877.29	23471
877.418	23558
877.546	23608
877.674	23608
877.802	23482
877.93	23467
878.058	23440
878.185	23509
878.313	23558
878.441	23501
878.568	23292
878.696	23467
878.824	23630
878.951	23760
879.079	23722
879.206	23851
879.333	23661
879.461	23486
879.588	23646
879.715	23684
879.842	23790
879.97	23687
880.097	23406
880.224	23345
880.351	23364
880.478	23474
880.605	23318
880.732	23227
880.859	23611
880.986	23280
881.112	23303
881.239	23254
881.366	23193
881.493	23083
881.619	23033
881.746	22991
881.872	22938
881.999	22934
882.125	22877
882.252	22942
882.378	22820
882.505	23029
882.631	22687
882.757	22679
882.883	22748
883.01	22527
883.136	22535
883.262	22363
883.388	22451
883.514	22512
883.64	22546
883.766	22554
883.892	22356
884.018	22352
884.143	22478
884.269	22702
884.395	22230
884.52	22280
884.646	22154
884.772	22215
884.897	22112
885.023	22242
885.148	22382
885.274	22398
885.399	22371
885.524	22337
885.65	22325
885.775	22246
885.9	22295
886.025	22367
886.15	22398
886.275	22226
886.4	22128
886.525	22131
886.65	22223
886.775	22226
886.9	22436
887.025	22390
887.149	22207
887.274	21953
887.399	21994
887.523	22002
887.648	21968
887.773	21949
887.897	22059
888.021	22131
888.146	21892
888.27	22025
888.395	22112
888.519	22006
888.643	22044
888.767	21953
888.891	21850
889.015	21736
889.139	21766
889.263	21671
889.387	22006
889.511	22040
889.635	21926
889.759	21789
889.883	21857
890.006	21823
890.13	21713
890.254	21660
890.377	21694
890.501	21648
890.624	21564
890.748	21629
890.871	21443
890.995	21294
891.118	21211
891.241	21378
891.364	21348
891.488	21439
891.611	21363
891.734	21420
891.857	21367
891.98	21408
892.103	21294
892.226	21450
892.349	21173
892.471	21096
892.594	21321
892.717	21252
892.839	21146
892.962	21108
893.085	21142
893.207	21195
893.33	21077
893.452	21123
893.575	21195
893.697	21283
893.819	21340
893.941	21317
894.064	21329
894.186	21066
894.308	21051
894.43	21127
894.552	21447
894.674	21367
894.796	21081
894.918	21142
895.04	21199
895.161	21184
895.283	21180
895.405	21108
895.526	21112
895.648	21123
895.769	21165
895.891	21325
896.012	21218
896.134	21298
896.255	21199
896.376	21256
896.498	21165
896.619	21226
896.74	21241
896.861	21264
896.982	21637
897.103	21717
897.224	21431
897.345	21450
897.466	21245
897.587	21336
897.708	21519
897.828	21443
897.949	21351
898.07	21275
898.19	21359
898.311	21564
898.431	21268
898.552	21408
898.672	21443
898.792	21466
898.913	21386
899.033	21382
899.153	21264
899.273	20971
899.393	21199
899.513	21127
899.633	21123
899.753	21123
899.873	21047
899.993	21123
900.113	21100
900.232	21020
900.352	20998
900.472	20891
900.591	20895
900.711	20937
900.83	20872
900.95	20986
901.069	20979
901.189	20754
901.308	20492
901.427	20438
901.546	20507
901.665	20454
901.784	20511
901.904	20343
902.023	20259
902.141	20069
902.26	20020
902.379	20031
902.498	19982
902.617	19993
902.735	19947
902.854	20008
902.973	19830
903.091	19605
903.21	19597
903.328	19647
903.446	19529
903.565	19438
903.683	19476
903.801	19358
903.919	19426
904.038	19415
904.156	19137
904.274	19289
904.392	19160
904.51	19194
904.627	19198
904.745	19263
904.863	19244
904.981	18966
905.098	18802
905.216	18760
905.334	18924
905.451	18894
905.569	18821
905.686	18886
905.803	18897
905.921	18734
906.038	18764
906.155	18661
906.272	18559
906.389	18582
906.506	18426
906.623	18410
906.74	18308
906.857	18266
906.974	18327
907.091	18418
907.208	18441
907.324	18475
907.441	18277
907.557	18194
907.674	18064
907.79	18038
907.907	18083
908.023	18174
908.139	18072
908.256	17954
908.372	17977
908.488	17939
908.604	17863
908.72	17783
908.836	17843
908.952	17809
909.068	17745
909.184	17885
909.3	17771
909.415	17805
909.531	17786
909.647	17604
909.762	17535
909.878	17486
909.993	17528
910.108	17493
910.224	17360
910.339	17505
910.454	17379
910.57	17379
910.685	17178
910.8	17440
910.915	17410
911.03	17265
911.145	17014
911.259	17083
911.374	17128
911.489	17018
911.604	17003
911.718	16793
911.833	16904
911.947	16752
912.062	16721
912.176	16767
912.291	16866
912.405	16778
912.519	17029
912.633	16904
912.748	16869
912.862	16835
912.976	16717
913.09	16451
913.204	16592
913.318	16626
913.431	16641
913.545	16694
913.659	16698
913.772	16500
913.886	16436
914	16371
914.113	16459
914.226	16584
914.34	16462
914.453	16371
914.566	16402
914.68	16272
914.793	16314
914.906	16029
915.019	16090
915.132	15827
915.245	15892
915.358	15934
915.47	16048
915.583	15930
915.696	16002
915.809	16067
915.921	16013
916.034	15903
916.146	15766
916.259	15899
916.371	15888
916.483	15880
916.595	15842
916.708	15857
916.82	15800
916.932	15793
917.044	15686
917.156	15835
917.268	15561
917.38	15576
917.491	15515
917.603	15629
917.715	15671
917.826	15667
917.938	15568
918.049	15473
918.161	15542
918.272	15679
918.384	15622
918.495	15492
918.606	15344
918.717	15321
918.828	15393
918.939	15481
919.05	15344
919.161	15348
919.272	15097
919.383	15180
919.494	15382
919.604	15576
919.715	15329
919.826	15249
919.936	15310
920.047	15408
920.157	15367
920.267	15466
920.378	15313
920.488	15241
920.598	15504
920.708	15549
920.818	15329
920.928	15408
921.038	15530
921.148	15549
921.258	15252
921.368	15055
921.477	15127
921.587	15032
921.697	14807
921.806	15013
921.916	14845
922.025	14655
922.134	14746
922.244	14617
922.353	14750
922.462	14503
922.571	14492
922.68	14370
922.789	14343
922.898	14294
923.007	14218
923.116	14275
923.224	14282
923.333	14259
923.442	14187
923.55	14050
923.659	14092
923.767	14214
923.876	14126
923.984	14043
924.092	14012
924.201	14069
924.309	13925
924.417	14008
924.525	13967
924.633	13928
924.741	14872
924.849	13639
924.956	13803
925.064	13616
925.172	13594
925.279	13712
925.387	13712
925.494	13700
925.602	13780
925.709	13674
925.816	13609
925.924	13525
926.031	13647
926.138	13590
926.245	13693
926.352	13472
926.459	13609
926.566	13624
926.673	13495
926.779	13464
926.886	13403
926.993	13179
927.099	13168
927.206	13255
927.312	13095
927.419	13194
927.525	13209
927.631	13129
927.737	13160
927.843	13080
927.95	12875
928.056	13000
928.162	13019
928.267	13095
928.373	13757
928.479	13057
928.585	12791
928.69	12989
928.796	12985
928.901	12875
929.007	12738
929.112	12882
929.218	12859
929.323	12677
929.428	12627
929.533	12916
929.638	12608
929.743	12623
929.848	12726
929.953	12582
930.058	12502
930.163	12437
930.267	12342
930.372	12563
930.477	12319
930.581	12589
930.685	12426
930.79	12315
930.894	12281
930.998	12224
931.103	12369
931.207	12041
931.311	11954
931.415	11710
931.519	11657
931.623	11558
