Data from test_V78500241_1779.txt Node
Date: Fri Mar 25 15:54:07 CST 2022
User: usil
Spectrometer: V785-0024
Trigger mode: 0
Integration Time (sec): 4.000000E-1
Scans to average: 1
Nonlinearity correction enabled: false
Boxcar width: 0
Storing dark spectrum: false
XAxis mode: Wavelengths
Number of Pixels in Spectrum: 1024
>>>>>Begin Spectral Data<<<<<
801.071	28649
801.214	28413
801.356	28470
801.499	28341
801.641	28006
801.783	28158
801.926	28287
802.068	28116
802.211	28116
802.353	28147
802.496	27899
802.638	27914
802.78	27903
802.923	27835
803.065	27899
803.208	27831
803.35	27880
803.492	28017
803.635	28105
803.777	27991
803.919	28063
804.061	28390
804.204	28158
804.346	27930
804.488	28013
804.63	28242
804.773	28067
804.915	28112
805.057	28249
805.199	28090
805.341	28272
805.483	28226
805.626	28268
805.768	28139
805.91	28478
806.052	28230
806.194	28090
806.336	28474
806.478	28188
806.62	28268
806.762	28379
806.904	28565
807.046	28740
807.188	28660
807.33	28683
807.472	28763
807.614	28664
807.756	28679
807.898	28607
808.04	28493
808.182	28569
808.324	28683
808.465	28672
808.607	28698
808.749	29086
808.891	29124
809.033	29162
809.174	29102
809.316	28972
809.458	28949
809.6	28930
809.741	28980
809.883	29147
810.025	29277
810.166	29086
810.308	29269
810.45	29128
810.591	29102
810.733	28965
810.875	28816
811.016	28877
811.158	28786
811.299	29033
811.441	29204
811.582	29117
811.724	28942
811.865	28904
812.007	29010
812.148	29056
812.29	29044
812.431	29147
812.573	29349
812.714	29379
812.855	29433
812.997	29543
813.138	29649
813.279	29687
813.421	29395
813.562	29463
813.703	29189
813.845	29140
813.986	28946
814.127	28862
814.268	28755
814.41	28630
814.551	28717
814.692	28721
814.833	28679
814.974	28675
815.115	28717
815.256	28630
815.397	28615
815.539	28603
815.68	28481
815.821	28455
815.962	28500
816.103	28542
816.244	28409
816.385	28344
816.526	28295
816.666	28029
816.807	27991
816.948	28158
817.089	27975
817.23	28074
817.371	27869
817.512	27835
817.653	27953
817.793	27827
817.934	27907
818.075	27922
818.216	27975
818.356	27732
818.497	27793
818.638	27686
818.778	27804
818.919	27633
819.06	27789
819.2	27797
819.341	28112
819.481	27949
819.622	28067
819.762	28196
819.903	28246
820.043	28105
820.184	28150
820.324	28070
820.465	28036
820.605	27991
820.746	28226
820.886	27888
821.026	27983
821.167	28055
821.307	28211
821.447	27960
821.588	27983
821.728	27743
821.868	27622
822.008	27526
822.149	27511
822.289	27382
822.429	27184
822.569	27195
822.709	27291
822.849	26967
822.99	26940
823.13	27039
823.27	26929
823.41	26834
823.55	26583
823.69	26823
823.83	26678
823.97	26750
824.11	26609
824.25	26514
824.389	26705
824.529	26651
824.669	26609
824.809	26777
824.949	26663
825.089	26689
825.228	26720
825.368	26560
825.508	26518
825.648	26495
825.787	26446
825.927	26480
826.067	26446
826.206	26446
826.346	26484
826.485	26465
826.625	26450
826.765	26514
826.904	26598
827.044	26317
827.183	26419
827.323	26301
827.462	26237
827.601	26168
827.741	26195
827.88	26225
828.02	26058
828.159	26229
828.298	26206
828.437	26161
828.577	26077
828.716	26256
828.855	26100
828.994	25906
829.134	25890
829.273	25989
829.412	25761
829.551	25655
829.69	25921
829.829	25997
829.968	26069
830.107	25890
830.246	25928
830.385	25799
830.524	25723
830.663	25731
830.802	25575
830.941	25575
831.08	25460
831.219	25563
831.357	25601
831.496	25761
831.635	25403
831.774	25483
831.913	25335
832.051	25327
832.19	25293
832.329	25430
832.467	25209
832.606	25213
832.744	25080
832.883	25148
833.022	25008
833.16	25164
833.299	25088
833.437	25133
833.576	25251
833.714	25221
833.852	25301
833.991	25324
834.129	25289
834.267	25308
834.406	25168
834.544	25156
834.682	25198
834.821	25244
834.959	25419
835.097	25198
835.235	25270
835.373	25194
835.511	25107
835.65	25190
835.788	25091
835.926	24939
836.064	24821
836.202	24970
836.34	25099
836.478	25320
836.615	24920
836.753	24954
836.891	25194
837.029	25129
837.167	25031
837.305	25053
837.443	24989
837.58	24882
837.718	24905
837.856	24897
837.993	24814
838.131	24871
838.269	24829
838.406	24837
838.544	24711
838.681	24414
838.819	24627
838.956	24479
839.094	24273
839.231	24338
839.369	24521
839.506	24738
839.643	24639
839.781	24365
839.918	24251
840.055	24308
840.193	24342
840.33	24247
840.467	24197
840.604	24155
840.742	24479
840.879	24194
841.016	24155
841.153	24159
841.29	24330
841.427	24308
841.564	24350
841.701	24224
841.838	24213
841.975	24220
842.112	24133
842.249	23935
842.385	24038
842.522	24247
842.659	24114
842.796	23992
842.933	23973
843.069	23942
843.206	24034
843.343	23992
843.479	23969
843.616	23813
843.752	23882
843.889	23802
844.025	23817
844.162	23722
844.298	23969
844.435	23760
844.571	23748
844.708	23897
844.844	23866
844.98	23866
845.117	23855
845.253	23764
845.389	23604
845.525	23665
845.661	23531
845.798	23520
845.934	23653
846.07	23482
846.206	23478
846.342	23638
846.478	23528
846.614	23124
846.75	23220
846.886	23212
847.022	23246
847.158	23376
847.294	23239
847.429	23216
847.565	23143
847.701	23535
847.837	22953
847.972	22908
848.108	23033
848.244	23003
848.379	22839
848.515	22824
848.65	22900
848.786	22828
848.921	22824
849.057	22961
849.192	22755
849.328	22866
849.463	22869
849.598	22843
849.734	22675
849.869	22683
850.004	22725
850.14	22542
850.275	22554
850.41	22550
850.545	22542
850.68	22394
850.815	22523
850.95	22653
851.085	22672
851.22	22694
851.355	22512
851.49	22531
851.625	22500
851.76	22577
851.895	22542
852.03	22519
852.165	22519
852.299	22675
852.434	22580
852.569	22546
852.703	22706
852.838	22672
852.973	22679
853.107	22702
853.242	22481
853.376	22497
853.511	22325
853.645	22413
853.78	22527
853.914	22287
854.048	22246
854.183	22421
854.317	22348
854.451	22561
854.585	22508
854.72	22329
854.854	22417
854.988	22375
855.122	22318
855.256	22280
855.39	22310
855.524	22421
855.658	22367
855.792	22398
855.926	22371
856.06	22318
856.194	22599
856.327	22512
856.461	22325
856.595	22447
856.729	22295
856.862	22554
856.996	22485
857.13	22424
857.263	22527
857.397	22466
857.53	22459
857.664	22432
857.797	22371
857.931	22481
858.064	22352
858.197	22485
858.331	22440
858.464	22352
858.597	22223
858.731	22402
858.864	22348
858.997	22337
859.13	22276
859.263	22447
859.396	22497
859.529	22402
859.662	22310
859.795	22196
859.928	22329
860.061	22523
860.194	22550
860.327	22402
860.46	22474
860.592	22584
860.725	22653
860.858	22436
860.99	22367
861.123	22447
861.256	22379
861.388	22481
861.521	23113
861.653	22306
861.786	22109
861.918	22246
862.05	22234
862.183	22306
862.315	22356
862.447	22363
862.58	22284
862.712	22078
862.844	21991
862.976	22166
863.108	22166
863.24	22481
863.372	22120
863.504	21998
863.636	22188
863.768	22070
863.9	22120
864.032	22032
864.164	22025
864.296	22070
864.428	22253
864.559	22135
864.691	22177
864.823	22074
864.954	22051
865.086	22112
865.217	22013
865.349	21949
865.48	21888
865.612	22017
865.743	22109
865.875	22101
866.006	21979
866.137	21911
866.269	21979
866.4	22044
866.531	21899
866.662	21934
866.793	21922
866.924	21808
867.055	21972
867.186	21979
867.317	21941
867.448	21930
867.579	21892
867.71	21755
867.841	21884
867.972	21930
868.103	21850
868.233	21972
868.364	21846
868.495	21918
868.625	22067
868.756	22150
868.886	22036
869.017	22070
869.147	22135
869.278	22348
869.408	22147
869.539	22162
869.669	22196
869.799	22265
869.929	22200
870.06	22223
870.19	22379
870.32	22386
870.45	22500
870.58	22485
870.71	22710
870.84	22679
870.97	22531
871.1	22569
871.23	22664
871.36	22793
871.489	22672
871.619	22683
871.749	22816
871.879	22778
872.008	22850
872.138	22744
872.267	22763
872.397	22607
872.526	22565
872.656	22573
872.785	22493
872.915	22816
873.044	22812
873.173	22801
873.303	22889
873.432	22702
873.561	22965
873.69	22774
873.819	22809
873.948	22885
874.077	22782
874.206	22599
874.335	22847
874.464	22854
874.593	23056
874.722	22858
874.851	22999
874.979	23067
875.108	23109
875.237	22900
875.365	22850
875.494	22987
875.623	23025
875.751	22987
875.88	23003
876.008	23147
876.136	23200
876.265	23414
876.393	23322
876.521	23486
876.65	23410
876.778	23406
876.906	23421
877.034	23250
877.162	23250
877.29	23242
877.418	23349
877.546	23284
877.674	23296
877.802	23216
877.93	23258
878.058	23204
878.185	23292
878.313	23174
878.441	23216
878.568	23178
878.696	23178
878.824	23414
878.951	23360
879.079	23566
879.206	23531
879.333	23444
879.461	23341
879.588	23334
879.715	23516
879.842	23573
879.97	23474
880.097	23212
880.224	23193
880.351	23269
880.478	23064
880.605	23178
880.732	23208
880.859	23406
880.986	23105
881.112	23086
881.239	22957
881.366	22835
881.493	22816
881.619	22729
881.746	22748
881.872	22603
881.999	22637
882.125	22702
882.252	22816
882.378	22603
882.505	22767
882.631	22561
882.757	22497
882.883	22409
883.01	22333
883.136	22246
883.262	22223
883.388	22306
883.514	22333
883.64	22337
883.766	22215
883.892	22078
884.018	22128
884.143	22249
884.269	22478
884.395	22143
884.52	22002
884.646	22010
884.772	21953
884.897	21934
885.023	22048
885.148	22147
885.274	22070
885.399	22078
885.524	22013
885.65	21991
885.775	21934
885.9	21911
886.025	22051
886.15	22196
886.275	21979
886.4	21892
886.525	21968
886.65	21922
886.775	21873
886.9	22010
887.025	22177
887.149	21998
887.274	22017
887.399	21918
887.523	21827
887.648	21686
887.773	21656
887.897	21838
888.021	21861
888.146	21701
888.27	21842
888.395	21808
888.519	21793
888.643	21713
888.767	21915
888.891	21606
889.015	21614
889.139	21591
889.263	21641
889.387	21663
889.511	21793
889.635	21709
889.759	21618
889.883	21500
890.006	21530
890.13	21545
890.254	21416
890.377	21519
890.501	21348
890.624	21325
890.748	21420
890.871	21287
890.995	21043
891.118	21104
891.241	21169
891.364	21081
891.488	21272
891.611	21058
891.734	20994
891.857	21233
891.98	21180
892.103	21180
892.226	21089
892.349	21074
892.471	20921
892.594	20998
892.717	21039
892.839	20982
892.962	20921
893.085	21005
893.207	21020
893.33	20845
893.452	21024
893.575	20979
893.697	20975
893.819	21226
893.941	21207
894.064	21188
894.186	20944
894.308	20861
894.43	21032
894.552	21074
894.674	21100
894.796	20982
894.918	20956
895.04	20952
895.161	21058
895.283	21051
895.405	20975
895.526	21062
895.648	20971
895.769	21051
895.891	21028
896.012	21020
896.134	21051
896.255	21093
896.376	20925
896.498	21001
896.619	21047
896.74	20967
896.861	21112
896.982	21272
897.103	21359
897.224	21279
897.345	21256
897.466	21146
897.587	21218
897.708	21310
897.828	21199
897.949	21138
898.07	21051
898.19	21077
898.311	21405
898.431	21142
898.552	21116
898.672	21214
898.792	21241
898.913	21428
899.033	21226
899.153	20918
899.273	21028
899.393	20990
899.513	21013
899.633	20982
899.753	20925
899.873	20743
899.993	20952
900.113	20826
900.232	20849
900.352	20872
900.472	20701
900.591	20697
900.711	20663
900.83	20697
900.95	20792
901.069	20651
901.189	20476
901.308	20336
901.427	20396
901.546	20214
901.665	20252
901.784	20298
901.904	20126
902.023	19970
902.141	19864
902.26	19845
902.379	19818
902.498	19753
902.617	19712
902.735	19830
902.854	19712
902.973	19693
903.091	19430
903.21	19499
903.328	19392
903.446	19282
903.565	19194
903.683	19206
903.801	19148
903.919	19206
904.038	19164
904.156	18916
904.274	18962
904.392	18932
904.51	18993
904.627	18837
904.745	18901
904.863	19065
904.981	18806
905.098	18661
905.216	18646
905.334	18654
905.451	18696
905.569	18631
905.686	18700
905.803	18684
905.921	18384
906.038	18544
906.155	18467
906.272	18391
906.389	18350
906.506	18232
906.623	18216
906.74	18102
906.857	18038
906.974	18049
907.091	18144
907.208	18319
907.324	18140
907.441	18098
907.557	18003
907.674	17882
907.79	17897
907.907	17912
908.023	17931
908.139	17843
908.256	17836
908.372	17779
908.488	17577
908.604	17646
908.72	17566
908.836	17630
908.952	17474
909.068	17668
909.184	17668
909.3	17634
909.415	17665
909.531	17570
909.647	17269
909.762	17212
909.878	17227
909.993	17284
910.108	17197
910.224	17250
910.339	17296
910.454	17212
910.57	17178
910.685	17159
910.8	17246
910.915	17299
911.03	17166
911.145	17029
911.259	16900
911.374	16797
911.489	16843
911.604	16843
911.718	16653
911.833	16717
911.947	16558
912.062	16516
912.176	16607
912.291	16569
912.405	16615
912.519	16774
912.633	16869
912.748	16603
912.862	16653
912.976	16462
913.09	16390
913.204	16386
913.318	16535
913.431	16542
913.545	16573
913.659	16500
913.772	16322
913.886	16291
914	16238
914.113	16238
914.226	16360
914.34	16265
914.453	16044
914.566	16268
914.68	16135
914.793	16074
914.906	15949
915.019	15842
915.132	15679
915.245	15797
915.358	15804
915.47	15759
915.583	15789
915.696	15918
915.809	15975
915.921	15960
916.034	15675
916.146	15595
916.259	15701
916.371	15762
916.483	15701
916.595	15587
916.708	15675
916.82	15584
916.932	15561
917.044	15622
917.156	15534
917.268	15454
917.38	15428
917.491	15382
917.603	15454
917.715	15435
917.826	15481
917.938	15397
918.049	15268
918.161	15329
918.272	15500
918.384	15359
918.495	15325
918.606	15218
918.717	15161
918.828	15230
918.939	15180
919.05	15176
919.161	15104
919.272	14918
919.383	15001
919.494	15222
919.604	15351
919.715	15161
919.826	15097
919.936	15047
920.047	15123
920.157	15135
920.267	15268
920.378	15081
920.488	15036
920.598	15256
920.708	15477
920.818	15287
920.928	15199
921.038	15424
921.148	15329
921.258	15108
921.368	14960
921.477	14933
921.587	14762
921.697	14762
921.806	14849
921.916	14746
922.025	14560
922.134	14518
922.244	14457
922.353	14450
922.462	14423
922.571	14225
922.68	14187
922.789	14145
922.898	14149
923.007	14130
923.116	14138
923.224	14043
923.333	14062
923.442	13982
923.55	13989
923.659	13913
923.767	14088
923.876	13837
923.984	13890
924.092	13852
924.201	13826
924.309	13811
924.417	13860
924.525	13803
924.633	13727
924.741	14587
924.849	13567
924.956	13746
925.064	13605
925.172	13506
925.279	13514
925.387	13480
925.494	13575
925.602	13696
925.709	13556
925.816	13369
925.924	13445
926.031	13487
926.138	13335
926.245	13487
926.352	13373
926.459	13449
926.566	13540
926.673	13331
926.779	13320
926.886	13270
926.993	13126
927.099	13019
927.206	13015
927.312	12996
927.419	13027
927.525	13061
927.631	13095
927.737	12932
927.843	12852
927.95	12814
928.056	12768
928.162	12951
928.267	12886
928.373	13499
928.479	12920
928.585	12719
928.69	12802
928.796	12779
928.901	12741
929.007	12585
929.112	12730
929.218	12650
929.323	12597
929.428	12578
929.533	12684
929.638	12585
929.743	12563
929.848	12555
929.953	12555
930.058	12441
930.163	12205
930.267	12235
930.372	12403
930.477	12163
930.581	12426
930.685	12319
930.79	12083
930.894	12117
930.998	12114
931.103	12296
931.207	11798
931.311	11752
931.415	11680
931.519	11573
931.623	11539
