Data from test_V78500241_897.txt Node
Date: Fri Mar 25 15:48:00 CST 2022
User: usil
Spectrometer: V785-0024
Trigger mode: 0
Integration Time (sec): 4.000000E-1
Scans to average: 1
Nonlinearity correction enabled: false
Boxcar width: 0
Storing dark spectrum: false
XAxis mode: Wavelengths
Number of Pixels in Spectrum: 1024
>>>>>Begin Spectral Data<<<<<
801.071	28512
801.214	28436
801.356	28135
801.499	28059
801.641	27987
801.783	27926
801.926	27994
802.068	27956
802.211	27865
802.353	27895
802.496	27663
802.638	27595
802.78	27603
802.923	27709
803.065	27603
803.208	27545
803.35	27614
803.492	27804
803.635	27785
803.777	27671
803.919	27949
804.061	28162
804.204	27850
804.346	27724
804.488	27876
804.63	27774
804.773	27694
804.915	27914
805.057	27941
805.199	27899
805.341	28017
805.483	28051
805.626	28025
805.768	27842
805.91	27991
806.052	27937
806.194	28029
806.336	28261
806.478	28070
806.62	28124
806.762	28246
806.904	28291
807.046	28622
807.188	28432
807.33	28527
807.472	28535
807.614	28440
807.756	28394
807.898	28325
808.04	28360
808.182	28284
808.324	28455
808.465	28379
808.607	28596
808.749	28759
808.891	28850
809.033	28858
809.174	28694
809.316	28713
809.458	28736
809.6	28717
809.741	28801
809.883	28877
810.025	29102
810.166	29064
810.308	28965
810.45	28991
810.591	28873
810.733	28778
810.875	28729
811.016	28694
811.158	28702
811.299	28778
811.441	28892
811.582	28968
811.724	28843
811.865	28801
812.007	28801
812.148	28786
812.29	28664
812.431	28946
812.573	29056
812.714	29242
812.855	29223
812.997	29292
813.138	29448
813.279	29440
813.421	29292
813.562	29269
813.703	28987
813.845	29003
813.986	28733
814.127	28554
814.268	28481
814.41	28462
814.551	28306
814.692	28417
814.833	28303
814.974	28394
815.115	28489
815.256	28249
815.397	28238
815.539	28226
815.68	28253
815.821	28169
815.962	28246
816.103	28211
816.244	28158
816.385	28169
816.526	27888
816.666	27934
816.807	27770
816.948	27705
817.089	27865
817.23	27850
817.371	27835
817.512	27739
817.653	27682
817.793	27808
817.934	27675
818.075	27838
818.216	27846
818.356	27701
818.497	27587
818.638	27526
818.778	27583
818.919	27447
819.06	27713
819.2	27770
819.341	27789
819.481	27682
819.622	27857
819.762	28059
819.903	28025
820.043	27979
820.184	27800
820.324	27861
820.465	27888
820.605	28013
820.746	27937
820.886	27682
821.026	27789
821.167	27960
821.307	27831
821.447	27694
821.588	27701
821.728	27580
821.868	27382
822.008	27287
822.149	27165
822.289	27214
822.429	26906
822.569	27001
822.709	26834
822.849	26693
822.99	26720
823.13	26731
823.27	26552
823.41	26564
823.55	26453
823.69	26514
823.83	26507
823.97	26625
824.11	26408
824.25	26332
824.389	26309
824.529	26434
824.669	26412
824.809	26541
824.949	26499
825.089	26298
825.228	26396
825.368	26237
825.508	26221
825.648	26366
825.787	26271
825.927	26385
826.067	26320
826.206	26180
826.346	26271
826.485	26366
826.625	26206
826.765	26431
826.904	26244
827.044	26031
827.183	26035
827.323	26008
827.462	25902
827.601	25966
827.741	26058
827.88	26020
828.02	25951
828.159	25951
828.298	26046
828.437	26073
828.577	25959
828.716	26024
828.855	25890
828.994	25594
829.134	25700
829.273	25658
829.412	25708
829.551	25662
829.69	25502
829.829	25681
829.968	25788
830.107	25700
830.246	25727
830.385	25696
830.524	25563
830.663	25369
830.802	25327
830.941	25270
831.08	25270
831.219	25407
831.357	25358
831.496	25479
831.635	25225
831.774	25110
831.913	25103
832.051	25244
832.19	25027
832.329	25133
832.467	24966
832.606	25031
832.744	24833
832.883	24867
833.022	24806
833.16	24962
833.299	24928
833.437	24909
833.576	25004
833.714	24894
833.852	25152
833.991	25012
834.129	25004
834.267	25023
834.406	24989
834.544	24935
834.682	25072
834.821	24920
834.959	25129
835.097	24996
835.235	25099
835.373	25080
835.511	25034
835.65	24741
835.788	24951
835.926	24753
836.064	24578
836.202	24677
836.34	24715
836.478	24943
836.615	24817
836.753	24791
836.891	24867
837.029	24909
837.167	24776
837.305	24700
837.443	24768
837.58	24593
837.718	24779
837.856	24852
837.993	24570
838.131	24612
838.269	24528
838.406	24627
838.544	24369
838.681	24311
838.819	24251
838.956	24076
839.094	24152
839.231	24228
839.369	24174
839.506	24525
839.643	24448
839.781	24121
839.918	24060
840.055	24114
840.193	24057
840.33	23999
840.467	24110
840.604	24121
840.742	24308
840.879	24026
841.016	23885
841.153	23954
841.29	24117
841.427	24087
841.564	24003
841.701	23950
841.838	24026
841.975	23779
842.112	23885
842.249	23992
842.385	23870
842.522	24049
842.659	23920
842.796	23691
842.933	23760
843.069	23726
843.206	23722
843.343	23889
843.479	23676
843.616	23802
843.752	23486
843.889	23573
844.025	23687
844.162	23474
844.298	23627
844.435	23467
844.571	23497
844.708	23596
844.844	23707
844.98	23710
845.117	23672
845.253	23566
845.389	23391
845.525	23455
845.661	23364
845.798	23444
845.934	23410
846.07	23254
846.206	23326
846.342	23429
846.478	23326
846.614	23105
846.75	22885
846.886	23014
847.022	23094
847.158	23003
847.294	23102
847.429	22984
847.565	22812
847.701	23223
847.837	22675
847.972	22729
848.108	22812
848.244	22778
848.379	22729
848.515	22588
848.65	22565
848.786	22656
848.921	22538
849.057	22660
849.192	22611
849.328	22702
849.463	22584
849.598	22557
849.734	22573
849.869	22504
850.004	22481
850.14	22516
850.275	22497
850.41	22226
850.545	22242
850.68	22257
850.815	22291
850.95	22409
851.085	22436
851.22	22382
851.355	22424
851.49	22291
851.625	22276
851.76	22253
851.895	22337
852.03	22219
852.165	22310
852.299	22462
852.434	22516
852.569	22348
852.703	22230
852.838	22424
852.973	22573
853.107	22481
853.242	22310
853.376	22238
853.511	21983
853.645	22181
853.78	22185
853.914	22204
854.048	22249
854.183	22074
854.317	22181
854.451	22421
854.585	22268
854.72	22196
854.854	22230
854.988	22067
855.122	22154
855.256	22082
855.39	22139
855.524	22230
855.658	22287
855.792	22196
855.926	22147
856.06	22166
856.194	22329
856.327	22162
856.461	22143
856.595	22268
856.729	22257
856.862	22303
856.996	22276
857.13	22200
857.263	22112
857.397	22299
857.53	22185
857.664	22230
857.797	22291
857.931	22246
858.064	22215
858.197	22188
858.331	22173
858.464	22147
858.597	21998
858.731	22219
858.864	22139
858.997	22086
859.13	22139
859.263	22226
859.396	22295
859.529	22162
859.662	22196
859.795	22112
859.928	22181
860.061	22276
860.194	22303
860.327	22344
860.46	22215
860.592	22246
860.725	22314
860.858	22375
860.99	22249
861.123	21937
861.256	22150
861.388	22257
861.521	22774
861.653	22002
861.786	21968
861.918	22044
862.05	21998
862.183	22078
862.315	22040
862.447	22147
862.58	22112
862.712	21835
862.844	21842
862.976	21907
863.108	21884
863.24	22280
863.372	21797
863.504	21884
863.636	21945
863.768	21991
863.9	21789
864.032	21854
864.164	21838
864.296	21903
864.428	21994
864.559	21998
864.691	21903
864.823	21857
864.954	21895
865.086	21793
865.217	21747
865.349	21622
865.48	21766
865.612	21797
865.743	21884
865.875	21831
866.006	21743
866.137	21751
866.269	21652
866.4	21911
866.531	21717
866.662	21705
866.793	21759
866.924	21637
867.055	21656
867.186	21793
867.317	21679
867.448	21675
867.579	21774
867.71	21660
867.841	21576
867.972	21641
868.103	21679
868.233	21610
868.364	21701
868.495	21755
868.625	21907
868.756	22044
868.886	21846
869.017	21854
869.147	22029
869.278	22097
869.408	21857
869.539	22002
869.669	22006
869.799	22120
869.929	22135
870.06	22002
870.19	22211
870.32	22291
870.45	22268
870.58	22188
870.71	22379
870.84	22432
870.97	22276
871.1	22291
871.23	22344
871.36	22645
871.489	22470
871.619	22497
871.749	22470
871.879	22584
872.008	22675
872.138	22531
872.267	22592
872.397	22261
872.526	22287
872.656	22371
872.785	22390
872.915	22516
873.044	22580
873.173	22622
873.303	22615
873.432	22592
873.561	22615
873.69	22508
873.819	22607
873.948	22698
874.077	22557
874.206	22455
874.335	22538
874.464	22554
874.593	22824
874.722	22733
874.851	22949
874.979	22740
875.108	22816
875.237	22805
875.365	22752
875.494	22733
875.623	22831
875.751	22729
875.88	22740
876.008	22782
876.136	22999
876.265	23117
876.393	23307
876.521	23113
876.65	23155
876.778	23151
876.906	22980
877.034	23056
877.162	23132
877.29	22942
877.418	23166
877.546	23067
877.674	23109
877.802	23174
877.93	23128
878.058	23018
878.185	23010
878.313	23029
878.441	23083
878.568	22949
878.696	23109
878.824	23086
878.951	23189
879.079	23223
879.206	23471
879.333	23353
879.461	23079
879.588	23185
879.715	23349
879.842	23391
879.97	23208
880.097	22908
880.224	22869
880.351	22915
880.478	22923
880.605	22885
880.732	22965
880.859	23227
880.986	22911
881.112	22927
881.239	22763
881.366	22637
881.493	22702
881.619	22531
881.746	22500
881.872	22424
881.999	22474
882.125	22398
882.252	22603
882.378	22459
882.505	22561
882.631	22280
882.757	22226
882.883	22291
883.01	22188
883.136	22143
883.262	22082
883.388	22002
883.514	22162
883.64	22238
883.766	22044
883.892	21945
884.018	21953
884.143	22207
884.269	22207
884.395	21994
884.52	21755
884.646	21701
884.772	21804
884.897	21629
885.023	21979
885.148	21819
885.274	21899
885.399	21876
885.524	21797
885.65	21743
885.775	21835
885.9	21800
886.025	21838
886.15	21903
886.275	21808
886.4	21717
886.525	21686
886.65	21720
886.775	21671
886.9	21831
887.025	22051
887.149	21930
887.274	21641
887.399	21469
887.523	21625
887.648	21504
887.773	21420
887.897	21656
888.021	21603
888.146	21553
888.27	21701
888.395	21682
888.519	21523
888.643	21500
888.767	21606
888.891	21397
889.015	21370
889.139	21310
889.263	21340
889.387	21412
889.511	21580
889.635	21523
889.759	21420
889.883	21412
890.006	21340
890.13	21397
890.254	21195
890.377	21256
890.501	21142
890.624	21047
890.748	21123
890.871	21131
890.995	20982
891.118	20880
891.241	20899
891.364	20967
891.488	21100
891.611	21081
891.734	20864
891.857	20948
891.98	20842
892.103	20937
892.226	20910
892.349	20902
892.471	20686
892.594	20929
892.717	20796
892.839	20823
892.962	20815
893.085	20883
893.207	20838
893.33	20674
893.452	20720
893.575	20773
893.697	20796
893.819	20925
893.941	20998
894.064	20918
894.186	20746
894.308	20705
894.43	20948
894.552	20990
894.674	20876
894.796	20720
894.918	20845
895.04	20701
895.161	20777
895.283	20682
895.405	20693
895.526	20765
895.648	20762
895.769	20773
895.891	20845
896.012	20762
896.134	20765
896.255	20773
896.376	20811
896.498	20670
896.619	20853
896.74	20762
896.861	20765
896.982	21116
897.103	21275
897.224	21013
897.345	20990
897.466	20933
897.587	20960
897.708	21108
897.828	20948
897.949	20967
898.07	20842
898.19	20910
898.311	21047
898.431	20864
898.552	21043
898.672	21051
898.792	21047
898.913	21096
899.033	20986
899.153	20735
899.273	20682
899.393	20830
899.513	20712
899.633	20746
899.753	20701
899.873	20663
899.993	20807
900.113	20655
900.232	20678
900.352	20636
900.472	20530
900.591	20454
900.711	20552
900.83	20503
900.95	20667
901.069	20476
901.189	20393
901.308	20138
901.427	20069
901.546	20183
901.665	20092
901.784	20073
901.904	19989
902.023	19784
902.141	19761
902.26	19689
902.379	19662
902.498	19540
902.617	19529
902.735	19586
902.854	19590
902.973	19575
903.091	19236
903.21	19308
903.328	19190
903.446	19221
903.565	19072
903.683	19057
903.801	18852
903.919	19034
904.038	18977
904.156	18806
904.274	18901
904.392	18776
904.51	18703
904.627	18787
904.745	18890
904.863	18920
904.981	18536
905.098	18448
905.216	18445
905.334	18456
905.451	18540
905.569	18509
905.686	18582
905.803	18357
905.921	18270
906.038	18365
906.155	18281
906.272	18186
906.389	18159
906.506	18019
906.623	18117
906.74	17973
906.857	17847
906.974	17946
907.091	18053
907.208	18110
907.324	18011
907.441	17920
907.557	17794
907.674	17687
907.79	17695
907.907	17627
908.023	17794
908.139	17710
908.256	17611
908.372	17581
908.488	17710
908.604	17448
908.72	17440
908.836	17421
908.952	17395
909.068	17383
909.184	17581
909.3	17440
909.415	17448
909.531	17387
909.647	17113
909.762	17132
909.878	16957
909.993	17223
910.108	17067
910.224	16999
910.339	17151
910.454	16968
910.57	16949
910.685	16843
910.8	17124
910.915	17200
911.03	16946
911.145	16816
911.259	16755
911.374	16694
911.489	16626
911.604	16554
911.718	16451
911.833	16462
911.947	16287
912.062	16390
912.176	16417
912.291	16432
912.405	16417
912.519	16656
912.633	16577
912.748	16470
912.862	16375
912.976	16284
913.09	16147
913.204	16120
913.318	16238
913.431	16337
913.545	16333
913.659	16257
913.772	16074
913.886	16143
914	16044
914.113	16154
914.226	16173
914.34	16029
914.453	15930
914.566	15930
914.68	15956
914.793	15873
914.906	15667
915.019	15679
915.132	15625
915.245	15667
915.358	15648
915.47	15804
915.583	15644
915.696	15682
915.809	15701
915.921	15736
916.034	15584
916.146	15622
916.259	15644
916.371	15610
916.483	15580
916.595	15545
916.708	15511
916.82	15477
916.932	15416
917.044	15428
917.156	15370
917.268	15348
917.38	15279
917.491	15142
917.603	15222
917.715	15367
917.826	15275
917.938	15169
918.049	15169
918.161	15184
918.272	15310
918.384	15332
918.495	15203
918.606	15047
918.717	14937
918.828	15127
918.939	15039
919.05	14880
919.161	14971
919.272	14781
919.383	14781
919.494	15028
919.604	15154
919.715	15005
919.826	14830
919.936	14948
920.047	15077
920.157	14960
920.267	15157
920.378	15028
920.488	14864
920.598	15150
920.708	15260
920.818	15058
920.928	15131
921.038	15321
921.148	15275
921.258	15074
921.368	14857
921.477	14788
921.587	14697
921.697	14560
921.806	14648
921.916	14648
922.025	14377
922.134	14332
922.244	14294
922.353	14355
922.462	14202
922.571	14115
922.68	14039
922.789	14058
922.898	13978
923.007	13875
923.116	13963
923.224	13997
923.333	13902
923.442	13826
923.55	13841
923.659	13845
923.767	13849
923.876	13769
923.984	13811
924.092	13750
924.201	13746
924.309	13769
924.417	13746
924.525	13624
924.633	13700
924.741	14549
924.849	13502
924.956	13518
925.064	13377
925.172	13217
925.279	13362
925.387	13312
925.494	13400
925.602	13460
925.709	13377
925.816	13289
925.924	13289
926.031	13403
926.138	13285
926.245	13339
926.352	13244
926.459	13304
926.566	13327
926.673	13217
926.779	13031
926.886	13084
926.993	12993
927.099	12939
927.206	12844
927.312	12852
927.419	12993
927.525	13004
927.631	12989
927.737	12905
927.843	12791
927.95	12650
928.056	12749
928.162	12821
928.267	12871
928.373	13312
928.479	12848
928.585	12650
928.69	12707
928.796	12726
928.901	12555
929.007	12502
929.112	12528
929.218	12475
929.323	12555
929.428	12410
929.533	12642
929.638	12353
929.743	12346
929.848	12388
929.953	12388
930.058	12327
930.163	12190
930.267	12251
930.372	12254
930.477	12102
930.581	12266
930.685	12182
930.79	12064
930.894	12102
930.998	11977
931.103	12095
931.207	11783
931.311	11676
931.415	11592
931.519	11429
931.623	11398
