Data from test_V78500241_2839.txt Node
Date: Fri Mar 25 16:01:28 CST 2022
User: usil
Spectrometer: V785-0024
Trigger mode: 0
Integration Time (sec): 4.000000E-1
Scans to average: 1
Nonlinearity correction enabled: false
Boxcar width: 0
Storing dark spectrum: false
XAxis mode: Wavelengths
Number of Pixels in Spectrum: 1024
>>>>>Begin Spectral Data<<<<<
801.071	29155
801.214	29128
801.356	28961
801.499	28892
801.641	28713
801.783	28919
801.926	28850
802.068	28824
802.211	28687
802.353	28812
802.496	28527
802.638	28538
802.78	28538
802.923	28398
803.065	28417
803.208	28455
803.35	28527
803.492	28759
803.635	28816
803.777	28656
803.919	28729
804.061	28923
804.204	28839
804.346	28748
804.488	28702
804.63	28744
804.773	28630
804.915	28828
805.057	28984
805.199	28786
805.341	28949
805.483	29041
805.626	28923
805.768	28725
805.91	28904
806.052	28984
806.194	29025
806.336	29166
806.478	28961
806.62	28938
806.762	29117
806.904	29269
807.046	29375
807.188	29417
807.33	29280
807.472	29573
807.614	29345
807.756	29318
807.898	29353
808.04	29083
808.182	29261
808.324	29368
808.465	29326
808.607	29421
808.749	29627
808.891	29676
809.033	29817
809.174	29668
809.316	29676
809.458	29680
809.6	29646
809.741	29630
809.883	29707
810.025	29980
810.166	29954
810.308	29840
810.45	29847
810.591	29794
810.733	29737
810.875	29699
811.016	29630
811.158	29589
811.299	29615
811.441	29817
811.582	29775
811.724	29805
811.865	29729
812.007	29676
812.148	29661
812.29	29767
812.431	30038
812.573	30060
812.714	30102
812.855	30270
812.997	30289
813.138	30308
813.279	30251
813.421	30155
813.562	30174
813.703	30095
813.845	29904
813.986	29520
814.127	29474
814.268	29406
814.41	29280
814.551	29353
814.692	29391
814.833	29330
814.974	29414
815.115	29360
815.256	29448
815.397	29250
815.539	29200
815.68	29220
815.821	29212
815.962	29303
816.103	29307
816.244	29113
816.385	29014
816.526	29083
816.666	28778
816.807	28713
816.948	28744
817.089	28866
817.23	28744
817.371	28744
817.512	28733
817.653	28721
817.793	28485
817.934	28672
818.075	28729
818.216	28641
818.356	28706
818.497	28672
818.638	28485
818.778	28424
818.919	28519
819.06	28683
819.2	28611
819.341	28786
819.481	28748
819.622	28984
819.762	29102
819.903	28942
820.043	29102
820.184	28885
820.324	28809
820.465	29010
820.605	28786
820.746	28923
820.886	28675
821.026	28888
821.167	28782
821.307	29014
821.447	28744
821.588	28767
821.728	28634
821.868	28455
822.008	28325
822.149	28265
822.289	28261
822.429	28040
822.569	27922
822.709	27854
822.849	27793
822.99	27720
823.13	27751
823.27	27705
823.41	27538
823.55	27515
823.69	27610
823.83	27583
823.97	27454
824.11	27534
824.25	27252
824.389	27492
824.529	27443
824.669	27363
824.809	27454
824.949	27576
825.089	27511
825.228	27401
825.368	27222
825.508	27192
825.648	27306
825.787	27348
825.927	27264
826.067	27192
826.206	27401
826.346	27389
826.485	27272
826.625	27340
826.765	27416
826.904	27344
827.044	27081
827.183	27165
827.323	27055
827.462	27028
827.601	27127
827.741	26967
827.88	27093
828.02	26781
828.159	26834
828.298	27051
828.437	27127
828.577	26746
828.716	27131
828.855	26982
828.994	26659
829.134	26629
829.273	26834
829.412	26667
829.551	26693
829.69	26773
829.829	26727
829.968	26575
830.107	26632
830.246	26720
830.385	26564
830.524	26495
830.663	26590
830.802	26438
830.941	26313
831.08	26301
831.219	26393
831.357	26412
831.496	26469
831.635	26278
831.774	26161
831.913	26218
832.051	26115
832.19	26122
832.329	26164
832.467	25871
832.606	25993
832.744	25845
832.883	25913
833.022	25879
833.16	25902
833.299	26100
833.437	26092
833.576	26073
833.714	26126
833.852	26054
833.991	26031
834.129	26214
834.267	26084
834.406	26073
834.544	26043
834.682	26202
834.821	26081
834.959	26309
835.097	25784
835.235	26024
835.373	25917
835.511	25982
835.65	25951
835.788	25738
835.926	25734
836.064	25651
836.202	25780
836.34	25822
836.478	25837
836.615	25769
836.753	25947
836.891	25909
837.029	25803
837.167	25780
837.305	25833
837.443	25738
837.58	25715
837.718	25700
837.856	25674
837.993	25666
838.131	25559
838.269	25381
838.406	25533
838.544	25613
838.681	25377
838.819	25312
838.956	25110
839.094	25164
839.231	25118
839.369	25438
839.506	25350
839.643	25525
839.781	25126
839.918	25034
840.055	25046
840.193	25072
840.33	25236
840.467	25118
840.604	25008
840.742	25221
840.879	24882
841.016	24958
841.153	24749
841.29	25103
841.427	24947
841.564	25042
841.701	24977
841.838	24932
841.975	24909
842.112	24962
842.249	24741
842.385	24806
842.522	25072
842.659	24757
842.796	24779
842.933	24848
843.069	24661
843.206	24707
843.343	24913
843.479	24757
843.616	24840
843.752	24486
843.889	24597
844.025	24669
844.162	24460
844.298	24764
844.435	24544
844.571	24391
844.708	24582
844.844	24825
844.98	24719
845.117	24673
845.253	24475
845.389	24372
845.525	24296
845.661	24403
845.798	24216
845.934	24361
846.07	24171
846.206	24277
846.342	24395
846.478	24285
846.614	24152
846.75	24026
846.886	23988
847.022	24125
847.158	24087
847.294	24091
847.429	24018
847.565	23882
847.701	24190
847.837	23729
847.972	23676
848.108	23893
848.244	23863
848.379	23684
848.515	23573
848.65	23554
848.786	23547
848.921	23687
849.057	23623
849.192	23752
849.328	23573
849.463	23630
849.598	23566
849.734	23471
849.869	23543
850.004	23330
850.14	23398
850.275	23516
850.41	23296
850.545	23223
850.68	23330
850.815	23395
850.95	23307
851.085	23558
851.22	23490
851.355	23440
851.49	23349
851.625	23345
851.76	23372
851.895	23280
852.03	23246
852.165	23315
852.299	23345
852.434	23364
852.569	23330
852.703	23334
852.838	23353
852.973	23379
853.107	23414
853.242	23303
853.376	23242
853.511	22968
853.645	23193
853.78	23170
853.914	23200
854.048	23231
854.183	23113
854.317	23128
854.451	23452
854.585	23151
854.72	23147
854.854	23303
854.988	23151
855.122	23143
855.256	23029
855.39	23250
855.524	23204
855.658	23212
855.792	23140
855.926	23189
856.06	23200
856.194	23227
856.327	23181
856.461	23166
856.595	23155
856.729	23231
856.862	23284
856.996	23083
857.13	23166
857.263	23220
857.397	23246
857.53	23121
857.664	23075
857.797	23197
857.931	23200
858.064	23288
858.197	23193
858.331	23227
858.464	23132
858.597	23132
858.731	23113
858.864	23151
858.997	23223
859.13	23105
859.263	23105
859.396	23299
859.529	23143
859.662	23117
859.795	23044
859.928	23117
860.061	23322
860.194	23345
860.327	23258
860.46	23212
860.592	23208
860.725	23368
860.858	23220
860.99	23277
861.123	22999
861.256	23220
861.388	23185
861.521	23874
861.653	22972
861.786	23048
861.918	23075
862.05	23022
862.183	23117
862.315	23166
862.447	23147
862.58	23105
862.712	22961
862.844	22858
862.976	23029
863.108	22972
863.24	23406
863.372	22805
863.504	22755
863.636	22782
863.768	22923
863.9	22877
864.032	22797
864.164	22740
864.296	22854
864.428	22900
864.559	22919
864.691	22976
864.823	22782
864.954	22660
865.086	22717
865.217	22774
865.349	22694
865.48	22725
865.612	22626
865.743	22812
865.875	23006
866.006	22713
866.137	22835
866.269	22637
866.4	22675
866.531	22649
866.662	22573
866.793	22702
866.924	22588
867.055	22729
867.186	22748
867.317	22702
867.448	22599
867.579	22698
867.71	22538
867.841	22599
867.972	22569
868.103	22634
868.233	22603
868.364	22656
868.495	22710
868.625	22892
868.756	23037
868.886	22828
869.017	22889
869.147	23094
869.278	22949
869.408	22881
869.539	22942
869.669	23018
869.799	22869
869.929	23147
870.06	23048
870.19	23254
870.32	23075
870.45	23265
870.58	23261
870.71	23353
870.84	23345
870.97	23292
871.1	23288
871.23	23478
871.36	23531
871.489	23414
871.619	23467
871.749	23539
871.879	23509
872.008	23543
872.138	23577
872.267	23452
872.397	23402
872.526	23303
872.656	23284
872.785	23368
872.915	23539
873.044	23543
873.173	23592
873.303	23486
873.432	23558
873.561	23615
873.69	23516
873.819	23425
873.948	23543
874.077	23478
874.206	23486
874.335	23356
874.464	23611
874.593	23642
874.722	23672
874.851	23802
874.979	23646
875.108	23699
875.237	23710
875.365	23615
875.494	23703
875.623	23832
875.751	23680
875.88	23699
876.008	23859
876.136	23904
876.265	24095
876.393	24209
876.521	24049
876.65	24171
876.778	24152
876.906	24087
877.034	24026
877.162	24022
877.29	24007
877.418	23958
877.546	24053
877.674	24144
877.802	24057
877.93	24007
878.058	24041
878.185	23939
878.313	24068
878.441	24057
878.568	23851
878.696	23920
878.824	24018
878.951	24079
879.079	24133
879.206	24353
879.333	24174
879.461	24083
879.588	24136
879.715	24186
879.842	24292
879.97	24155
880.097	23714
880.224	23836
880.351	23920
880.478	23901
880.605	23809
880.732	23836
880.859	24167
880.986	23920
881.112	23893
881.239	23695
881.366	23589
881.493	23471
881.619	23486
881.746	23379
881.872	23497
881.999	23353
882.125	23448
882.252	23421
882.378	23471
882.505	23379
882.631	23315
882.757	23151
882.883	23136
883.01	22965
883.136	23079
883.262	22858
883.388	23003
883.514	23094
883.64	23102
883.766	23003
883.892	22991
884.018	22919
884.143	22991
884.269	23128
884.395	22934
884.52	22672
884.646	22752
884.772	22656
884.897	22622
885.023	22786
885.148	22752
885.274	22927
885.399	22774
885.524	22774
885.65	22713
885.775	22820
885.9	22607
886.025	22892
886.15	22733
886.275	22672
886.4	22622
886.525	22592
886.65	22691
886.775	22527
886.9	22824
887.025	22908
887.149	22653
887.274	22596
887.399	22466
887.523	22557
887.648	22428
887.773	22394
887.897	22538
888.021	22535
888.146	22379
888.27	22542
888.395	22618
888.519	22523
888.643	22318
888.767	22440
888.891	22363
889.015	22325
889.139	22360
889.263	22234
889.387	22436
889.511	22443
889.635	22421
889.759	22238
889.883	22162
890.006	22215
890.13	22291
890.254	22116
890.377	22169
890.501	21903
890.624	21953
890.748	22093
890.871	21956
890.995	21686
891.118	21728
891.241	21713
891.364	21838
891.488	21907
891.611	21739
891.734	21778
891.857	21850
891.98	21907
892.103	21812
892.226	21770
892.349	21793
892.471	21526
892.594	21648
892.717	21701
892.839	21739
892.962	21686
893.085	21686
893.207	21614
893.33	21561
893.452	21435
893.575	21747
893.697	21545
893.819	21846
893.941	21800
894.064	21899
894.186	21587
894.308	21606
894.43	21842
894.552	21861
894.674	21720
894.796	21526
894.918	21732
895.04	21561
895.161	21606
895.283	21751
895.405	21698
895.526	21667
895.648	21618
895.769	21648
895.891	21724
896.012	21701
896.134	21778
896.255	21580
896.376	21580
896.498	21591
896.619	21774
896.74	21652
896.861	21572
896.982	21762
897.103	21994
897.224	21975
897.345	21789
897.466	21778
897.587	21808
897.708	21892
897.828	21819
897.949	21736
898.07	21679
898.19	21778
898.311	21774
898.431	21869
898.552	21880
898.672	21972
898.792	21838
898.913	21857
899.033	21610
899.153	21507
899.273	21538
899.393	21519
899.513	21618
899.633	21660
899.753	21576
899.873	21397
899.993	21511
900.113	21515
900.232	21557
900.352	21416
900.472	21184
900.591	21313
900.711	21252
900.83	21348
900.95	21336
901.069	21264
901.189	21211
901.308	20849
901.427	20788
901.546	20868
901.665	20849
901.784	20777
901.904	20598
902.023	20716
902.141	20431
902.26	20358
902.379	20503
902.498	20412
902.617	20434
902.735	20396
902.854	20298
902.973	20256
903.091	20122
903.21	19925
903.328	20054
903.446	19913
903.565	19784
903.683	19750
903.801	19693
903.919	19845
904.038	19788
904.156	19510
904.274	19639
904.392	19681
904.51	19495
904.627	19483
904.745	19605
904.863	19658
904.981	19381
905.098	19308
905.216	19255
905.334	19316
905.451	19285
905.569	19209
905.686	19365
905.803	19190
905.921	19027
906.038	18962
906.155	19099
906.272	18996
906.389	18993
906.506	18760
906.623	18741
906.74	18646
906.857	18521
906.974	18616
907.091	18844
907.208	18886
907.324	18749
907.441	18726
907.557	18532
907.674	18414
907.79	18433
907.907	18285
908.023	18528
908.139	18395
908.256	18281
908.372	18330
908.488	18315
908.604	18197
908.72	18098
908.836	18323
908.952	18091
909.068	18239
909.184	18194
909.3	18232
909.415	18209
909.531	18205
909.647	17790
909.762	17878
909.878	17824
909.993	17851
910.108	17752
910.224	17851
910.339	17805
910.454	17699
910.57	17611
910.685	17497
910.8	17912
910.915	17752
911.03	17543
911.145	17440
911.259	17493
911.374	17425
911.489	17269
911.604	17269
911.718	17189
911.833	17204
911.947	17067
912.062	17090
912.176	17113
912.291	17166
912.405	17102
912.519	17334
912.633	17356
912.748	17261
912.862	17079
912.976	16908
913.09	16885
913.204	16972
913.318	16999
913.431	17117
913.545	16980
913.659	17045
913.772	16835
913.886	16801
914	16771
914.113	16854
914.226	16869
914.34	16767
914.453	16561
914.566	16809
914.68	16527
914.793	16607
914.906	16333
915.019	16447
915.132	16287
915.245	16386
915.358	16325
915.47	16287
915.583	16367
915.696	16276
915.809	16341
915.921	16447
916.034	16219
916.146	16234
916.259	16226
916.371	16265
916.483	16272
916.595	16071
916.708	16147
916.82	16082
916.932	16036
917.044	16071
917.156	16021
917.268	15876
917.38	15998
917.491	15972
917.603	15880
917.715	15975
917.826	16002
917.938	15850
918.049	15778
918.161	15778
918.272	16040
918.384	15911
918.495	15865
918.606	15663
918.717	15595
918.828	15698
918.939	15686
919.05	15496
919.161	15568
919.272	15428
919.383	15428
919.494	15713
919.604	15762
919.715	15614
919.826	15534
919.936	15652
920.047	15663
920.157	15633
920.267	15717
920.378	15603
920.488	15549
920.598	15694
920.708	15819
920.818	15724
920.928	15728
921.038	15857
921.148	15793
921.258	15477
921.368	15454
921.477	15291
921.587	15332
921.697	15138
921.806	15138
921.916	15268
922.025	14979
922.134	14933
922.244	14868
922.353	14982
922.462	14830
922.571	14644
922.68	14590
922.789	14545
922.898	14579
923.007	14495
923.116	14606
923.224	14587
923.333	14518
923.442	14492
923.55	14358
923.659	14488
923.767	14339
923.876	14355
923.984	14457
924.092	14248
924.201	14259
924.309	14336
924.417	14317
924.525	14305
924.633	14218
924.741	15081
924.849	14024
924.956	14119
925.064	13822
925.172	13887
925.279	13902
925.387	13921
925.494	13894
925.602	14046
925.709	13940
925.816	13833
925.924	13856
926.031	13970
926.138	13791
926.245	13932
926.352	13636
926.459	13826
926.566	13780
926.673	13811
926.779	13696
926.886	13594
926.993	13556
927.099	13438
927.206	13369
927.312	13369
927.419	13544
927.525	13430
927.631	13453
927.737	13316
927.843	13339
927.95	13099
928.056	13263
928.162	13251
928.267	13343
928.373	13925
928.479	13244
928.585	13091
928.69	13274
928.796	13263
928.901	13091
929.007	12924
929.112	13114
929.218	13038
929.323	12985
929.428	12996
929.533	13091
929.638	12825
929.743	12973
929.848	12947
929.953	12932
930.058	12722
930.163	12544
930.267	12612
930.372	12700
930.477	12551
930.581	12757
930.685	12544
930.79	12422
930.894	12502
930.998	12494
931.103	12623
931.207	12342
931.311	12110
931.415	12045
931.519	11821
931.623	11859
