Data from test_V78500241_975.txt Node
Date: Fri Mar 25 15:48:33 CST 2022
User: usil
Spectrometer: V785-0024
Trigger mode: 0
Integration Time (sec): 4.000000E-1
Scans to average: 1
Nonlinearity correction enabled: false
Boxcar width: 0
Storing dark spectrum: false
XAxis mode: Wavelengths
Number of Pixels in Spectrum: 1024
>>>>>Begin Spectral Data<<<<<
801.071	28634
801.214	28611
801.356	28325
801.499	28322
801.641	28162
801.783	28135
801.926	28181
802.068	28291
802.211	27972
802.353	28067
802.496	27953
802.638	27819
802.78	27785
802.923	27785
803.065	27762
803.208	27789
803.35	27899
803.492	27857
803.635	27934
803.777	27945
803.919	28097
804.061	28371
804.204	28135
804.346	28109
804.488	27926
804.63	28032
804.773	27972
804.915	28013
805.057	27991
805.199	28013
805.341	28188
805.483	28116
805.626	28436
805.768	28032
805.91	28128
806.052	28215
806.194	28112
806.336	28424
806.478	28143
806.62	28291
806.762	28344
806.904	28531
807.046	28755
807.188	28691
807.33	28653
807.472	28733
807.614	28504
807.756	28668
807.898	28577
808.04	28485
808.182	28493
808.324	28580
808.465	28592
808.607	28702
808.749	28831
808.891	28888
809.033	29178
809.174	28767
809.316	29067
809.458	28824
809.6	28793
809.741	28953
809.883	29102
810.025	29254
810.166	29231
810.308	29239
810.45	29166
810.591	29075
810.733	28953
810.875	28888
811.016	28687
811.158	28793
811.299	29086
811.441	28957
811.582	29227
811.724	29029
811.865	28873
812.007	28942
812.148	28995
812.29	28900
812.431	29117
812.573	29216
812.714	29341
812.855	29398
812.997	29478
813.138	29695
813.279	29581
813.421	29353
813.562	29429
813.703	29273
813.845	29345
813.986	28934
814.127	28672
814.268	28645
814.41	28565
814.551	28550
814.692	28786
814.833	28542
814.974	28683
815.115	28687
815.256	28519
815.397	28443
815.539	28542
815.68	28398
815.821	28265
815.962	28512
816.103	28440
816.244	28360
816.385	28257
816.526	28105
816.666	28059
816.807	27945
816.948	28040
817.089	28074
817.23	27975
817.371	27991
817.512	27838
817.653	27941
817.793	27861
817.934	27857
818.075	27937
818.216	27964
818.356	27857
818.497	27755
818.638	27534
818.778	27762
818.919	27698
819.06	27747
819.2	27842
819.341	28025
819.481	27911
819.622	28067
819.762	28162
819.903	28272
820.043	28063
820.184	28021
820.324	28044
820.465	28207
820.605	27983
820.746	27983
820.886	27937
821.026	27892
821.167	28086
821.307	28192
821.447	28017
821.588	27945
821.728	27838
821.868	27538
822.008	27439
822.149	27405
822.289	27549
822.429	27028
822.569	27123
822.709	27157
822.849	26929
822.99	26937
823.13	26838
823.27	26944
823.41	26804
823.55	26495
823.69	26720
823.83	26754
823.97	26716
824.11	26568
824.25	26549
824.389	26651
824.529	26689
824.669	26587
824.809	26727
824.949	26743
825.089	26773
825.228	26583
825.368	26351
825.508	26324
825.648	26571
825.787	26499
825.927	26511
826.067	26484
826.206	26549
826.346	26549
826.485	26393
826.625	26412
826.765	26549
826.904	26393
827.044	26168
827.183	26191
827.323	26122
827.462	26290
827.601	26202
827.741	26164
827.88	26202
828.02	26016
828.159	26077
828.298	26046
828.437	26309
828.577	26161
828.716	26202
828.855	26122
828.994	25928
829.134	25871
829.273	25894
829.412	25788
829.551	25833
829.69	25883
829.829	25890
829.968	25879
830.107	25879
830.246	25879
830.385	25845
830.524	25715
830.663	25693
830.802	25605
830.941	25453
831.08	25335
831.219	25609
831.357	25483
831.496	25670
831.635	25415
831.774	25308
831.913	25320
832.051	25228
832.19	25198
832.329	25354
832.467	25179
832.606	25171
832.744	25175
832.883	25171
833.022	25099
833.16	25247
833.299	25259
833.437	25263
833.576	25164
833.714	25255
833.852	25228
833.991	25263
834.129	25301
834.267	25198
834.406	25198
834.544	25247
834.682	25183
834.821	25209
834.959	25282
835.097	25027
835.235	25312
835.373	25247
835.511	25148
835.65	25141
835.788	25023
835.926	25008
836.064	24905
836.202	24962
836.34	25050
836.478	25122
836.615	24856
836.753	25118
836.891	25072
837.029	25000
837.167	24954
837.305	24894
837.443	24909
837.58	24878
837.718	24913
837.856	24928
837.993	24703
838.131	24764
838.269	24715
838.406	24711
838.544	24681
838.681	24540
838.819	24479
838.956	24239
839.094	24216
839.231	24372
839.369	24616
839.506	24745
839.643	24593
839.781	24433
839.918	24350
840.055	24350
840.193	24262
840.33	24148
840.467	24262
840.604	24262
840.742	24635
840.879	24330
841.016	24178
841.153	24201
841.29	24334
841.427	24125
841.564	24384
841.701	24163
841.838	24038
841.975	24201
842.112	24182
842.249	24079
842.385	23889
842.522	24292
842.659	24114
842.796	23946
842.933	23977
843.069	23874
843.206	24045
843.343	23999
843.479	23988
843.616	23954
843.752	23775
843.889	23802
844.025	23813
844.162	23672
844.298	23794
844.435	23821
844.571	23737
844.708	23802
844.844	24003
844.98	23916
845.117	23923
845.253	23649
845.389	23566
845.525	23611
845.661	23600
845.798	23547
845.934	23585
846.07	23524
846.206	23512
846.342	23524
846.478	23535
846.614	23269
846.75	23189
846.886	23204
847.022	23299
847.158	23364
847.294	23170
847.429	23155
847.565	23075
847.701	23376
847.837	22984
847.972	22877
848.108	23067
848.244	22953
848.379	22824
848.515	22816
848.65	22793
848.786	22904
848.921	22729
849.057	22957
849.192	22820
849.328	22877
849.463	22839
849.598	22759
849.734	22683
849.869	22607
850.004	22557
850.14	22504
850.275	22565
850.41	22508
850.545	22561
850.68	22546
850.815	22519
850.95	22634
851.085	22702
851.22	22675
851.355	22569
851.49	22554
851.625	22504
851.76	22596
851.895	22440
852.03	22470
852.165	22538
852.299	22607
852.434	22729
852.569	22565
852.703	22554
852.838	22596
852.973	22649
853.107	22649
853.242	22500
853.376	22303
853.511	22280
853.645	22348
853.78	22394
853.914	22394
854.048	22268
854.183	22299
854.317	22325
854.451	22584
854.585	22367
854.72	22295
854.854	22329
854.988	22287
855.122	22462
855.256	22234
855.39	22272
855.524	22481
855.658	22310
855.792	22382
855.926	22398
856.06	22417
856.194	22382
856.327	22291
856.461	22322
856.595	22295
856.729	22333
856.862	22519
856.996	22459
857.13	22485
857.263	22573
857.397	22379
857.53	22348
857.664	22379
857.797	22493
857.931	22542
858.064	22382
858.197	22500
858.331	22413
858.464	22382
858.597	22268
858.731	22371
858.864	22249
858.997	22318
859.13	22344
859.263	22386
859.396	22443
859.529	22322
859.662	22333
859.795	22287
859.928	22493
860.061	22462
860.194	22462
860.327	22428
860.46	22417
860.592	22497
860.725	22535
860.858	22459
860.99	22280
861.123	22265
861.256	22246
861.388	22527
861.521	23003
861.653	22276
861.786	22139
861.918	22147
862.05	22173
862.183	22181
862.315	22261
862.447	22478
862.58	22348
862.712	22017
862.844	21979
862.976	22055
863.108	22147
863.24	22523
863.372	22067
863.504	22078
863.636	22086
863.768	22101
863.9	22147
864.032	22013
864.164	22097
864.296	22139
864.428	22139
864.559	22135
864.691	22082
864.823	22040
864.954	21934
865.086	21998
865.217	21979
865.349	21895
865.48	22013
865.612	21930
865.743	21964
865.875	21892
866.006	21991
866.137	21972
866.269	22044
866.4	21915
866.531	21846
866.662	21865
866.793	21953
866.924	21956
867.055	21979
867.186	21831
867.317	21835
867.448	21774
867.579	21778
867.71	21800
867.841	21812
867.972	21873
868.103	21876
868.233	21869
868.364	21949
868.495	21979
868.625	22032
868.756	22204
868.886	22097
869.017	22261
869.147	22139
869.278	22268
869.408	22070
869.539	22147
869.669	22154
869.799	22162
869.929	22329
870.06	22329
870.19	22402
870.32	22337
870.45	22455
870.58	22443
870.71	22478
870.84	22702
870.97	22531
871.1	22546
871.23	22710
871.36	22774
871.489	22615
871.619	22664
871.749	22550
871.879	22801
872.008	22816
872.138	22645
872.267	22656
872.397	22523
872.526	22485
872.656	22588
872.785	22569
872.915	22679
873.044	22869
873.173	22740
873.303	22763
873.432	22782
873.561	22858
873.69	22774
873.819	22691
873.948	22809
874.077	22797
874.206	22656
874.335	22767
874.464	22801
874.593	22957
874.722	22854
874.851	22957
874.979	23136
875.108	22946
875.237	22942
875.365	22790
875.494	22839
875.623	22930
875.751	22793
875.88	22877
876.008	23105
876.136	23174
876.265	23250
876.393	23482
876.521	23345
876.65	23372
876.778	23277
876.906	23189
877.034	23254
877.162	23200
877.29	23265
877.418	23220
877.546	23299
877.674	23235
877.802	23315
877.93	23330
878.058	23292
878.185	23124
878.313	23250
878.441	23227
878.568	23166
878.696	23204
878.824	23296
878.951	23326
879.079	23547
879.206	23516
879.333	23376
879.461	23220
879.588	23383
879.715	23429
879.842	23570
879.97	23395
880.097	23200
880.224	23109
880.351	23033
880.478	23143
880.605	23124
880.732	23056
880.859	23356
880.986	23094
881.112	23181
881.239	22961
881.366	22790
881.493	22706
881.619	22656
881.746	22729
881.872	22592
881.999	22618
882.125	22577
882.252	22725
882.378	22691
882.505	22641
882.631	22470
882.757	22303
882.883	22306
883.01	22379
883.136	22379
883.262	22306
883.388	22272
883.514	22333
883.64	22322
883.766	22181
883.892	22226
884.018	22192
884.143	22303
884.269	22428
884.395	22109
884.52	21964
884.646	21991
884.772	21945
884.897	21823
885.023	21876
885.148	21979
885.274	22112
885.399	22120
885.524	21949
885.65	21998
885.775	22048
885.9	21907
886.025	22044
886.15	22112
886.275	21930
886.4	21861
886.525	21854
886.65	21728
886.775	21907
886.9	22032
887.025	22276
887.149	21884
887.274	21717
887.399	21686
887.523	21705
887.648	21682
887.773	21774
887.897	21930
888.021	21713
888.146	21637
888.27	21812
888.395	21785
888.519	21888
888.643	21751
888.767	21804
888.891	21564
889.015	21599
889.139	21610
889.263	21507
889.387	21576
889.511	21694
889.635	21694
889.759	21454
889.883	21439
890.006	21462
890.13	21622
890.254	21500
890.377	21462
890.501	21374
890.624	21192
890.748	21355
890.871	21207
890.995	21058
891.118	21043
891.241	21062
891.364	21123
891.488	21188
891.611	21127
891.734	21043
891.857	21150
891.98	21009
892.103	21188
892.226	20986
892.349	21020
892.471	20853
892.594	21009
892.717	21119
892.839	20948
892.962	21009
893.085	20986
893.207	20834
893.33	20864
893.452	20979
893.575	21005
893.697	20952
893.819	21108
893.941	21157
894.064	21062
894.186	20876
894.308	20834
894.43	21020
894.552	21001
894.674	21070
894.796	20876
894.918	20918
895.04	20868
895.161	21032
895.283	20994
895.405	20834
895.526	20857
895.648	21096
895.769	20937
895.891	21089
896.012	21119
896.134	21081
896.255	20872
896.376	20834
896.498	20925
896.619	20967
896.74	20845
896.861	21028
896.982	21268
897.103	21348
897.224	21222
897.345	21146
897.466	21173
897.587	21169
897.708	21180
897.828	21138
897.949	21214
898.07	21020
898.19	21188
898.311	21237
898.431	21184
898.552	21066
898.672	21241
898.792	21355
898.913	21176
899.033	21009
899.153	20990
899.273	20849
899.393	20952
899.513	20963
899.633	20861
899.753	20864
899.873	20750
899.993	20883
900.113	20819
900.232	20720
900.352	20769
900.472	20746
900.591	20670
900.711	20697
900.83	20602
900.95	20765
901.069	20796
901.189	20503
901.308	20495
901.427	20126
901.546	20233
901.665	20218
901.784	20278
901.904	19967
902.023	19978
902.141	19776
902.26	19700
902.379	19887
902.498	19811
902.617	19655
902.735	19704
902.854	19613
902.973	19597
903.091	19533
903.21	19407
903.328	19343
903.446	19232
903.565	19202
903.683	19270
903.801	19015
903.919	19206
904.038	19137
904.156	18913
904.274	18962
904.392	18905
904.51	18970
904.627	18795
904.745	19008
904.863	19012
904.981	18734
905.098	18658
905.216	18642
905.334	18749
905.451	18593
905.569	18623
905.686	18681
905.803	18528
905.921	18475
906.038	18464
906.155	18471
906.272	18304
906.389	18369
906.506	18201
906.623	18087
906.74	18216
906.857	17999
906.974	17878
907.091	18136
907.208	18308
907.324	18079
907.441	18015
907.557	17828
907.674	17912
907.79	17802
907.907	17939
908.023	17882
908.139	17878
908.256	17668
908.372	17703
908.488	17691
908.604	17596
908.72	17535
908.836	17436
908.952	17509
909.068	17562
909.184	17512
909.3	17512
909.415	17577
909.531	17573
909.647	17250
909.762	17334
909.878	17231
909.993	17246
910.108	17128
910.224	17189
910.339	17159
910.454	17143
910.57	16987
910.685	16942
910.8	17212
910.915	17261
911.03	17037
911.145	16900
911.259	16892
911.374	16774
911.489	16877
911.604	16797
911.718	16538
911.833	16668
911.947	16508
912.062	16333
912.176	16607
912.291	16489
912.405	16588
912.519	16820
912.633	16782
912.748	16706
912.862	16443
912.976	16443
913.09	16226
913.204	16280
913.318	16344
913.431	16554
913.545	16474
913.659	16421
913.772	16356
913.886	16246
914	16257
914.113	16318
914.226	16322
914.34	16204
914.453	16032
914.566	16249
914.68	16055
914.793	15972
914.906	15865
915.019	15759
915.132	15751
915.245	15808
915.358	15759
915.47	15808
915.583	15690
915.696	15751
915.809	15922
915.921	16002
916.034	15728
916.146	15614
916.259	15694
916.371	15682
916.483	15679
916.595	15675
916.708	15557
916.82	15610
916.932	15538
917.044	15492
917.156	15458
917.268	15405
917.38	15408
917.491	15306
917.603	15435
917.715	15481
917.826	15473
917.938	15336
918.049	15249
918.161	15302
918.272	15599
918.384	15538
918.495	15351
918.606	15241
918.717	15157
918.828	15233
918.939	15184
919.05	15142
919.161	15108
919.272	14929
919.383	14967
919.494	15169
919.604	15378
919.715	15138
919.826	14994
919.936	15070
920.047	15176
920.157	15089
920.267	15310
920.378	15062
920.488	15081
920.598	15260
920.708	15310
920.818	15279
920.928	15199
921.038	15344
921.148	15344
921.258	15119
921.368	14864
921.477	14868
921.587	14750
921.697	14632
921.806	14807
921.916	14720
922.025	14476
922.134	14434
922.244	14476
922.353	14431
922.462	14294
922.571	14202
922.68	14103
922.789	14138
922.898	14180
923.007	14039
923.116	13986
923.224	14107
923.333	13993
923.442	13967
923.55	13928
923.659	13970
923.767	13940
923.876	13830
923.984	14012
924.092	13753
924.201	13841
924.309	13890
924.417	13833
924.525	13784
924.633	13738
924.741	14674
924.849	13495
924.956	13613
925.064	13537
925.172	13400
925.279	13472
925.387	13464
925.494	13476
925.602	13529
925.709	13575
925.816	13346
925.924	13403
926.031	13548
926.138	13415
926.245	13415
926.352	13221
926.459	13491
926.566	13457
926.673	13354
926.779	13122
926.886	13213
926.993	13061
927.099	13023
927.206	13099
927.312	12985
927.419	13088
927.525	13038
927.631	13107
927.737	12939
927.843	12943
927.95	12741
928.056	12772
928.162	12886
928.267	12913
928.373	13445
928.479	12920
928.585	12673
928.69	12806
928.796	12909
928.901	12620
929.007	12547
929.112	12764
929.218	12642
929.323	12582
929.428	12509
929.533	12616
929.638	12441
929.743	12506
929.848	12559
929.953	12578
930.058	12357
930.163	12197
930.267	12315
930.372	12251
930.477	12209
930.581	12483
930.685	12273
930.79	12068
930.894	12144
930.998	12140
931.103	12254
931.207	11832
931.311	11847
931.415	11703
931.519	11520
931.623	11436
