Data from test_V78500241_263.txt Node
Date: Fri Mar 25 15:43:37 CST 2022
User: usil
Spectrometer: V785-0024
Trigger mode: 0
Integration Time (sec): 4.000000E-1
Scans to average: 1
Nonlinearity correction enabled: false
Boxcar width: 0
Storing dark spectrum: false
XAxis mode: Wavelengths
Number of Pixels in Spectrum: 1024
>>>>>Begin Spectral Data<<<<<
801.071	29672
801.214	29767
801.356	29353
801.499	29398
801.641	29334
801.783	29395
801.926	29455
802.068	29250
802.211	29113
802.353	29174
802.496	29113
802.638	28862
802.78	28778
802.923	28877
803.065	28850
803.208	28942
803.35	29018
803.492	29003
803.635	29193
803.777	29037
803.919	29162
804.061	29429
804.204	29231
804.346	28995
804.488	28927
804.63	29048
804.773	28923
804.915	29079
805.057	29178
805.199	29113
805.341	29170
805.483	29151
805.626	29200
805.768	29022
805.91	29140
806.052	29044
806.194	29067
806.336	29406
806.478	29162
806.62	29189
806.762	29349
806.904	29402
807.046	29786
807.188	29619
807.33	29570
807.472	29547
807.614	29596
807.756	29581
807.898	29417
808.04	29417
808.182	29467
808.324	29436
808.465	29410
808.607	29528
808.749	29596
808.891	29847
809.033	29893
809.174	29737
809.316	29824
809.458	29851
809.6	29703
809.741	29802
809.883	30087
810.025	30049
810.166	30152
810.308	30136
810.45	29878
810.591	30129
810.733	29840
810.875	29874
811.016	29798
811.158	29672
811.299	29874
811.441	29954
811.582	30007
811.724	29783
811.865	29817
812.007	29676
812.148	29745
812.29	30018
812.431	29935
812.573	30220
812.714	30330
812.855	30327
812.997	30304
813.138	30703
813.279	30517
813.421	30334
813.562	30395
813.703	30228
813.845	29904
813.986	29866
814.127	29570
814.268	29406
814.41	29547
814.551	29417
814.692	29592
814.833	29391
814.974	29467
815.115	29417
815.256	29277
815.397	29375
815.539	29368
815.68	29155
815.821	29246
815.962	29258
816.103	29197
816.244	29105
816.385	28930
816.526	29140
816.666	28774
816.807	28569
816.948	28759
817.089	28759
817.23	28691
817.371	28618
817.512	28592
817.653	28634
817.793	28580
817.934	28653
818.075	28649
818.216	28630
818.356	28481
818.497	28421
818.638	28386
818.778	28310
818.919	28440
819.06	28478
819.2	28535
819.341	28618
819.481	28691
819.622	28641
819.762	28980
819.903	28957
820.043	28896
820.184	28888
820.324	28748
820.465	28752
820.605	28637
820.746	28630
820.886	28481
821.026	28710
821.167	28664
821.307	28740
821.447	28694
821.588	28497
821.728	28401
821.868	28112
822.008	28013
822.149	27987
822.289	27972
822.429	27778
822.569	27785
822.709	27713
822.849	27614
822.99	27462
823.13	27599
823.27	27458
823.41	27310
823.55	27256
823.69	27180
823.83	27424
823.97	27359
824.11	27135
824.25	27108
824.389	27119
824.529	27192
824.669	26986
824.809	27146
824.949	27066
825.089	27279
825.228	27184
825.368	26982
825.508	27070
825.648	26929
825.787	27013
825.927	27028
826.067	26823
826.206	26910
826.346	27047
826.485	27047
826.625	26902
826.765	27070
826.904	27093
827.044	26769
827.183	26583
827.323	26708
827.462	26667
827.601	26670
827.741	26667
827.88	26701
828.02	26480
828.159	26590
828.298	26625
828.437	26682
828.577	26476
828.716	26838
828.855	26609
828.994	26400
829.134	26393
829.273	26434
829.412	26404
829.551	26168
829.69	26180
829.829	26393
829.968	26404
830.107	26328
830.246	26240
830.385	26233
830.524	26176
830.663	25997
830.802	26077
830.941	26031
831.08	25811
831.219	26046
831.357	25902
831.496	25970
831.635	25814
831.774	25799
831.913	25635
832.051	25677
832.19	25746
832.329	25727
832.467	25556
832.606	25567
832.744	25407
832.883	25567
833.022	25426
833.16	25670
833.299	25411
833.437	25624
833.576	25502
833.714	25594
833.852	25613
833.991	25643
834.129	25643
834.267	25712
834.406	25419
834.544	25533
834.682	25479
834.821	25578
834.959	25639
835.097	25499
835.235	25559
835.373	25639
835.511	25567
835.65	25304
835.788	25240
835.926	25259
836.064	25168
836.202	25270
836.34	25297
836.478	25373
836.615	25377
836.753	25430
836.891	25521
837.029	25304
837.167	25263
837.305	25156
837.443	25232
837.58	25168
837.718	25228
837.856	25297
837.993	25148
838.131	25118
838.269	25091
838.406	25031
838.544	24947
838.681	24920
838.819	24837
838.956	24536
839.094	24528
839.231	24654
839.369	24700
839.506	25012
839.643	24875
839.781	24604
839.918	24589
840.055	24513
840.193	24498
840.33	24513
840.467	24517
840.604	24433
840.742	24768
840.879	24437
841.016	24445
841.153	24418
841.29	24563
841.427	24467
841.564	24475
841.701	24433
841.838	24475
841.975	24418
842.112	24376
842.249	24357
842.385	24182
842.522	24376
842.659	24277
842.796	24258
842.933	24197
843.069	24174
843.206	24064
843.343	24182
843.479	24098
843.616	24038
843.752	23996
843.889	23912
844.025	24087
844.162	23870
844.298	23969
844.435	23855
844.571	23722
844.708	23866
844.844	23984
844.98	23965
845.117	24030
845.253	23843
845.389	23680
845.525	23794
845.661	23828
845.798	23543
845.934	23687
846.07	23691
846.206	23630
846.342	23760
846.478	23619
846.614	23539
846.75	23208
846.886	23326
847.022	23368
847.158	23296
847.294	23360
847.429	23376
847.565	23330
847.701	23615
847.837	23197
847.972	23033
848.108	23117
848.244	23094
848.379	22915
848.515	22999
848.65	22847
848.786	22850
848.921	22869
849.057	23029
849.192	22980
849.328	22927
849.463	23003
849.598	22904
849.734	22805
849.869	22675
850.004	22573
850.14	22744
850.275	22672
850.41	22538
850.545	22535
850.68	22596
850.815	22725
850.95	22580
851.085	22771
851.22	22615
851.355	22653
851.49	22664
851.625	22451
851.76	22523
851.895	22649
852.03	22565
852.165	22664
852.299	22683
852.434	22725
852.569	22645
852.703	22596
852.838	22615
852.973	22725
853.107	22691
853.242	22535
853.376	22382
853.511	22375
853.645	22299
853.78	22497
853.914	22417
854.048	22341
854.183	22310
854.317	22341
854.451	22630
854.585	22352
854.72	22413
854.854	22497
854.988	22443
855.122	22390
855.256	22219
855.39	22527
855.524	22504
855.658	22325
855.792	22413
855.926	22409
856.06	22447
856.194	22538
856.327	22379
856.461	22276
856.595	22508
856.729	22371
856.862	22489
856.996	22341
857.13	22428
857.263	22424
857.397	22394
857.53	22478
857.664	22481
857.797	22257
857.931	22542
858.064	22386
858.197	22398
858.331	22379
858.464	22207
858.597	22249
858.731	22341
858.864	22402
858.997	22447
859.13	22329
859.263	22360
859.396	22363
859.529	22432
859.662	22348
859.795	22306
859.928	22306
860.061	22500
860.194	22474
860.327	22440
860.46	22371
860.592	22451
860.725	22409
860.858	22527
860.99	22341
861.123	22253
861.256	22265
861.388	22398
861.521	23052
861.653	22291
861.786	22272
861.918	22204
862.05	22299
862.183	22379
862.315	22417
862.447	22535
862.58	22325
862.712	22051
862.844	22158
862.976	22314
863.108	22059
863.24	22481
863.372	21983
863.504	22006
863.636	22063
863.768	22048
863.9	22196
864.032	21918
864.164	21953
864.296	22048
864.428	22109
864.559	22059
864.691	22082
864.823	22105
864.954	21915
865.086	21956
865.217	21934
865.349	21930
865.48	21945
865.612	21922
865.743	22032
865.875	21953
866.006	21899
866.137	21941
866.269	21895
866.4	21941
866.531	21899
866.662	21819
866.793	21838
866.924	21732
867.055	21892
867.186	21816
867.317	21812
867.448	21728
867.579	21846
867.71	21751
867.841	21709
867.972	21770
868.103	21831
868.233	21884
868.364	21781
868.495	21888
868.625	22017
868.756	22109
868.886	21903
869.017	22116
869.147	22112
869.278	22192
869.408	22040
869.539	22097
869.669	22105
869.799	22055
869.929	22246
870.06	22329
870.19	22424
870.32	22382
870.45	22398
870.58	22436
870.71	22668
870.84	22546
870.97	22398
871.1	22512
871.23	22550
871.36	22577
871.489	22588
871.619	22478
871.749	22565
871.879	22831
872.008	22869
872.138	22634
872.267	22577
872.397	22664
872.526	22554
872.656	22512
872.785	22519
872.915	22607
873.044	22607
873.173	22554
873.303	22744
873.432	22820
873.561	22816
873.69	22683
873.819	22565
873.948	22717
874.077	22691
874.206	22649
874.335	22584
874.464	22759
874.593	22995
874.722	22736
874.851	22919
874.979	22881
875.108	22965
875.237	22881
875.365	22828
875.494	22869
875.623	22839
875.751	22793
875.88	22801
876.008	22957
876.136	23018
876.265	23197
876.393	23410
876.521	23360
876.65	23235
876.778	23174
876.906	23315
877.034	23231
877.162	23170
877.29	23216
877.418	23311
877.546	23208
877.674	23246
877.802	23258
877.93	23162
878.058	23242
878.185	23185
878.313	23166
878.441	23261
878.568	23018
878.696	23242
878.824	23349
878.951	23307
879.079	23315
879.206	23539
879.333	23414
879.461	23455
879.588	23315
879.715	23387
879.842	23417
879.97	23368
880.097	23037
880.224	22843
880.351	23079
880.478	23117
880.605	23048
880.732	23037
880.859	23326
880.986	22991
881.112	23086
881.239	22987
881.366	22862
881.493	22805
881.619	22733
881.746	22691
881.872	22736
881.999	22675
882.125	22569
882.252	22729
882.378	22607
882.505	22729
882.631	22557
882.757	22500
882.883	22367
883.01	22413
883.136	22230
883.262	22181
883.388	22177
883.514	22432
883.64	22360
883.766	22344
883.892	22109
884.018	22230
884.143	22200
884.269	22421
884.395	21922
884.52	22070
884.646	21949
884.772	21918
884.897	21964
885.023	22029
885.148	22166
885.274	22101
885.399	22135
885.524	21907
885.65	21998
885.775	21911
885.9	21869
886.025	22074
886.15	21968
886.275	21842
886.4	21960
886.525	21800
886.65	21880
886.775	21842
886.9	22070
887.025	22177
887.149	21968
887.274	21583
887.399	21686
887.523	21675
887.648	21603
887.773	21572
887.897	21724
888.021	21781
888.146	21717
888.27	21675
888.395	21994
888.519	21690
888.643	21732
888.767	21781
888.891	21625
889.015	21481
889.139	21561
889.263	21473
889.387	21557
889.511	21622
889.635	21576
889.759	21393
889.883	21424
890.006	21469
890.13	21538
890.254	21412
890.377	21222
890.501	21291
890.624	21173
890.748	21313
890.871	21192
890.995	21009
891.118	20880
891.241	21009
891.364	21100
891.488	21165
891.611	21028
891.734	20967
891.857	20956
891.98	21009
892.103	21123
892.226	21020
892.349	20906
892.471	20857
892.594	20990
892.717	20933
892.839	21039
892.962	20948
893.085	21020
893.207	20906
893.33	20781
893.452	20807
893.575	20956
893.697	20918
893.819	21066
893.941	21077
894.064	20979
894.186	20781
894.308	20819
894.43	20891
894.552	21085
894.674	20883
894.796	20807
894.918	20925
895.04	20944
895.161	20994
895.283	20921
895.405	20998
895.526	20895
895.648	20929
895.769	20902
895.891	20929
896.012	21020
896.134	21013
896.255	21001
896.376	20899
896.498	20891
896.619	20956
896.74	20899
896.861	20941
896.982	21374
897.103	21473
897.224	21203
897.345	21119
897.466	21017
897.587	21184
897.708	21287
897.828	21230
897.949	21058
898.07	21020
898.19	20986
898.311	21233
898.431	21093
898.552	21138
898.672	21135
898.792	21154
898.913	21135
899.033	20914
899.153	20868
899.273	20815
899.393	20849
899.513	20727
899.633	20746
899.753	20849
899.873	20743
899.993	20830
900.113	20720
900.232	20819
900.352	20724
900.472	20705
900.591	20587
900.711	20701
900.83	20492
900.95	20670
901.069	20659
901.189	20492
901.308	20240
901.427	20191
901.546	20195
901.665	20294
901.784	20172
901.904	19982
902.023	19906
902.141	19723
902.26	19700
902.379	19723
902.498	19605
902.617	19594
902.735	19693
902.854	19613
902.973	19472
903.091	19297
903.21	19316
903.328	19285
903.446	19145
903.565	19122
903.683	19107
903.801	18989
903.919	19084
904.038	19084
904.156	18897
904.274	18943
904.392	18878
904.51	18802
904.627	18825
904.745	18863
904.863	18829
904.981	18688
905.098	18410
905.216	18483
905.334	18521
905.451	18589
905.569	18479
905.686	18445
905.803	18517
905.921	18247
906.038	18410
906.155	18418
906.272	18243
906.389	18167
906.506	18030
906.623	18121
906.74	18007
906.857	18007
906.974	17988
907.091	18079
907.208	18197
907.324	18049
907.441	17885
907.557	17703
907.674	17581
907.79	17634
907.907	17878
908.023	17790
908.139	17756
908.256	17615
908.372	17619
908.488	17554
908.604	17417
908.72	17436
908.836	17440
908.952	17296
909.068	17421
909.184	17547
909.3	17353
909.415	17406
909.531	17376
909.647	17113
909.762	17128
909.878	17113
909.993	17071
910.108	17022
910.224	17010
910.339	17090
910.454	16930
910.57	16904
910.685	16774
910.8	16987
910.915	16991
911.03	16767
911.145	16706
911.259	16713
911.374	16618
911.489	16573
911.604	16512
911.718	16474
911.833	16363
911.947	16257
912.062	16166
912.176	16371
912.291	16394
912.405	16428
912.519	16668
912.633	16489
912.748	16455
912.862	16337
912.976	16128
913.09	16067
913.204	16158
913.318	16162
913.431	16280
913.545	16196
913.659	16169
913.772	16105
913.886	15899
914	16048
914.113	16044
914.226	16109
914.34	16109
914.453	15876
914.566	16074
914.68	15945
914.793	15892
914.906	15705
915.019	15648
915.132	15481
915.245	15545
915.358	15507
915.47	15595
915.583	15591
915.696	15603
915.809	15709
915.921	15682
916.034	15408
916.146	15435
916.259	15485
916.371	15549
916.483	15473
916.595	15367
916.708	15397
916.82	15416
916.932	15370
917.044	15348
917.156	15340
917.268	15233
917.38	15230
917.491	15207
917.603	15173
917.715	15195
917.826	15310
917.938	15173
918.049	15020
918.161	15226
918.272	15302
918.384	15207
918.495	15119
918.606	15001
918.717	14994
918.828	14902
918.939	15039
919.05	14887
919.161	14910
919.272	14731
919.383	14724
919.494	14902
919.604	15036
919.715	14918
919.826	14872
919.936	14967
920.047	14910
920.157	14883
920.267	15077
920.378	14925
920.488	14834
920.598	15024
920.708	15157
920.818	15066
920.928	14994
921.038	15184
921.148	15066
921.258	14876
921.368	14674
921.477	14686
921.587	14610
921.697	14545
921.806	14678
921.916	14507
922.025	14339
922.134	14191
922.244	14278
922.353	14263
922.462	14134
922.571	14054
922.68	13833
922.789	13978
922.898	13864
923.007	13708
923.116	13936
923.224	13898
923.333	13864
923.442	13734
923.55	13715
923.659	13750
923.767	13875
923.876	13700
923.984	13689
924.092	13620
924.201	13632
924.309	13643
924.417	13590
924.525	13525
924.633	13575
924.741	14351
924.849	13373
924.956	13453
925.064	13297
925.172	13236
925.279	13244
925.387	13324
925.494	13259
925.602	13419
925.709	13327
925.816	13171
925.924	13255
926.031	13289
926.138	13160
926.245	13190
926.352	13129
926.459	13293
926.566	13304
926.673	13194
926.779	13053
926.886	12970
926.993	12932
927.099	12901
927.206	12776
927.312	12806
927.419	12886
927.525	12810
927.631	12829
927.737	12783
927.843	12741
927.95	12684
928.056	12715
928.162	12669
928.267	12696
928.373	13358
928.479	12738
928.585	12544
928.69	12582
928.796	12673
928.901	12483
929.007	12380
929.112	12525
929.218	12464
929.323	12433
929.428	12422
929.533	12547
929.638	12338
929.743	12266
929.848	12399
929.953	12304
930.058	12102
930.163	11961
930.267	12003
930.372	12125
930.477	12049
930.581	12273
930.685	12125
930.79	11958
930.894	11980
930.998	11935
931.103	11999
931.207	11589
931.311	11653
931.415	11486
931.519	11318
931.623	11299
