Data from test_V78500241_2591.txt Node
Date: Fri Mar 25 15:59:44 CST 2022
User: usil
Spectrometer: V785-0024
Trigger mode: 0
Integration Time (sec): 4.000000E-1
Scans to average: 1
Nonlinearity correction enabled: false
Boxcar width: 0
Storing dark spectrum: false
XAxis mode: Wavelengths
Number of Pixels in Spectrum: 1024
>>>>>Begin Spectral Data<<<<<
801.071	28459
801.214	28451
801.356	28303
801.499	28211
801.641	28097
801.783	27994
801.926	28230
802.068	28162
802.211	28196
802.353	28082
802.496	27736
802.638	27838
802.78	27747
802.923	27762
803.065	27648
803.208	27705
803.35	27743
803.492	27949
803.635	28048
803.777	27850
803.919	28105
804.061	28382
804.204	28147
804.346	27838
804.488	27953
804.63	27911
804.773	28093
804.915	28185
805.057	28265
805.199	28044
805.341	28158
805.483	28139
805.626	28143
805.768	28017
805.91	28344
806.052	28246
806.194	28017
806.336	28360
806.478	28257
806.62	28124
806.762	28455
806.904	28538
807.046	28687
807.188	28504
807.33	28656
807.472	28771
807.614	28424
807.756	28702
807.898	28485
808.04	28367
808.182	28485
808.324	28573
808.465	28554
808.607	28672
808.749	28736
808.891	28888
809.033	29041
809.174	28816
809.316	28965
809.458	28869
809.6	28805
809.741	28919
809.883	29048
810.025	29246
810.166	29098
810.308	29083
810.45	28980
810.591	29041
810.733	28923
810.875	28801
811.016	28786
811.158	28824
811.299	28927
811.441	29098
811.582	29052
811.724	28991
811.865	28938
812.007	28915
812.148	29010
812.29	29018
812.431	29136
812.573	29170
812.714	29223
812.855	29505
812.997	29455
813.138	29608
813.279	29520
813.421	29341
813.562	29204
813.703	29280
813.845	29159
813.986	28908
814.127	28763
814.268	28607
814.41	28706
814.551	28618
814.692	28603
814.833	28474
814.974	28390
815.115	28725
815.256	28489
815.397	28352
815.539	28451
815.68	28371
815.821	28333
815.962	28459
816.103	28382
816.244	28207
816.385	28124
816.526	28055
816.666	27994
816.807	27899
816.948	27869
817.089	28029
817.23	27922
817.371	27842
817.512	27873
817.653	27907
817.793	27823
817.934	27888
818.075	27903
818.216	27835
818.356	27816
818.497	27663
818.638	27648
818.778	27587
818.919	27648
819.06	27709
819.2	27808
819.341	27854
819.481	27835
819.622	28143
819.762	28158
819.903	28139
820.043	28112
820.184	28059
820.324	28025
820.465	28124
820.605	28002
820.746	28002
820.886	27869
821.026	27975
821.167	27873
821.307	28013
821.447	27991
821.588	27850
821.728	27816
821.868	27580
822.008	27363
822.149	27424
822.289	27313
822.429	27089
822.569	26952
822.709	27051
822.849	26857
822.99	26963
823.13	26746
823.27	26807
823.41	26682
823.55	26560
823.69	26864
823.83	26632
823.97	26648
824.11	26381
824.25	26545
824.389	26488
824.529	26571
824.669	26590
824.809	26602
824.949	26621
825.089	26708
825.228	26568
825.368	26347
825.508	26556
825.648	26442
825.787	26423
825.927	26507
826.067	26225
826.206	26412
826.346	26423
826.485	26381
826.625	26263
826.765	26450
826.904	26427
827.044	26077
827.183	26073
827.323	26176
827.462	26168
827.601	26043
827.741	26043
827.88	26161
828.02	26024
828.159	26062
828.298	25963
828.437	26084
828.577	26077
828.716	26218
828.855	26012
828.994	25780
829.134	25761
829.273	25833
829.412	25723
829.551	25852
829.69	25814
829.829	25753
829.968	25799
830.107	25818
830.246	25807
830.385	25811
830.524	25620
830.663	25670
830.802	25499
830.941	25487
831.08	25358
831.219	25594
831.357	25540
831.496	25590
831.635	25343
831.774	25426
831.913	25240
832.051	25198
832.19	25114
832.329	25244
832.467	25110
832.606	25080
832.744	25031
832.883	25072
833.022	25034
833.16	25046
833.299	25046
833.437	25156
833.576	25225
833.714	25072
833.852	25225
833.991	25122
834.129	25213
834.267	25141
834.406	25099
834.544	25133
834.682	25072
834.821	25069
834.959	25297
835.097	24901
835.235	25187
835.373	25175
835.511	25065
835.65	25046
835.788	24909
835.926	24867
836.064	24810
836.202	24806
836.34	24962
836.478	25084
836.615	25053
836.753	24886
836.891	24916
837.029	25057
837.167	24916
837.305	24875
837.443	24848
837.58	24787
837.718	24867
837.856	24894
837.993	24738
838.131	24825
838.269	24707
838.406	24719
838.544	24532
838.681	24479
838.819	24384
838.956	24300
839.094	24289
839.231	24205
839.369	24414
839.506	24658
839.643	24429
839.781	24254
839.918	24114
840.055	24239
840.193	24171
840.33	24163
840.467	24133
840.604	24209
840.742	24369
840.879	23958
841.016	24041
841.153	24018
841.29	24194
841.427	24159
841.564	24171
841.701	24209
841.838	24129
841.975	24064
842.112	24095
842.249	23817
842.385	23901
842.522	24072
842.659	23908
842.796	23988
842.933	23889
843.069	23843
843.206	23863
843.343	23939
843.479	24018
843.616	23935
843.752	23562
843.889	23638
844.025	23771
844.162	23646
844.298	23691
844.435	23661
844.571	23604
844.708	23764
844.844	23771
844.98	23901
845.117	23726
845.253	23695
845.389	23501
845.525	23551
845.661	23611
845.798	23349
845.934	23501
846.07	23330
846.206	23360
846.342	23570
846.478	23337
846.614	23121
846.75	23067
846.886	23071
847.022	23216
847.158	23204
847.294	23083
847.429	23151
847.565	23132
847.701	23414
847.837	22885
847.972	22694
848.108	22820
848.244	22949
848.379	22820
848.515	22771
848.65	22664
848.786	22668
848.921	22805
849.057	22824
849.192	22752
849.328	22786
849.463	22748
849.598	22634
849.734	22565
849.869	22565
850.004	22542
850.14	22546
850.275	22577
850.41	22405
850.545	22303
850.68	22432
850.815	22569
850.95	22493
851.085	22577
851.22	22497
851.355	22516
851.49	22394
851.625	22550
851.76	22512
851.895	22424
852.03	22443
852.165	22398
852.299	22455
852.434	22577
852.569	22497
852.703	22508
852.838	22573
852.973	22752
853.107	22592
853.242	22402
853.376	22375
853.511	22295
853.645	22341
853.78	22398
853.914	22424
854.048	22246
854.183	22314
854.317	22390
854.451	22493
854.585	22162
854.72	22386
854.854	22375
854.988	22318
855.122	22287
855.256	22188
855.39	22261
855.524	22363
855.658	22394
855.792	22310
855.926	22329
856.06	22382
856.194	22390
856.327	22333
856.461	22398
856.595	22223
856.729	22284
856.862	22367
856.996	22303
857.13	22367
857.263	22424
857.397	22265
857.53	22306
857.664	22280
857.797	22360
857.931	22318
858.064	22398
858.197	22447
858.331	22322
858.464	22318
858.597	22078
858.731	22325
858.864	22284
858.997	22234
859.13	22291
859.263	22265
859.396	22394
859.529	22337
859.662	22287
859.795	22223
859.928	22257
860.061	22382
860.194	22649
860.327	22443
860.46	22367
860.592	22470
860.725	22367
860.858	22443
860.99	22322
861.123	22207
861.256	22303
861.388	22344
861.521	23018
861.653	22295
861.786	22154
861.918	22150
862.05	22135
862.183	22185
862.315	22181
862.447	22246
862.58	22249
862.712	22078
862.844	21922
862.976	22166
863.108	22135
863.24	22459
863.372	22006
863.504	22097
863.636	22143
863.768	21998
863.9	22013
864.032	22025
864.164	22055
864.296	22013
864.428	22154
864.559	22101
864.691	22051
864.823	22059
864.954	21987
865.086	22082
865.217	21949
865.349	21861
865.48	21945
865.612	21888
865.743	22120
865.875	21945
866.006	21728
866.137	21911
866.269	21911
866.4	21819
866.531	21865
866.662	21709
866.793	21827
866.924	21808
867.055	21857
867.186	21842
867.317	21827
867.448	21671
867.579	21690
867.71	21701
867.841	21804
867.972	21804
868.103	21720
868.233	21972
868.364	21888
868.495	22006
868.625	21964
868.756	22192
868.886	22025
869.017	22044
869.147	22181
869.278	22128
869.408	22090
869.539	22128
869.669	22135
869.799	22147
869.929	22162
870.06	22207
870.19	22485
870.32	22322
870.45	22367
870.58	22348
870.71	22459
870.84	22603
870.97	22531
871.1	22550
871.23	22668
871.36	22698
871.489	22694
871.619	22618
871.749	22649
871.879	22596
872.008	22721
872.138	22790
872.267	22763
872.397	22489
872.526	22478
872.656	22481
872.785	22546
872.915	22500
873.044	22915
873.173	22683
873.303	22698
873.432	22828
873.561	22713
873.69	22542
873.819	22782
873.948	22702
874.077	22713
874.206	22603
874.335	22694
874.464	22797
874.593	22915
874.722	22908
874.851	22938
874.979	22923
875.108	22972
875.237	22873
875.365	22698
875.494	22900
875.623	22847
875.751	22755
875.88	22908
876.008	22976
876.136	23060
876.265	23318
876.393	23391
876.521	23436
876.65	23436
876.778	23250
876.906	23185
877.034	23284
877.162	23204
877.29	23265
877.418	23239
877.546	23315
877.674	23155
877.802	23303
877.93	23220
878.058	23166
878.185	23124
878.313	23098
878.441	23246
878.568	23067
878.696	23170
878.824	23391
878.951	23395
879.079	23372
879.206	23459
879.333	23383
879.461	23299
879.588	23383
879.715	23429
879.842	23524
879.97	23288
880.097	23090
880.224	23170
880.351	23048
880.478	23117
880.605	22968
880.732	22976
880.859	23250
880.986	23113
881.112	23037
881.239	22934
881.366	22752
881.493	22740
881.619	22706
881.746	22748
881.872	22497
881.999	22584
882.125	22565
882.252	22599
882.378	22687
882.505	22653
882.631	22489
882.757	22402
882.883	22462
883.01	22310
883.136	22246
883.262	22124
883.388	22101
883.514	22512
883.64	22322
883.766	22112
883.892	22116
884.018	22185
884.143	22238
884.269	22246
884.395	22002
884.52	21964
884.646	21949
884.772	21922
884.897	22002
885.023	21937
885.148	22010
885.274	22181
885.399	22074
885.524	21968
885.65	21987
885.775	22147
885.9	21934
886.025	21991
886.15	22040
886.275	21983
886.4	21994
886.525	21895
886.65	21922
886.775	21785
886.9	22017
887.025	22158
887.149	21911
887.274	21785
887.399	21743
887.523	21641
887.648	21591
887.773	21743
887.897	21652
888.021	21747
888.146	21720
888.27	21713
888.395	21880
888.519	21800
888.643	21701
888.767	21739
888.891	21656
889.015	21629
889.139	21610
889.263	21542
889.387	21660
889.511	21873
889.635	21641
889.759	21447
889.883	21412
890.006	21428
890.13	21675
890.254	21374
890.377	21504
890.501	21211
890.624	21260
890.748	21424
890.871	21146
890.995	21066
891.118	20960
891.241	21169
891.364	21150
891.488	21188
891.611	21154
891.734	21077
891.857	21039
891.98	21081
892.103	21150
892.226	21093
892.349	20982
892.471	20826
892.594	21009
892.717	21077
892.839	20830
892.962	21032
893.085	20956
893.207	20921
893.33	20910
893.452	20857
893.575	21108
893.697	20918
893.819	21195
893.941	21116
894.064	21127
894.186	20944
894.308	20876
894.43	21077
894.552	21135
894.674	20990
894.796	20872
894.918	20807
895.04	20960
895.161	20998
895.283	20994
895.405	20944
895.526	20929
895.648	20918
895.769	20967
895.891	21055
896.012	21043
896.134	20990
896.255	21024
896.376	20811
896.498	21058
896.619	20979
896.74	21085
896.861	21009
896.982	21157
897.103	21424
897.224	21218
897.345	21211
897.466	21047
897.587	21207
897.708	21272
897.828	21104
897.949	21119
898.07	20872
898.19	21131
898.311	21173
898.431	21058
898.552	21123
898.672	21119
898.792	21348
898.913	21028
899.033	21051
899.153	20998
899.273	20807
899.393	20750
899.513	20918
899.633	20845
899.753	20823
899.873	20735
899.993	20956
900.113	20792
900.232	20986
900.352	20819
900.472	20606
900.591	20594
900.711	20587
900.83	20629
900.95	20693
901.069	20830
901.189	20568
901.308	20305
901.427	20138
901.546	20282
901.665	20305
901.784	20286
901.904	20096
902.023	19909
902.141	19856
902.26	19708
902.379	19860
902.498	19689
902.617	19715
902.735	19734
902.854	19639
902.973	19712
903.091	19491
903.21	19415
903.328	19381
903.446	19263
903.565	19137
903.683	19088
903.801	19072
903.919	19171
904.038	19221
904.156	19031
904.274	18875
904.392	19050
904.51	18981
904.627	18947
904.745	18958
904.863	18894
904.981	18745
905.098	18688
905.216	18585
905.334	18578
905.451	18604
905.569	18604
905.686	18631
905.803	18513
905.921	18490
906.038	18498
906.155	18414
906.272	18369
906.389	18228
906.506	18190
906.623	18155
906.74	18125
906.857	18110
906.974	18190
907.091	18190
907.208	18262
907.324	18106
907.441	18003
907.557	17893
907.674	17863
907.79	17790
907.907	17737
908.023	17863
908.139	17916
908.256	17878
908.372	17745
908.488	17802
908.604	17592
908.72	17554
908.836	17600
908.952	17524
909.068	17570
909.184	17611
909.3	17573
909.415	17547
909.531	17676
909.647	17311
909.762	17330
909.878	17174
909.993	17246
910.108	17212
910.224	17330
910.339	17242
910.454	17155
910.57	17117
910.685	17037
910.8	17269
910.915	17121
911.03	17064
911.145	16987
911.259	16759
911.374	16904
911.489	16805
911.604	16793
911.718	16561
911.833	16504
911.947	16481
912.062	16455
912.176	16618
912.291	16588
912.405	16653
912.519	16885
912.633	16748
912.748	16645
912.862	16512
912.976	16413
913.09	16261
913.204	16390
913.318	16386
913.431	16497
913.545	16398
913.659	16535
913.772	16325
913.886	16284
914	16143
914.113	16268
914.226	16192
914.34	16257
914.453	16116
914.566	16166
914.68	16192
914.793	16071
914.906	15789
915.019	15713
915.132	15709
915.245	15755
915.358	15739
915.47	15762
915.583	15835
915.696	15762
915.809	15838
915.921	15888
916.034	15671
916.146	15625
916.259	15660
916.371	15732
916.483	15751
916.595	15591
916.708	15637
916.82	15591
916.932	15542
917.044	15561
917.156	15496
917.268	15291
917.38	15374
917.491	15344
917.603	15386
917.715	15424
917.826	15386
917.938	15359
918.049	15161
918.161	15287
918.272	15443
918.384	15545
918.495	15321
918.606	15097
918.717	15077
918.828	15154
918.939	15199
919.05	15039
919.161	14990
919.272	14880
919.383	14967
919.494	15146
919.604	15264
919.715	15188
919.826	15062
919.936	15077
920.047	15146
920.157	15119
920.267	15222
920.378	15097
920.488	15062
920.598	15283
920.708	15340
920.818	15294
920.928	15154
921.038	15397
921.148	15230
921.258	15047
921.368	14982
921.477	14918
921.587	14845
921.697	14693
921.806	14868
921.916	14636
922.025	14495
922.134	14461
922.244	14427
922.353	14457
922.462	14328
922.571	14199
922.68	14103
922.789	14119
922.898	14119
923.007	14046
923.116	14073
923.224	14191
923.333	14096
923.442	14020
923.55	13947
923.659	13967
923.767	14024
923.876	13776
923.984	13913
924.092	13849
924.201	13830
924.309	13833
924.417	13845
924.525	13830
924.633	13765
924.741	14583
924.849	13521
924.956	13674
925.064	13594
925.172	13426
925.279	13487
925.387	13472
925.494	13510
925.602	13575
925.709	13472
925.816	13346
925.924	13419
926.031	13468
926.138	13396
926.245	13559
926.352	13236
926.459	13434
926.566	13415
926.673	13304
926.779	13209
926.886	13232
926.993	13084
927.099	13091
927.206	13050
927.312	13027
927.419	13015
927.525	13015
927.631	13069
927.737	12897
927.843	12886
927.95	12711
928.056	12802
928.162	12924
928.267	12943
928.373	13480
928.479	12882
928.585	12612
928.69	12886
928.796	12764
928.901	12700
929.007	12563
929.112	12563
929.218	12700
929.323	12566
929.428	12452
929.533	12730
929.638	12483
929.743	12566
929.848	12597
929.953	12506
930.058	12376
930.163	12190
930.267	12292
930.372	12357
930.477	12155
930.581	12418
930.685	12308
930.79	12117
930.894	12178
930.998	12083
931.103	12224
931.207	11855
931.311	11817
931.415	11680
931.519	11554
931.623	11493
