Data from test_V78500241_800.txt Node
Date: Fri Mar 25 15:47:20 CST 2022
User: usil
Spectrometer: V785-0024
Trigger mode: 0
Integration Time (sec): 4.000000E-1
Scans to average: 1
Nonlinearity correction enabled: false
Boxcar width: 0
Storing dark spectrum: false
XAxis mode: Wavelengths
Number of Pixels in Spectrum: 1024
>>>>>Begin Spectral Data<<<<<
801.071	28120
801.214	28040
801.356	27808
801.499	27804
801.641	27682
801.783	27679
801.926	27701
802.068	27652
802.211	27515
802.353	27587
802.496	27443
802.638	27340
802.78	27397
802.923	27192
803.065	27272
803.208	27226
803.35	27466
803.492	27462
803.635	27557
803.777	27401
803.919	27545
804.061	27850
804.204	27545
804.346	27538
804.488	27340
804.63	27549
804.773	27599
804.915	27580
805.057	27743
805.199	27576
805.341	27709
805.483	27595
805.626	27576
805.768	27698
805.91	27774
806.052	27728
806.194	27542
806.336	28070
806.478	27816
806.62	27679
806.762	27812
806.904	28090
807.046	28276
807.188	28223
807.33	28211
807.472	28230
807.614	28204
807.756	28093
807.898	28067
808.04	27945
808.182	28006
808.324	28013
808.465	28025
808.607	28124
808.749	28386
808.891	28417
809.033	28527
809.174	28538
809.316	28223
809.458	28436
809.6	28417
809.741	28546
809.883	28478
810.025	28717
810.166	28660
810.308	28615
810.45	28607
810.591	28580
810.733	28443
810.875	28352
811.016	28390
811.158	28299
811.299	28565
811.441	28618
811.582	28653
811.724	28470
811.865	28417
812.007	28401
812.148	28352
812.29	28386
812.431	28618
812.573	28748
812.714	28694
812.855	28900
812.997	28984
813.138	29090
813.279	29071
813.421	28934
813.562	28843
813.703	28790
813.845	28725
813.986	28390
814.127	28169
814.268	28150
814.41	28063
814.551	28139
814.692	28097
814.833	28105
814.974	28090
815.115	28200
815.256	28010
815.397	28074
815.539	27918
815.68	27926
815.821	27793
815.962	27861
816.103	27770
816.244	27808
816.385	27751
816.526	27751
816.666	27443
816.807	27367
816.948	27378
817.089	27481
817.23	27424
817.371	27321
817.512	27363
817.653	27382
817.793	27420
817.934	27382
818.075	27477
818.216	27207
818.356	27275
818.497	27317
818.638	27089
818.778	27116
818.919	27226
819.06	27386
819.2	27283
819.341	27439
819.481	27370
819.622	27466
819.762	27713
819.903	27591
820.043	27587
820.184	27412
820.324	27545
820.465	27504
820.605	27523
820.746	27545
820.886	27393
821.026	27500
821.167	27473
821.307	27545
821.447	27302
821.588	27306
821.728	27348
821.868	26982
822.008	26857
822.149	26788
822.289	26754
822.429	26606
822.569	26492
822.709	26530
822.849	26370
822.99	26332
823.13	26301
823.27	26164
823.41	26183
823.55	25974
823.69	26218
823.83	26134
823.97	26180
824.11	26008
824.25	25902
824.389	26126
824.529	26210
824.669	25959
824.809	26122
824.949	26130
825.089	26149
825.228	26107
825.368	25856
825.508	25902
825.648	25902
825.787	25955
825.927	25932
826.067	25951
826.206	25826
826.346	25894
826.485	25852
826.625	25906
826.765	26012
826.904	25944
827.044	25647
827.183	25613
827.323	25514
827.462	25628
827.601	25666
827.741	25575
827.88	25575
828.02	25312
828.159	25620
828.298	25639
828.437	25708
828.577	25499
828.716	25658
828.855	25468
828.994	25304
829.134	25377
829.273	25187
829.412	25206
829.551	25335
829.69	25255
829.829	25228
829.968	25419
830.107	25468
830.246	25266
830.385	25209
830.524	25145
830.663	25194
830.802	24939
830.941	24764
831.08	24916
831.219	24958
831.357	25072
831.496	25042
831.635	24810
831.774	24844
831.913	24722
832.051	24616
832.19	24661
832.329	24654
832.467	24589
832.606	24486
832.744	24563
832.883	24559
833.022	24684
833.16	24589
833.299	24597
833.437	24589
833.576	24661
833.714	24738
833.852	24540
833.991	24688
834.129	24700
834.267	24760
834.406	24681
834.544	24639
834.682	24673
834.821	24597
834.959	24798
835.097	24566
835.235	24650
835.373	24578
835.511	24620
835.65	24521
835.788	24528
835.926	24426
836.064	24285
836.202	24319
836.34	24494
836.478	24616
836.615	24369
836.753	24456
836.891	24547
837.029	24422
837.167	24399
837.305	24403
837.443	24414
837.58	24399
837.718	24448
837.856	24353
837.993	24155
838.131	24350
838.269	24102
838.406	24285
838.544	24155
838.681	24011
838.819	23863
838.956	23756
839.094	23805
839.231	23866
839.369	23840
839.506	24091
839.643	24129
839.781	23851
839.918	23615
840.055	23851
840.193	23752
840.33	23786
840.467	23752
840.604	23790
840.742	24114
840.879	23596
841.016	23710
841.153	23547
841.29	23836
841.427	23577
841.564	23687
841.701	23798
841.838	23570
841.975	23585
842.112	23634
842.249	23482
842.385	23436
842.522	23775
842.659	23539
842.796	23402
842.933	23531
843.069	23387
843.206	23474
843.343	23501
843.479	23497
843.616	23353
843.752	23140
843.889	23094
844.025	23303
844.162	23178
844.298	23235
844.435	23166
844.571	23208
844.708	23216
844.844	23349
844.98	23376
845.117	23326
845.253	23136
845.389	23151
845.525	23117
845.661	23071
845.798	22850
845.934	23094
846.07	22877
846.206	22919
846.342	23041
846.478	22927
846.614	22713
846.75	22649
846.886	22767
847.022	22698
847.158	22740
847.294	22626
847.429	22767
847.565	22660
847.701	22786
847.837	22451
847.972	22447
848.108	22603
848.244	22478
848.379	22192
848.515	22303
848.65	22265
848.786	22265
848.921	22348
849.057	22451
849.192	22413
849.328	22367
849.463	22310
849.598	22055
849.734	22135
849.869	22272
850.004	22181
850.14	21964
850.275	22200
850.41	22010
850.545	22002
850.68	21937
850.815	22032
850.95	22040
851.085	22162
851.22	22226
851.355	22070
851.49	21930
851.625	22055
851.76	22051
851.895	21987
852.03	21892
852.165	22109
852.299	22082
852.434	22070
852.569	22059
852.703	22128
852.838	22166
852.973	22150
853.107	22158
853.242	22051
853.376	21915
853.511	21827
853.645	21781
853.78	21972
853.914	21827
854.048	21781
854.183	21835
854.317	21937
854.451	22002
854.585	21835
854.72	21747
854.854	21998
854.988	21770
855.122	21800
855.256	21698
855.39	21892
855.524	22002
855.658	21964
855.792	21823
855.926	21911
856.06	21728
856.194	21766
856.327	21846
856.461	21797
856.595	21717
856.729	21789
856.862	21907
856.996	21987
857.13	21903
857.263	22063
857.397	21972
857.53	21728
857.664	21823
857.797	22017
857.931	21953
858.064	21903
858.197	21994
858.331	21686
858.464	21720
858.597	21797
858.731	21827
858.864	21774
858.997	21850
859.13	21835
859.263	21876
859.396	21842
859.529	21854
859.662	21747
859.795	21724
859.928	21819
860.061	21998
860.194	22036
860.327	21876
860.46	21819
860.592	22006
860.725	21998
860.858	22010
860.99	21964
861.123	21743
861.256	21835
861.388	21854
861.521	22352
861.653	21785
861.786	21679
861.918	21743
862.05	21717
862.183	21698
862.315	21854
862.447	21804
862.58	21751
862.712	21614
862.844	21561
862.976	21637
863.108	21599
863.24	22025
863.372	21500
863.504	21530
863.636	21511
863.768	21599
863.9	21576
864.032	21515
864.164	21485
864.296	21545
864.428	21656
864.559	21641
864.691	21625
864.823	21530
864.954	21450
865.086	21511
865.217	21447
865.349	21393
865.48	21439
865.612	21477
865.743	21625
865.875	21420
866.006	21420
866.137	21435
866.269	21424
866.4	21454
866.531	21397
866.662	21325
866.793	21504
866.924	21435
867.055	21287
867.186	21401
867.317	21405
867.448	21264
867.579	21431
867.71	21272
867.841	21260
867.972	21317
868.103	21283
868.233	21363
868.364	21313
868.495	21530
868.625	21561
868.756	21717
868.886	21515
869.017	21637
869.147	21610
869.278	21690
869.408	21717
869.539	21576
869.669	21603
869.799	21671
869.929	21755
870.06	21724
870.19	21911
870.32	21873
870.45	22067
870.58	22029
870.71	22063
870.84	21953
870.97	22105
871.1	21911
871.23	22257
871.36	22204
871.489	22013
871.619	22048
871.749	22131
871.879	22249
872.008	22234
872.138	22272
872.267	22162
872.397	22169
872.526	22067
872.656	21983
872.785	21949
872.915	22120
873.044	22367
873.173	22204
873.303	22436
873.432	22207
873.561	22253
873.69	22344
873.819	22181
873.948	22295
874.077	22367
874.206	22211
874.335	22181
874.464	22363
874.593	22512
874.722	22337
874.851	22421
874.979	22535
875.108	22527
875.237	22382
875.365	22337
875.494	22500
875.623	22451
875.751	22325
875.88	22409
876.008	22645
876.136	22615
876.265	22839
876.393	22968
876.521	22873
876.65	22828
876.778	22919
876.906	22755
877.034	22797
877.162	22694
877.29	22793
877.418	22790
877.546	22740
877.674	22752
877.802	22786
877.93	22850
878.058	22740
878.185	22637
878.313	22740
878.441	22824
878.568	22596
878.696	22717
878.824	22927
878.951	22900
879.079	22972
879.206	23075
879.333	22904
879.461	22831
879.588	22877
879.715	22923
879.842	23109
879.97	22725
880.097	22675
880.224	22618
880.351	22500
880.478	22653
880.605	22607
880.732	22656
880.859	22828
880.986	22592
881.112	22679
881.239	22485
881.366	22424
881.493	22207
881.619	22219
881.746	22204
881.872	22238
881.999	22101
882.125	22226
882.252	22116
882.378	22162
882.505	22360
882.631	22032
882.757	21850
882.883	21922
883.01	21953
883.136	21873
883.262	21774
883.388	21614
883.514	21983
883.64	21949
883.766	21713
883.892	21625
884.018	21694
884.143	21808
884.269	21892
884.395	21625
884.52	21511
884.646	21553
884.772	21435
884.897	21473
885.023	21553
885.148	21652
885.274	21641
885.399	21686
885.524	21424
885.65	21606
885.775	21424
885.9	21526
886.025	21595
886.15	21587
886.275	21428
886.4	21439
886.525	21591
886.65	21325
886.775	21428
886.9	21519
887.025	21709
887.149	21526
887.274	21374
887.399	21226
887.523	21344
887.648	21138
887.773	21112
887.897	21302
888.021	21321
888.146	21104
888.27	21386
888.395	21420
888.519	21332
888.643	21230
888.767	21367
888.891	21226
889.015	21131
889.139	21093
889.263	20979
889.387	21176
889.511	21279
889.635	21100
889.759	21077
889.883	21043
890.006	21104
890.13	21176
890.254	20902
890.377	21013
890.501	20853
890.624	20670
890.748	20914
890.871	20705
890.995	20526
891.118	20545
891.241	20560
891.364	20640
891.488	20838
891.611	20651
891.734	20579
891.857	20674
891.98	20640
892.103	20670
892.226	20579
892.349	20434
892.471	20419
892.594	20545
892.717	20518
892.839	20461
892.962	20560
893.085	20549
893.207	20530
893.33	20473
893.452	20476
893.575	20423
893.697	20499
893.819	20750
893.941	20769
894.064	20644
894.186	20511
894.308	20503
894.43	20590
894.552	20613
894.674	20602
894.796	20351
894.918	20613
895.04	20404
895.161	20518
895.283	20457
895.405	20374
895.526	20404
895.648	20514
895.769	20678
895.891	20530
896.012	20625
896.134	20579
896.255	20533
896.376	20454
896.498	20450
896.619	20473
896.74	20533
896.861	20541
896.982	20849
897.103	20895
897.224	20918
897.345	20826
897.466	20773
897.587	20632
897.708	20849
897.828	20804
897.949	20598
898.07	20514
898.19	20655
898.311	20849
898.431	20724
898.552	20655
898.672	20758
898.792	20804
898.913	20777
899.033	20609
899.153	20575
899.273	20396
899.393	20526
899.513	20537
899.633	20499
899.753	20522
899.873	20427
899.993	20560
900.113	20370
900.232	20450
900.352	20400
900.472	20275
900.591	20298
900.711	20168
900.83	20126
900.95	20320
901.069	20343
901.189	20081
901.308	19928
901.427	19799
901.546	19780
901.665	19830
901.784	19852
901.904	19658
902.023	19681
902.141	19320
902.26	19384
902.379	19495
902.498	19282
902.617	19278
902.735	19377
902.854	19228
902.973	19304
903.091	19015
903.21	18970
903.328	18924
903.446	18817
903.565	18840
903.683	18916
903.801	18753
903.919	18738
904.038	18768
904.156	18627
904.274	18597
904.392	18555
904.51	18525
904.627	18479
904.745	18703
904.863	18597
904.981	18327
905.098	18327
905.216	18300
905.334	18258
905.451	18159
905.569	18254
905.686	18186
905.803	18228
905.921	18114
906.038	18125
906.155	18114
906.272	17912
906.389	17958
906.506	17794
906.623	17737
906.74	17722
906.857	17623
906.974	17707
907.091	17882
907.208	17931
907.324	17714
907.441	17726
907.557	17444
907.674	17505
907.79	17467
907.907	17402
908.023	17516
908.139	17402
908.256	17433
908.372	17463
908.488	17330
908.604	17254
908.72	17067
908.836	17227
908.952	17170
909.068	17147
909.184	17296
909.3	17223
909.415	17178
909.531	17159
909.647	16911
909.762	17029
909.878	16816
909.993	16862
910.108	16911
910.224	16763
910.339	16889
910.454	16687
910.57	16752
910.685	16664
910.8	16915
910.915	16828
911.03	16713
911.145	16462
911.259	16474
911.374	16584
911.489	16352
911.604	16375
911.718	16200
911.833	16242
911.947	16143
912.062	16055
912.176	16268
912.291	16303
912.405	16341
912.519	16341
912.633	16390
912.748	16280
912.862	16166
912.976	16051
913.09	15911
913.204	15937
913.318	16029
913.431	16101
913.545	16059
913.659	16109
913.772	15953
913.886	15850
914	15793
914.113	15903
914.226	15953
914.34	15926
914.453	15713
914.566	15850
914.68	15667
914.793	15770
914.906	15561
915.019	15389
915.132	15431
915.245	15378
915.358	15420
915.47	15469
915.583	15405
915.696	15439
915.809	15576
915.921	15564
916.034	15325
916.146	15351
916.259	15233
916.371	15348
916.483	15386
916.595	15332
916.708	15287
916.82	15294
916.932	15226
917.044	15104
917.156	15161
917.268	15070
917.38	15062
917.491	15058
917.603	15085
917.715	15146
917.826	15199
917.938	15055
918.049	14864
918.161	15055
918.272	15146
918.384	15100
918.495	14956
918.606	14902
918.717	14731
918.828	14895
918.939	14842
919.05	14819
919.161	14838
919.272	14678
919.383	14693
919.494	14872
919.604	15055
919.715	14815
919.826	14712
919.936	14731
920.047	14868
920.157	14800
920.267	15020
920.378	14815
920.488	14663
920.598	14933
920.708	15085
920.818	14990
920.928	14925
921.038	15001
921.148	15081
921.258	14693
921.368	14636
921.477	14514
921.587	14488
921.697	14370
921.806	14549
921.916	14313
922.025	14233
922.134	14119
922.244	14050
922.353	14157
922.462	14008
922.571	13940
922.68	13852
922.789	13765
922.898	13879
923.007	13731
923.116	13784
923.224	13909
923.333	13784
923.442	13700
923.55	13628
923.659	13605
923.767	13643
923.876	13567
923.984	13620
924.092	13544
924.201	13586
924.309	13529
924.417	13540
924.525	13415
924.633	13438
924.741	14355
924.849	13175
924.956	13362
925.064	13247
925.172	13164
925.279	13141
925.387	13263
925.494	13141
925.602	13346
925.709	13217
925.816	13031
925.924	13099
926.031	13331
926.138	13183
926.245	13137
926.352	13019
926.459	13076
926.566	13183
926.673	13042
926.779	12951
926.886	13015
926.993	12814
927.099	12745
927.206	12802
927.312	12741
927.419	12730
927.525	12700
927.631	12825
927.737	12730
927.843	12566
927.95	12506
928.056	12578
928.162	12559
928.267	12631
928.373	13282
928.479	12684
928.585	12426
928.69	12559
928.796	12551
928.901	12395
929.007	12281
929.112	12509
929.218	12399
929.323	12270
929.428	12292
929.533	12384
929.638	12216
929.743	12159
929.848	12342
929.953	12232
930.058	12064
930.163	12003
930.267	11992
930.372	12129
930.477	11923
930.581	12239
930.685	12053
930.79	11813
930.894	11908
930.998	11870
931.103	11984
931.207	11566
931.311	11474
931.415	11448
931.519	11212
931.623	11239
