Data from test_V78500241_997.txt Node
Date: Fri Mar 25 15:48:42 CST 2022
User: usil
Spectrometer: V785-0024
Trigger mode: 0
Integration Time (sec): 4.000000E-1
Scans to average: 1
Nonlinearity correction enabled: false
Boxcar width: 0
Storing dark spectrum: false
XAxis mode: Wavelengths
Number of Pixels in Spectrum: 1024
>>>>>Begin Spectral Data<<<<<
801.071	27975
801.214	28051
801.356	27682
801.499	27488
801.641	27443
801.783	27492
801.926	27519
802.068	27591
802.211	27580
802.353	27511
802.496	27138
802.638	27283
802.78	27241
802.923	27294
803.065	27161
803.208	27184
803.35	27306
803.492	27203
803.635	27477
803.777	27336
803.919	27450
804.061	27846
804.204	27492
804.346	27329
804.488	27245
804.63	27439
804.773	27252
804.915	27511
805.057	27500
805.199	27523
805.341	27603
805.483	27610
805.626	27583
805.768	27492
805.91	27606
806.052	27553
806.194	27580
806.336	27895
806.478	27587
806.62	27523
806.762	27625
806.904	28021
807.046	28139
807.188	28177
807.33	28048
807.472	28162
807.614	28067
807.756	27987
807.898	27789
808.04	27785
808.182	27842
808.324	27861
808.465	27759
808.607	28086
808.749	28192
808.891	28314
809.033	28291
809.174	28371
809.316	28211
809.458	28337
809.6	28143
809.741	28272
809.883	28523
810.025	28584
810.166	28512
810.308	28653
810.45	28459
810.591	28462
810.733	28242
810.875	28318
811.016	28192
811.158	28188
811.299	28348
811.441	28432
811.582	28398
811.724	28246
811.865	28230
812.007	28181
812.148	28200
812.29	28280
812.431	28329
812.573	28740
812.714	28713
812.855	28843
812.997	28991
813.138	28949
813.279	28942
813.421	28953
813.562	28736
813.703	28497
813.845	28630
813.986	28287
814.127	28032
814.268	27968
814.41	27983
814.551	28116
814.692	28128
814.833	27968
814.974	27972
815.115	27911
815.256	27945
815.397	27819
815.539	27732
815.68	27728
815.821	27595
815.962	27739
816.103	27781
816.244	27538
816.385	27504
816.526	27500
816.666	27416
816.807	27252
816.948	27340
817.089	27496
817.23	27291
817.371	27237
817.512	27329
817.653	27374
817.793	27249
817.934	27275
818.075	27272
818.216	27329
818.356	27241
818.497	27199
818.638	27005
818.778	27142
818.919	27176
819.06	27116
819.2	27104
819.341	27230
819.481	27214
819.622	27431
819.762	27454
819.903	27462
820.043	27485
820.184	27370
820.324	27408
820.465	27405
820.605	27336
820.746	27348
820.886	27123
821.026	27370
821.167	27302
821.307	27458
821.447	27222
821.588	27222
821.728	27173
821.868	26861
822.008	26815
822.149	26587
822.289	26659
822.429	26457
822.569	26423
822.709	26404
822.849	26218
822.99	26317
823.13	26366
823.27	26183
823.41	26069
823.55	25944
823.69	26062
823.83	26031
823.97	26054
824.11	25921
824.25	25780
824.389	25871
824.529	25978
824.669	25997
824.809	26001
824.949	26001
825.089	25955
825.228	25951
825.368	25746
825.508	25772
825.648	25772
825.787	25909
825.927	25769
826.067	25791
826.206	25845
826.346	25814
826.485	25845
826.625	25788
826.765	25864
826.904	25807
827.044	25548
827.183	25590
827.323	25400
827.462	25594
827.601	25518
827.741	25506
827.88	25495
828.02	25346
828.159	25510
828.298	25559
828.437	25434
828.577	25396
828.716	25483
828.855	25495
828.994	25228
829.134	25312
829.273	25175
829.412	25221
829.551	25034
829.69	25202
829.829	25145
829.968	25221
830.107	25179
830.246	25057
830.385	25133
830.524	25232
830.663	24958
830.802	24871
830.941	24711
831.08	24825
831.219	24749
831.357	24867
831.496	25012
831.635	24859
831.774	24658
831.913	24711
832.051	24635
832.19	24525
832.329	24528
832.467	24414
832.606	24410
832.744	24441
832.883	24490
833.022	24334
833.16	24441
833.299	24452
833.437	24327
833.576	24574
833.714	24441
833.852	24673
833.991	24502
834.129	24582
834.267	24684
834.406	24525
834.544	24593
834.682	24665
834.821	24532
834.959	24665
835.097	24445
835.235	24498
835.373	24620
835.511	24410
835.65	24201
835.788	24369
835.926	24091
836.064	24144
836.202	24205
836.34	24342
836.478	24460
836.615	24304
836.753	24315
836.891	24410
837.029	24216
837.167	24194
837.305	24315
837.443	24292
837.58	24399
837.718	24262
837.856	24197
837.993	24129
838.131	24098
838.269	24049
838.406	24159
838.544	23912
838.681	23969
838.819	23813
838.956	23714
839.094	23733
839.231	23684
839.369	23798
839.506	24068
839.643	23874
839.781	23646
839.918	23589
840.055	23649
840.193	23581
840.33	23585
840.467	23695
840.604	23596
840.742	23946
840.879	23387
841.016	23474
841.153	23322
841.29	23684
841.427	23474
841.564	23611
841.701	23543
841.838	23539
841.975	23455
842.112	23592
842.249	23414
842.385	23356
842.522	23520
842.659	23448
842.796	23334
842.933	23322
843.069	23094
843.206	23258
843.343	23520
843.479	23303
843.616	23360
843.752	23071
843.889	23067
844.025	23235
844.162	23174
844.298	23128
844.435	23018
844.571	23067
844.708	23071
844.844	23189
844.98	23181
845.117	23185
845.253	22987
845.389	23033
845.525	23075
845.661	22854
845.798	22835
845.934	22736
846.07	22968
846.206	22869
846.342	22824
846.478	22793
846.614	22577
846.75	22538
846.886	22470
847.022	22550
847.158	22481
847.294	22557
847.429	22577
847.565	22588
847.701	22790
847.837	22276
847.972	22074
848.108	22436
848.244	22386
848.379	22101
848.515	22116
848.65	22017
848.786	22135
848.921	22143
849.057	22200
849.192	22207
849.328	22070
849.463	22067
849.598	22124
849.734	22021
849.869	21899
850.004	21880
850.14	21911
850.275	21960
850.41	21861
850.545	21892
850.68	21785
850.815	21911
850.95	21842
851.085	22070
851.22	21831
851.355	21854
851.49	21713
851.625	21835
851.76	21774
851.895	21812
852.03	21797
852.165	21850
852.299	21968
852.434	21972
852.569	21838
852.703	21895
852.838	21937
852.973	21964
853.107	21876
853.242	21797
853.376	21705
853.511	21530
853.645	21751
853.78	21960
853.914	21709
854.048	21622
854.183	21648
854.317	21739
854.451	21869
854.585	21682
854.72	21720
854.854	21812
854.988	21724
855.122	21538
855.256	21538
855.39	21648
855.524	21915
855.658	21694
855.792	21713
855.926	21671
856.06	21774
856.194	21751
856.327	21660
856.461	21625
856.595	21701
856.729	21641
856.862	21770
856.996	21785
857.13	21732
857.263	21838
857.397	21759
857.53	21705
857.664	21747
857.797	21819
857.931	21762
858.064	21709
858.197	21842
858.331	21576
858.464	21587
858.597	21705
858.731	21766
858.864	21732
858.997	21637
859.13	21679
859.263	21732
859.396	21717
859.529	21686
859.662	21652
859.795	21610
859.928	21766
860.061	21762
860.194	21857
860.327	21800
860.46	21724
860.592	21846
860.725	21854
860.858	21846
860.99	21637
861.123	21648
861.256	21610
861.388	21667
861.521	22417
861.653	21511
861.786	21469
861.918	21561
862.05	21538
862.183	21629
862.315	21507
862.447	21701
862.58	21595
862.712	21310
862.844	21310
862.976	21401
863.108	21450
863.24	21846
863.372	21279
863.504	21363
863.636	21370
863.768	21504
863.9	21370
864.032	21291
864.164	21382
864.296	21359
864.428	21507
864.559	21374
864.691	21583
864.823	21374
864.954	21378
865.086	21370
865.217	21336
865.349	21329
865.48	21321
865.612	21374
865.743	21462
865.875	21294
866.006	21226
866.137	21488
866.269	21332
866.4	21230
866.531	21310
866.662	21119
866.793	21169
866.924	21218
867.055	21169
867.186	21256
867.317	21233
867.448	21108
867.579	21207
867.71	21207
867.841	21176
867.972	21348
868.103	21161
868.233	21214
868.364	21176
868.495	21317
868.625	21462
868.756	21599
868.886	21488
869.017	21443
869.147	21599
869.278	21629
869.408	21637
869.539	21530
869.669	21523
869.799	21530
869.929	21739
870.06	21447
870.19	21827
870.32	21865
870.45	21945
870.58	21789
870.71	22025
870.84	21975
870.97	21945
871.1	21869
871.23	22055
871.36	22044
871.489	21983
871.619	22055
871.749	22097
871.879	22010
872.008	22287
872.138	22200
872.267	22093
872.397	21926
872.526	21766
872.656	21922
872.785	21930
872.915	22135
873.044	22029
873.173	21991
873.303	22177
873.432	22124
873.561	22154
873.69	22116
873.819	22063
873.948	22162
874.077	22093
874.206	22002
874.335	21926
874.464	22238
874.593	22322
874.722	22261
874.851	22386
874.979	22333
875.108	22253
875.237	22402
875.365	22150
875.494	22344
875.623	22478
875.751	22207
875.88	22314
876.008	22447
876.136	22447
876.265	22713
876.393	22793
876.521	22923
876.65	22713
876.778	22713
876.906	22603
877.034	22565
877.162	22634
877.29	22618
877.418	22725
877.546	22713
877.674	22653
877.802	22645
877.93	22618
878.058	22603
878.185	22535
878.313	22637
878.441	22634
878.568	22538
878.696	22653
878.824	22675
878.951	22660
879.079	22694
879.206	22869
879.333	22820
879.461	22565
879.588	22637
879.715	22828
879.842	22984
879.97	22733
880.097	22443
880.224	22500
880.351	22584
880.478	22592
880.605	22478
880.732	22481
880.859	22580
880.986	22466
881.112	22561
881.239	22386
881.366	22230
881.493	22120
881.619	22086
881.746	22010
881.872	22013
881.999	22029
882.125	21945
882.252	22185
882.378	22044
882.505	22082
882.631	22101
882.757	21728
882.883	21819
883.01	21701
883.136	21690
883.262	21545
883.388	21443
883.514	21671
883.64	21800
883.766	21751
883.892	21431
884.018	21500
884.143	21595
884.269	21663
884.395	21397
884.52	21401
884.646	21447
884.772	21321
884.897	21294
885.023	21302
885.148	21431
885.274	21466
885.399	21428
885.524	21370
885.65	21397
885.775	21367
885.9	21359
886.025	21416
886.15	21439
886.275	21367
886.4	21344
886.525	21325
886.65	21332
886.775	21310
886.9	21447
887.025	21553
887.149	21332
887.274	21287
887.399	21043
887.523	21116
887.648	21131
887.773	20963
887.897	21142
888.021	21154
888.146	21039
888.27	21256
888.395	21081
888.519	21093
888.643	21245
888.767	21058
888.891	21062
889.015	20849
889.139	20960
889.263	20899
889.387	20982
889.511	21096
889.635	20998
889.759	20880
889.883	20804
890.006	20933
890.13	21043
890.254	20777
890.377	20899
890.501	20739
890.624	20606
890.748	20731
890.871	20617
890.995	20495
891.118	20282
891.241	20659
891.364	20518
891.488	20583
891.611	20549
891.734	20556
891.857	20518
891.98	20492
892.103	20518
892.226	20469
892.349	20225
892.471	20244
892.594	20404
892.717	20423
892.839	20355
892.962	20381
893.085	20511
893.207	20320
893.33	20271
893.452	20366
893.575	20351
893.697	20343
893.819	20450
893.941	20594
894.064	20431
894.186	20336
894.308	20263
894.43	20564
894.552	20438
894.674	20400
894.796	20328
894.918	20343
895.04	20309
895.161	20541
895.283	20495
895.405	20275
895.526	20408
895.648	20313
895.769	20389
895.891	20347
896.012	20579
896.134	20503
896.255	20423
896.376	20370
896.498	20526
896.619	20427
896.74	20381
896.861	20476
896.982	20823
897.103	20929
897.224	20773
897.345	20636
897.466	20434
897.587	20659
897.708	20724
897.828	20613
897.949	20530
898.07	20476
898.19	20476
898.311	20556
898.431	20514
898.552	20583
898.672	20609
898.792	20777
898.913	20579
899.033	20507
899.153	20465
899.273	20404
899.393	20343
899.513	20465
899.633	20488
899.753	20381
899.873	20343
899.993	20355
900.113	20366
900.232	20347
900.352	20259
900.472	20111
900.591	20035
900.711	20202
900.83	20153
900.95	20191
901.069	20263
901.189	20035
901.308	19704
901.427	19666
901.546	19658
901.665	19639
901.784	19742
901.904	19567
902.023	19464
902.141	19415
902.26	19259
902.379	19339
902.498	19217
902.617	19285
902.735	19221
902.854	19274
902.973	19053
903.091	18947
903.21	18856
903.328	18833
903.446	18711
903.565	18646
903.683	18863
903.801	18589
903.919	18715
904.038	18627
904.156	18502
904.274	18475
904.392	18513
904.51	18433
904.627	18471
904.745	18422
904.863	18395
904.981	18228
905.098	18098
905.216	18220
905.334	18129
905.451	18174
905.569	18174
905.686	18148
905.803	18220
905.921	17973
906.038	17999
906.155	17950
906.272	17885
906.389	17821
906.506	17676
906.623	17684
906.74	17592
906.857	17589
906.974	17551
907.091	17676
907.208	17790
907.324	17619
907.441	17554
907.557	17353
907.674	17391
907.79	17246
907.907	17296
908.023	17379
908.139	17395
908.256	17280
908.372	17121
908.488	17220
908.604	17162
908.72	17014
908.836	17121
908.952	17071
909.068	17162
909.184	17181
909.3	16991
909.415	17041
909.531	17056
909.647	16862
909.762	16725
909.878	16736
909.993	16854
910.108	16767
910.224	16805
910.339	16812
910.454	16656
910.57	16622
910.685	16500
910.8	16866
910.915	16771
911.03	16538
911.145	16405
911.259	16329
911.374	16352
911.489	16371
911.604	16344
911.718	16093
911.833	16082
911.947	15991
912.062	16071
912.176	16124
912.291	16181
912.405	16112
912.519	16363
912.633	16265
912.748	16192
912.862	16177
912.976	15956
913.09	15876
913.204	15888
913.318	15960
913.431	15987
913.545	16002
913.659	16067
913.772	15857
913.886	15686
914	15728
914.113	15781
914.226	15888
914.34	15774
914.453	15633
914.566	15633
914.68	15656
914.793	15713
914.906	15397
915.019	15386
915.132	15214
915.245	15321
915.358	15355
915.47	15367
915.583	15332
915.696	15351
915.809	15431
915.921	15458
916.034	15317
916.146	15188
916.259	15203
916.371	15313
916.483	15317
916.595	15249
916.708	15127
916.82	15237
916.932	15097
917.044	15138
917.156	15028
917.268	14929
917.38	15032
917.491	14960
917.603	14918
917.715	15051
917.826	15024
917.938	14914
918.049	14735
918.161	14982
918.272	15051
918.384	15036
918.495	14853
918.606	14758
918.717	14705
918.828	14765
918.939	14777
919.05	14731
919.161	14701
919.272	14438
919.383	14659
919.494	14769
919.604	14925
919.715	14727
919.826	14571
919.936	14682
920.047	14857
920.157	14708
920.267	14845
920.378	14746
920.488	14697
920.598	14823
920.708	14941
920.818	14762
920.928	14876
921.038	14998
921.148	14944
921.258	14689
921.368	14518
921.477	14476
921.587	14362
921.697	14256
921.806	14393
921.916	14233
922.025	14115
922.134	14103
922.244	13959
922.353	14103
922.462	13989
922.571	13909
922.68	13636
922.789	13685
922.898	13734
923.007	13753
923.116	13677
923.224	13662
923.333	13670
923.442	13594
923.55	13495
923.659	13594
923.767	13559
923.876	13506
923.984	13537
924.092	13468
924.201	13411
924.309	13419
924.417	13518
924.525	13426
924.633	13381
924.741	14320
924.849	13110
924.956	13327
925.064	13072
925.172	13057
925.279	13076
925.387	13263
925.494	13114
925.602	13270
925.709	13133
925.816	12966
925.924	12970
926.031	13133
926.138	12973
926.245	13168
926.352	12989
926.459	13091
926.566	13088
926.673	12913
926.779	12844
926.886	12844
926.993	12662
927.099	12738
927.206	12738
927.312	12612
927.419	12711
927.525	12662
927.631	12844
927.737	12563
927.843	12483
927.95	12300
928.056	12528
928.162	12570
928.267	12582
928.373	13012
928.479	12608
928.585	12403
928.69	12494
928.796	12612
928.901	12391
929.007	12194
929.112	12388
929.218	12346
929.323	12251
929.428	12258
929.533	12452
929.638	12201
929.743	12171
929.848	12311
929.953	12148
930.058	12091
930.163	11961
930.267	11969
930.372	12091
930.477	11885
930.581	12038
930.685	11965
930.79	11748
930.894	11843
930.998	11824
931.103	11870
931.207	11566
931.311	11520
931.415	11444
931.519	11227
931.623	11170
