Data from test_V78500241_1120.txt Node
Date: Fri Mar 25 15:49:33 CST 2022
User: usil
Spectrometer: V785-0024
Trigger mode: 0
Integration Time (sec): 4.000000E-1
Scans to average: 1
Nonlinearity correction enabled: false
Boxcar width: 0
Storing dark spectrum: false
XAxis mode: Wavelengths
Number of Pixels in Spectrum: 1024
>>>>>Begin Spectral Data<<<<<
801.071	28759
801.214	28729
801.356	28310
801.499	28090
801.641	28192
801.783	27968
801.926	28093
802.068	28048
802.211	28082
802.353	27903
802.496	27739
802.638	27797
802.78	27778
802.923	27686
803.065	27561
803.208	27724
803.35	27861
803.492	27949
803.635	27865
803.777	27914
803.919	27975
804.061	28211
804.204	28032
804.346	28006
804.488	27922
804.63	28013
804.773	27998
804.915	28135
805.057	28109
805.199	28032
805.341	28173
805.483	28169
805.626	28128
805.768	28036
805.91	28116
806.052	28261
806.194	28196
806.336	28405
806.478	28272
806.62	28109
806.762	28306
806.904	28459
807.046	28599
807.188	28603
807.33	28550
807.472	28748
807.614	28584
807.756	28630
807.898	28462
808.04	28348
808.182	28398
808.324	28531
808.465	28459
808.607	28607
808.749	29071
808.891	29060
809.033	28957
809.174	28862
809.316	28980
809.458	28767
809.6	28721
809.741	29064
809.883	28900
810.025	29185
810.166	29250
810.308	29136
810.45	29090
810.591	29022
810.733	28930
810.875	29003
811.016	29033
811.158	28778
811.299	28953
811.441	29083
811.582	29003
811.724	29014
811.865	28843
812.007	28911
812.148	28934
812.29	29159
812.431	29086
812.573	29204
812.714	29349
812.855	29562
812.997	29452
813.138	29653
813.279	29608
813.421	29410
813.562	29398
813.703	29269
813.845	29185
813.986	29025
814.127	28782
814.268	28626
814.41	28679
814.551	28702
814.692	28691
814.833	28592
814.974	28668
815.115	28443
815.256	28542
815.397	28527
815.539	28512
815.68	28382
815.821	28322
815.962	28493
816.103	28432
816.244	28333
816.385	28291
816.526	28207
816.666	28044
816.807	27816
816.948	28010
817.089	27991
817.23	27998
817.371	27831
817.512	27903
817.653	27991
817.793	27736
817.934	28029
818.075	27968
818.216	27835
818.356	27789
818.497	27690
818.638	27762
818.778	27663
818.919	27675
819.06	27713
819.2	27797
819.341	27911
819.481	27876
819.622	28051
819.762	28223
819.903	28150
820.043	28128
820.184	28158
820.324	27873
820.465	28032
820.605	27983
820.746	28112
820.886	27903
821.026	28097
821.167	28040
821.307	27880
821.447	28074
821.588	27835
821.728	27789
821.868	27488
822.008	27485
822.149	27477
822.289	27252
822.429	27173
822.569	27188
822.709	27089
822.849	26940
822.99	26880
823.13	26940
823.27	26906
823.41	26826
823.55	26800
823.69	26705
823.83	26796
823.97	26644
824.11	26598
824.25	26598
824.389	26617
824.529	26632
824.669	26693
824.809	26800
824.949	26629
825.089	26689
825.228	26724
825.368	26450
825.508	26465
825.648	26526
825.787	26629
825.927	26613
826.067	26419
826.206	26522
826.346	26575
826.485	26590
826.625	26507
826.765	26552
826.904	26564
827.044	26267
827.183	26195
827.323	26172
827.462	26282
827.601	26202
827.741	26195
827.88	26218
828.02	26050
828.159	26096
828.298	26244
828.437	26252
828.577	26187
828.716	26153
828.855	26214
828.994	25887
829.134	25982
829.273	25849
829.412	25803
829.551	25837
829.69	25890
829.829	25993
829.968	25875
830.107	25902
830.246	25811
830.385	25769
830.524	25772
830.663	25643
830.802	25696
830.941	25491
831.08	25479
831.219	25354
831.357	25655
831.496	25841
831.635	25453
831.774	25415
831.913	25278
832.051	25221
832.19	25206
832.329	25282
832.467	25251
832.606	25065
832.744	24901
832.883	25179
833.022	25240
833.16	25285
833.299	25232
833.437	25179
833.576	25354
833.714	25168
833.852	25247
833.991	25232
834.129	25308
834.267	25293
834.406	25187
834.544	25247
834.682	25244
834.821	25225
834.959	25430
835.097	25095
835.235	25369
835.373	25228
835.511	25099
835.65	24977
835.788	25240
835.926	24909
836.064	24932
836.202	24894
836.34	25061
836.478	25110
836.615	24939
836.753	25038
836.891	25190
837.029	25175
837.167	25008
837.305	24901
837.443	24947
837.58	24844
837.718	24863
837.856	24776
837.993	24768
838.131	24878
838.269	24863
838.406	24741
838.544	24673
838.681	24616
838.819	24544
838.956	24319
839.094	24323
839.231	24403
839.369	24471
839.506	24753
839.643	24650
839.781	24376
839.918	24384
840.055	24239
840.193	24467
840.33	24441
840.467	24357
840.604	24296
840.742	24536
840.879	24239
841.016	24163
841.153	24216
841.29	24330
841.427	24144
841.564	24353
841.701	24247
841.838	24205
841.975	24258
842.112	24114
842.249	24117
842.385	24026
842.522	24213
842.659	24060
842.796	24030
842.933	23920
843.069	23904
843.206	23992
843.343	23999
843.479	23863
843.616	24068
843.752	23813
843.889	23843
844.025	23958
844.162	23707
844.298	23809
844.435	23710
844.571	23752
844.708	23707
844.844	23992
844.98	23927
845.117	23828
845.253	23707
845.389	23581
845.525	23581
845.661	23668
845.798	23558
845.934	23630
846.07	23402
846.206	23467
846.342	23676
846.478	23448
846.614	23246
846.75	23162
846.886	23261
847.022	23284
847.158	23193
847.294	23265
847.429	23223
847.565	23197
847.701	23490
847.837	23029
847.972	22980
848.108	23086
848.244	22984
848.379	22869
848.515	22904
848.65	22889
848.786	22923
848.921	22805
849.057	22946
849.192	22824
849.328	22801
849.463	22778
849.598	22668
849.734	22687
849.869	22679
850.004	22618
850.14	22554
850.275	22675
850.41	22508
850.545	22546
850.68	22557
850.815	22702
850.95	22580
851.085	22748
851.22	22725
851.355	22668
851.49	22649
851.625	22580
851.76	22512
851.895	22436
852.03	22611
852.165	22519
852.299	22653
852.434	22869
852.569	22584
852.703	22588
852.838	22603
852.973	22752
853.107	22748
853.242	22459
853.376	22428
853.511	22303
853.645	22325
853.78	22561
853.914	22569
854.048	22337
854.183	22481
854.317	22428
854.451	22592
854.585	22352
854.72	22398
854.854	22485
854.988	22337
855.122	22485
855.256	22272
855.39	22367
855.524	22455
855.658	22333
855.792	22409
855.926	22234
856.06	22356
856.194	22405
856.327	22375
856.461	22272
856.595	22295
856.729	22356
856.862	22489
856.996	22428
857.13	22322
857.263	22535
857.397	22596
857.53	22303
857.664	22500
857.797	22493
857.931	22386
858.064	22474
858.197	22607
858.331	22386
858.464	22367
858.597	22295
858.731	22287
858.864	22360
858.997	22382
859.13	22348
859.263	22363
859.396	22493
859.529	22287
859.662	22382
859.795	22409
859.928	22402
860.061	22504
860.194	22569
860.327	22379
860.46	22508
860.592	22588
860.725	22474
860.858	22466
860.99	22379
861.123	22379
861.256	22367
861.388	22333
861.521	23197
861.653	22230
861.786	22128
861.918	22223
862.05	22314
862.183	22360
862.315	22196
862.447	22363
862.58	22204
862.712	22006
862.844	22002
862.976	22181
863.108	22101
863.24	22641
863.372	22006
863.504	22112
863.636	22051
863.768	22074
863.9	22055
864.032	21991
864.164	21926
864.296	22120
864.428	22139
864.559	22074
864.691	22215
864.823	22078
864.954	22078
865.086	22040
865.217	21968
865.349	21994
865.48	21987
865.612	22078
865.743	22074
865.875	21960
866.006	22017
866.137	21979
866.269	22021
866.4	21934
866.531	21930
866.662	21827
866.793	21937
866.924	21922
867.055	21972
867.186	22032
867.317	21846
867.448	21854
867.579	21857
867.71	21785
867.841	21747
867.972	21831
868.103	21907
868.233	21876
868.364	21888
868.495	21987
868.625	22078
868.756	22226
868.886	22128
869.017	22139
869.147	22253
869.278	22246
869.408	22154
869.539	22128
869.669	22211
869.799	22310
869.929	22276
870.06	22093
870.19	22523
870.32	22363
870.45	22436
870.58	22557
870.71	22664
870.84	22626
870.97	22508
871.1	22519
871.23	22687
871.36	22767
871.489	22679
871.619	22637
871.749	22713
871.879	22744
872.008	22877
872.138	22725
872.267	22675
872.397	22493
872.526	22577
872.656	22607
872.785	22649
872.915	22744
873.044	22793
873.173	22782
873.303	22831
873.432	22797
873.561	22801
873.69	22786
873.819	22721
873.948	22782
874.077	22710
874.206	22793
874.335	22812
874.464	22961
874.593	22930
874.722	23025
874.851	22976
874.979	23025
875.108	23086
875.237	22915
875.365	22896
875.494	23006
875.623	23025
875.751	22915
875.88	23022
876.008	23064
876.136	23223
876.265	23402
876.393	23566
876.521	23402
876.65	23417
876.778	23440
876.906	23341
877.034	23220
877.162	23242
877.29	23288
877.418	23398
877.546	23387
877.674	23277
877.802	23296
877.93	23372
878.058	23200
878.185	23178
878.313	23349
878.441	23379
878.568	23083
878.696	23261
878.824	23273
878.951	23467
879.079	23417
879.206	23634
879.333	23535
879.461	23356
879.588	23440
879.715	23463
879.842	23512
879.97	23436
880.097	23140
880.224	23261
880.351	23250
880.478	23060
880.605	23140
880.732	23121
880.859	23425
880.986	23033
881.112	23056
881.239	22938
881.366	22786
881.493	22839
881.619	22797
881.746	22706
881.872	22596
881.999	22554
882.125	22523
882.252	22599
882.378	22607
882.505	22721
882.631	22436
882.757	22417
882.883	22481
883.01	22272
883.136	22356
883.262	22246
883.388	22215
883.514	22325
883.64	22402
883.766	22291
883.892	21991
884.018	22188
884.143	22344
884.269	22447
884.395	21972
884.52	22029
884.646	21975
884.772	21956
884.897	21926
885.023	22036
885.148	22139
885.274	22109
885.399	22040
885.524	21975
885.65	22036
885.775	21991
885.9	21918
886.025	22036
886.15	22002
886.275	21994
886.4	21979
886.525	21857
886.65	21945
886.775	21884
886.9	22128
887.025	22287
887.149	21941
887.274	21774
887.399	21835
887.523	21724
887.648	21850
887.773	21667
887.897	21854
888.021	21789
888.146	21713
888.27	21812
888.395	21941
888.519	21694
888.643	21648
888.767	21751
888.891	21732
889.015	21488
889.139	21580
889.263	21515
889.387	21675
889.511	21698
889.635	21614
889.759	21469
889.883	21519
890.006	21576
890.13	21625
890.254	21359
890.377	21329
890.501	21249
890.624	21218
890.748	21302
890.871	21108
890.995	21066
891.118	21017
891.241	20986
891.364	21070
891.488	21150
891.611	21138
891.734	21039
891.857	21161
891.98	21161
892.103	21135
892.226	21066
892.349	20982
892.471	20880
892.594	21043
892.717	21123
892.839	20952
892.962	21074
893.085	21055
893.207	20982
893.33	20746
893.452	20990
893.575	21013
893.697	20937
893.819	21093
893.941	21268
894.064	21104
894.186	20910
894.308	20986
894.43	20963
894.552	20990
894.674	21180
894.796	20861
894.918	20979
895.04	20941
895.161	20960
895.283	21009
895.405	20975
895.526	20918
895.648	20910
895.769	20838
895.891	20986
896.012	21028
896.134	20933
896.255	21074
896.376	20921
896.498	20963
896.619	21112
896.74	21024
896.861	21043
896.982	21332
897.103	21344
897.224	21199
897.345	21203
897.466	21237
897.587	21150
897.708	21310
897.828	21237
897.949	21100
898.07	20826
898.19	21146
898.311	21237
898.431	21062
898.552	21157
898.672	21306
898.792	21226
898.913	21195
899.033	20937
899.153	20994
899.273	20811
899.393	20914
899.513	20895
899.633	20842
899.753	20914
899.873	20872
899.993	20857
900.113	20777
900.232	20861
900.352	20716
900.472	20743
900.591	20568
900.711	20693
900.83	20514
900.95	20823
901.069	20765
901.189	20606
901.308	20320
901.427	20187
901.546	20298
901.665	20332
901.784	20206
901.904	20081
902.023	20031
902.141	19871
902.26	19791
902.379	19788
902.498	19696
902.617	19655
902.735	19784
902.854	19708
902.973	19685
903.091	19369
903.21	19487
903.328	19324
903.446	19255
903.565	19263
903.683	19141
903.801	19122
903.919	19118
904.038	19168
904.156	18973
904.274	19046
904.392	18871
904.51	18966
904.627	18993
904.745	18939
904.863	18951
904.981	18692
905.098	18642
905.216	18566
905.334	18604
905.451	18635
905.569	18574
905.686	18684
905.803	18509
905.921	18338
906.038	18551
906.155	18448
906.272	18277
906.389	18399
906.506	18114
906.623	18178
906.74	18216
906.857	18011
906.974	18011
907.091	18254
907.208	18163
907.324	18133
907.441	18091
907.557	17889
907.674	17855
907.79	17764
907.907	17733
908.023	17882
908.139	17840
908.256	17809
908.372	17710
908.488	17687
908.604	17596
908.72	17436
908.836	17535
908.952	17512
909.068	17619
909.184	17672
909.3	17573
909.415	17627
909.531	17661
909.647	17303
909.762	17254
909.878	17223
909.993	17216
910.108	17242
910.224	17235
910.339	17292
910.454	17216
910.57	17124
910.685	16987
910.8	17277
910.915	17079
911.03	17071
911.145	16873
911.259	16908
911.374	16866
911.489	16793
911.604	16748
911.718	16596
911.833	16653
911.947	16371
912.062	16497
912.176	16607
912.291	16474
912.405	16653
912.519	16869
912.633	16744
912.748	16744
912.862	16561
912.976	16352
913.09	16314
913.204	16375
913.318	16398
913.431	16519
913.545	16417
913.659	16462
913.772	16242
913.886	16200
914	16147
914.113	16261
914.226	16230
914.34	16242
914.453	16109
914.566	16291
914.68	15998
914.793	16017
914.906	15823
915.019	15797
915.132	15698
915.245	15766
915.358	15823
915.47	15827
915.583	15709
915.696	15759
915.809	15816
915.921	15816
916.034	15694
916.146	15667
916.259	15751
916.371	15694
916.483	15705
916.595	15671
916.708	15633
916.82	15496
916.932	15675
917.044	15622
917.156	15428
917.268	15386
917.38	15443
917.491	15431
917.603	15374
917.715	15405
917.826	15526
917.938	15412
918.049	15340
918.161	15306
918.272	15450
918.384	15485
918.495	15294
918.606	15207
918.717	15150
918.828	15180
918.939	15233
919.05	15093
919.161	15055
919.272	14967
919.383	15028
919.494	15157
919.604	15386
919.715	15146
919.826	15093
919.936	15135
920.047	15173
920.157	15157
920.267	15203
920.378	15135
920.488	15089
920.598	15222
920.708	15389
920.818	15306
920.928	15184
921.038	15386
921.148	15294
921.258	15077
921.368	14986
921.477	14815
921.587	14724
921.697	14735
921.806	14979
921.916	14724
922.025	14533
922.134	14522
922.244	14431
922.353	14480
922.462	14434
922.571	14305
922.68	14096
922.789	14050
922.898	14142
923.007	14058
923.116	14187
923.224	14062
923.333	14084
923.442	13982
923.55	13921
923.659	13963
923.767	13917
923.876	13788
923.984	13940
924.092	13776
924.201	13860
924.309	13875
924.417	13761
924.525	13693
924.633	13799
924.741	14511
924.849	13525
924.956	13715
925.064	13544
925.172	13407
925.279	13457
925.387	13540
925.494	13480
925.602	13651
925.709	13537
925.816	13396
925.924	13312
926.031	13472
926.138	13388
926.245	13419
926.352	13320
926.459	13441
926.566	13533
926.673	13282
926.779	13301
926.886	13266
926.993	13080
927.099	13050
927.206	13000
927.312	13023
927.419	13008
927.525	13061
927.631	13019
927.737	12890
927.843	12821
927.95	12787
928.056	12913
928.162	12875
928.267	12859
928.373	13468
928.479	12886
928.585	12669
928.69	12844
928.796	12719
928.901	12700
929.007	12513
929.112	12662
929.218	12616
929.323	12551
929.428	12578
929.533	12711
929.638	12544
929.743	12551
929.848	12597
929.953	12498
930.058	12388
930.163	12232
930.267	12262
930.372	12376
930.477	12251
930.581	12407
930.685	12239
930.79	12117
930.894	12083
930.998	12076
931.103	12175
931.207	11851
931.311	11756
931.415	11638
931.519	11528
931.623	11417
