Data from test_V78500241_3128.txt Node
Date: Fri Mar 25 16:03:28 CST 2022
User: usil
Spectrometer: V785-0024
Trigger mode: 0
Integration Time (sec): 4.000000E-1
Scans to average: 1
Nonlinearity correction enabled: false
Boxcar width: 0
Storing dark spectrum: false
XAxis mode: Wavelengths
Number of Pixels in Spectrum: 1024
>>>>>Begin Spectral Data<<<<<
801.071	28892
801.214	28820
801.356	28698
801.499	28474
801.641	28580
801.783	28443
801.926	28546
802.068	28443
802.211	28284
802.353	28367
802.496	28265
802.638	28234
802.78	28162
802.923	28040
803.065	28074
803.208	28101
803.35	28097
803.492	28363
803.635	28318
803.777	28333
803.919	28424
804.061	28675
804.204	28497
804.346	28500
804.488	28432
804.63	28421
804.773	28348
804.915	28466
805.057	28546
805.199	28436
805.341	28481
805.483	28660
805.626	28485
805.768	28455
805.91	28683
806.052	28634
806.194	28531
806.336	28729
806.478	28565
806.62	28573
806.762	28752
806.904	28949
807.046	29159
807.188	29033
807.33	29094
807.472	29086
807.614	29090
807.756	29064
807.898	28972
808.04	28755
808.182	28831
808.324	28888
808.465	29010
808.607	29208
808.749	29436
808.891	29349
809.033	29391
809.174	29337
809.316	29265
809.458	29208
809.6	29356
809.741	29467
809.883	29505
810.025	29379
810.166	29570
810.308	29596
810.45	29520
810.591	29627
810.733	29315
810.875	29330
811.016	29436
811.158	29299
811.299	29429
811.441	29551
811.582	29383
811.724	29349
811.865	29311
812.007	29341
812.148	29345
812.29	29242
812.431	29395
812.573	29668
812.714	29798
812.855	29935
812.997	29984
813.138	30045
813.279	29980
813.421	29939
813.562	29942
813.703	29703
813.845	29585
813.986	29334
814.127	29170
814.268	29159
814.41	28930
814.551	28949
814.692	29174
814.833	29067
814.974	29029
815.115	29155
815.256	28953
815.397	28949
815.539	28915
815.68	28923
815.821	28900
815.962	28839
816.103	28953
816.244	28767
816.385	28645
816.526	28668
816.666	28489
816.807	28443
816.948	28360
817.089	28611
817.23	28356
817.371	28337
817.512	28371
817.653	28314
817.793	28367
817.934	28421
818.075	28272
818.216	28375
818.356	28413
818.497	28329
818.638	28272
818.778	28188
818.919	28303
819.06	28120
819.2	28276
819.341	28337
819.481	28432
819.622	28683
819.762	28603
819.903	28740
820.043	28573
820.184	28447
820.324	28592
820.465	28588
820.605	28512
820.746	28493
820.886	28367
821.026	28611
821.167	28577
821.307	28634
821.447	28386
821.588	28306
821.728	28086
821.868	28188
822.008	28017
822.149	27880
822.289	27728
822.429	27633
822.569	27622
822.709	27564
822.849	27469
822.99	27397
823.13	27382
823.27	27325
823.41	27363
823.55	27112
823.69	27233
823.83	27154
823.97	27161
824.11	26994
824.25	27062
824.389	26975
824.529	27123
824.669	26982
824.809	27169
824.949	27135
825.089	26990
825.228	27127
825.368	26842
825.508	26834
825.648	26937
825.787	26868
825.927	27093
826.067	26910
826.206	27024
826.346	26952
826.485	26960
826.625	26864
826.765	27093
826.904	26906
827.044	26773
827.183	26712
827.323	26674
827.462	26651
827.601	26663
827.741	26659
827.88	26823
828.02	26731
828.159	26659
828.298	26629
828.437	26693
828.577	26503
828.716	26777
828.855	26461
828.994	26339
829.134	26366
829.273	26473
829.412	26313
829.551	26324
829.69	26431
829.829	26313
829.968	26408
830.107	26465
830.246	26381
830.385	26286
830.524	26408
830.663	26221
830.802	26031
830.941	26005
831.08	26027
831.219	26039
831.357	26020
831.496	26164
831.635	26058
831.774	25898
831.913	25909
832.051	25818
832.19	25799
832.329	25807
832.467	25685
832.606	25582
832.744	25563
832.883	25616
833.022	25605
833.16	25540
833.299	25693
833.437	25537
833.576	25811
833.714	25795
833.852	25662
833.991	25822
834.129	25616
834.267	25776
834.406	25807
834.544	25643
834.682	25765
834.821	25689
834.959	25795
835.097	25704
835.235	25742
835.373	25651
835.511	25563
835.65	25441
835.788	25559
835.926	25563
836.064	25259
836.202	25384
836.34	25426
836.478	25635
836.615	25377
836.753	25518
836.891	25670
837.029	25434
837.167	25403
837.305	25460
837.443	25354
837.58	25209
837.718	25354
837.856	25468
837.993	25297
838.131	25278
838.269	25042
838.406	25217
838.544	25221
838.681	25069
838.819	24928
838.956	24795
839.094	24901
839.231	24837
839.369	25027
839.506	25099
839.643	25122
839.781	24791
839.918	24688
840.055	24791
840.193	24817
840.33	24646
840.467	24696
840.604	24703
840.742	25012
840.879	24627
841.016	24631
841.153	24608
841.29	24711
841.427	24741
841.564	24661
841.701	24722
841.838	24574
841.975	24658
842.112	24612
842.249	24551
842.385	24437
842.522	24738
842.659	24502
842.796	24407
842.933	24471
843.069	24490
843.206	24410
843.343	24585
843.479	24407
843.616	24433
843.752	24350
843.889	24220
844.025	24372
844.162	24194
844.298	24281
844.435	24273
844.571	24273
844.708	24289
844.844	24372
844.98	24338
845.117	24163
845.253	24182
845.389	24167
845.525	24125
845.661	24079
845.798	24003
845.934	24003
846.07	23836
846.206	23980
846.342	24091
846.478	23889
846.614	23798
846.75	23676
846.886	23657
847.022	23707
847.158	23649
847.294	23733
847.429	23775
847.565	23570
847.701	23916
847.837	23356
847.972	23425
848.108	23509
848.244	23493
848.379	23250
848.515	23261
848.65	23292
848.786	23254
848.921	23178
849.057	23444
849.192	23299
849.328	23288
849.463	23387
849.598	23174
849.734	23185
849.869	23113
850.004	23022
850.14	23147
850.275	23193
850.41	23067
850.545	22984
850.68	22942
850.815	23010
850.95	23010
851.085	23231
851.22	23166
851.355	23166
851.49	22911
851.625	23086
851.76	23060
851.895	23056
852.03	22934
852.165	23128
852.299	22953
852.434	23048
852.569	23197
852.703	23006
852.838	23048
852.973	23083
853.107	23189
853.242	22858
853.376	22980
853.511	22713
853.645	22702
853.78	23010
853.914	22900
854.048	22793
854.183	22904
854.317	22896
854.451	23003
854.585	22839
854.72	22953
854.854	22908
854.988	22805
855.122	22729
855.256	22782
855.39	22896
855.524	22847
855.658	22831
855.792	22843
855.926	22828
856.06	22908
856.194	22889
856.327	22957
856.461	22611
856.595	22778
856.729	22930
856.862	22904
856.996	22801
857.13	22816
857.263	22965
857.397	22889
857.53	22866
857.664	22828
857.797	22866
857.931	22946
858.064	22946
858.197	23025
858.331	22710
858.464	22763
858.597	22850
858.731	22854
858.864	22831
858.997	22847
859.13	22873
859.263	22759
859.396	22923
859.529	22843
859.662	22858
859.795	22793
859.928	22869
860.061	23056
860.194	23003
860.327	22816
860.46	22927
860.592	22953
860.725	22987
860.858	23048
860.99	22908
861.123	22839
861.256	22736
861.388	22854
861.521	23429
861.653	22675
861.786	22668
861.918	22702
862.05	22778
862.183	22717
862.315	22755
862.447	22717
862.58	22786
862.712	22607
862.844	22569
862.976	22691
863.108	22603
863.24	22938
863.372	22470
863.504	22497
863.636	22569
863.768	22504
863.9	22493
864.032	22561
864.164	22641
864.296	22592
864.428	22740
864.559	22630
864.691	22611
864.823	22527
864.954	22645
865.086	22577
865.217	22561
865.349	22306
865.48	22337
865.612	22519
865.743	22504
865.875	22421
866.006	22325
866.137	22409
866.269	22561
866.4	22367
866.531	22436
866.662	22329
866.793	22356
866.924	22341
867.055	22367
867.186	22402
867.317	22215
867.448	22249
867.579	22363
867.71	22337
867.841	22257
867.972	22325
868.103	22352
868.233	22322
868.364	22207
868.495	22497
868.625	22641
868.756	22645
868.886	22497
869.017	22626
869.147	22725
869.278	22687
869.408	22615
869.539	22531
869.669	22691
869.799	22584
869.929	22736
870.06	22717
870.19	22683
870.32	22923
870.45	22987
870.58	23025
870.71	23090
870.84	22999
870.97	23075
871.1	23010
871.23	23048
871.36	23067
871.489	23117
871.619	23143
871.749	23353
871.879	23151
872.008	23284
872.138	23197
872.267	23212
872.397	23041
872.526	23124
872.656	23018
872.785	23083
872.915	23117
873.044	23284
873.173	23128
873.303	23307
873.432	23280
873.561	23410
873.69	23368
873.819	23296
873.948	23345
874.077	23212
874.206	23044
874.335	23189
874.464	23311
874.593	23455
874.722	23395
874.851	23497
874.979	23474
875.108	23493
875.237	23349
875.365	23330
875.494	23395
875.623	23463
875.751	23417
875.88	23436
876.008	23623
876.136	23516
876.265	23794
876.393	23931
876.521	23847
876.65	23927
876.778	23863
876.906	23710
877.034	23760
877.162	23798
877.29	23783
877.418	23840
877.546	23836
877.674	23851
877.802	23691
877.93	23783
878.058	23592
878.185	23592
878.313	23726
878.441	23756
878.568	23516
878.696	23714
878.824	23813
878.951	23832
879.079	23882
879.206	23992
879.333	24068
879.461	23817
879.588	23912
879.715	23958
879.842	24015
879.97	23893
880.097	23520
880.224	23436
880.351	23581
880.478	23554
880.605	23581
880.732	23596
880.859	23767
880.986	23665
881.112	23600
881.239	23421
881.366	23360
881.493	23239
881.619	23181
881.746	23128
881.872	23102
881.999	23174
882.125	23029
882.252	23140
882.378	23143
882.505	23200
882.631	23025
882.757	22812
882.883	22900
883.01	22809
883.136	22763
883.262	22649
883.388	22626
883.514	22839
883.64	22763
883.766	22607
883.892	22546
884.018	22694
884.143	22694
884.269	22755
884.395	22432
884.52	22443
884.646	22440
884.772	22409
884.897	22382
885.023	22470
885.148	22375
885.274	22535
885.399	22512
885.524	22402
885.65	22542
885.775	22432
885.9	22466
886.025	22588
886.15	22531
886.275	22409
886.4	22268
886.525	22436
886.65	22352
886.775	22390
886.9	22497
887.025	22538
887.149	22455
887.274	22192
887.399	22253
887.523	22169
887.648	22166
887.773	22135
887.897	22242
888.021	22196
888.146	22139
888.27	22280
888.395	22226
888.519	22219
888.643	22268
888.767	22215
888.891	21975
889.015	22025
889.139	22002
889.263	21945
889.387	22006
889.511	22230
889.635	22158
889.759	21918
889.883	21968
890.006	22070
890.13	22036
890.254	21926
890.377	21823
890.501	21804
890.624	21603
890.748	21747
890.871	21633
890.995	21603
891.118	21408
891.241	21420
891.364	21526
891.488	21698
891.611	21519
891.734	21443
891.857	21568
891.98	21496
892.103	21519
892.226	21500
892.349	21439
892.471	21294
892.594	21477
892.717	21447
892.839	21420
892.962	21386
893.085	21424
893.207	21332
893.33	21348
893.452	21279
893.575	21393
893.697	21340
893.819	21629
893.941	21576
894.064	21568
894.186	21340
894.308	21424
894.43	21450
894.552	21561
894.674	21469
894.796	21249
894.918	21351
895.04	21306
895.161	21485
895.283	21329
895.405	21310
895.526	21329
895.648	21397
895.769	21382
895.891	21310
896.012	21462
896.134	21447
896.255	21393
896.376	21252
896.498	21348
896.619	21310
896.74	21401
896.861	21477
896.982	21694
897.103	21762
897.224	21523
897.345	21523
897.466	21595
897.587	21545
897.708	21766
897.828	21599
897.949	21382
898.07	21408
898.19	21504
898.311	21587
898.431	21481
898.552	21583
898.672	21603
898.792	21610
898.913	21466
899.033	21477
899.153	21393
899.273	21245
899.393	21317
899.513	21336
899.633	21214
899.753	21355
899.873	21135
899.993	21313
900.113	21222
900.232	21218
900.352	21237
900.472	21020
900.591	21009
900.711	21062
900.83	20982
900.95	21230
901.069	21142
901.189	20994
901.308	20659
901.427	20689
901.546	20606
901.665	20731
901.784	20613
901.904	20488
902.023	20339
902.141	20176
902.26	20069
902.379	20381
902.498	20103
902.617	20084
902.735	20122
902.854	20119
902.973	19947
903.091	19875
903.21	19674
903.328	19700
903.446	19685
903.565	19575
903.683	19613
903.801	19392
903.919	19567
904.038	19559
904.156	19457
904.274	19422
904.392	19358
904.51	19297
904.627	19289
904.745	19324
904.863	19487
904.981	19088
905.098	19038
905.216	19031
905.334	19053
905.451	18973
905.569	18977
905.686	18970
905.803	18970
905.921	18623
906.038	18890
906.155	18688
906.272	18700
906.389	18635
906.506	18547
906.623	18479
906.74	18566
906.857	18327
906.974	18433
907.091	18555
907.208	18570
907.324	18544
907.441	18433
907.557	18201
907.674	18281
907.79	18057
907.907	18129
908.023	18201
908.139	18273
908.256	17996
908.372	18095
908.488	18076
908.604	17973
908.72	17920
908.836	17874
908.952	18007
909.068	17916
909.184	18015
909.3	17908
909.415	18038
909.531	17870
909.647	17703
909.762	17573
909.878	17642
909.993	17661
910.108	17520
910.224	17581
910.339	17497
910.454	17463
910.57	17410
910.685	17318
910.8	17589
910.915	17543
911.03	17337
911.145	17181
911.259	17193
911.374	17242
911.489	17136
911.604	17045
911.718	16942
911.833	16968
911.947	16786
912.062	16824
912.176	16927
912.291	16869
912.405	16889
912.519	17071
912.633	17155
912.748	16938
912.862	16938
912.976	16656
913.09	16675
913.204	16694
913.318	16755
913.431	16843
913.545	16839
913.659	16809
913.772	16721
913.886	16607
914	16443
914.113	16577
914.226	16637
914.34	16691
914.453	16417
914.566	16455
914.68	16424
914.793	16489
914.906	16234
915.019	16101
915.132	16169
915.245	16086
915.358	16166
915.47	16120
915.583	16109
915.696	16021
915.809	16185
915.921	16204
916.034	16055
916.146	16021
916.259	15888
916.371	15968
916.483	15983
916.595	15941
916.708	15945
916.82	15835
916.932	15743
917.044	15907
917.156	15732
917.268	15823
917.38	15838
917.491	15656
917.603	15667
917.715	15808
917.826	15903
917.938	15633
918.049	15587
918.161	15648
918.272	15812
918.384	15949
918.495	15572
918.606	15534
918.717	15424
918.828	15545
918.939	15485
919.05	15469
919.161	15488
919.272	15298
919.383	15279
919.494	15393
919.604	15682
919.715	15462
919.826	15393
919.936	15344
920.047	15439
920.157	15355
920.267	15603
920.378	15374
920.488	15485
920.598	15629
920.708	15698
920.818	15606
920.928	15519
921.038	15538
921.148	15584
921.258	15336
921.368	15313
921.477	15112
921.587	15138
921.697	15058
921.806	15062
921.916	14986
922.025	14792
922.134	14739
922.244	14678
922.353	14727
922.462	14613
922.571	14541
922.68	14503
922.789	14396
922.898	14412
923.007	14282
923.116	14438
923.224	14377
923.333	14347
923.442	14248
923.55	14153
923.659	14298
923.767	14202
923.876	14210
923.984	14183
924.092	14157
924.201	14153
924.309	14081
924.417	14218
924.525	14039
924.633	13993
924.741	14788
924.849	13818
924.956	13940
925.064	13750
925.172	13708
925.279	13750
925.387	13761
925.494	13734
925.602	13902
925.709	13791
925.816	13647
925.924	13674
926.031	13719
926.138	13677
926.245	13670
926.352	13540
926.459	13738
926.566	13795
926.673	13586
926.779	13540
926.886	13578
926.993	13285
927.099	13335
927.206	13187
927.312	13164
927.419	13301
927.525	13225
927.631	13369
927.737	13107
927.843	13034
927.95	13015
928.056	13095
928.162	13053
928.267	13244
928.373	13742
928.479	13171
928.585	13023
928.69	13042
928.796	13012
928.901	12966
929.007	12798
929.112	12928
929.218	12905
929.323	12814
929.428	12791
929.533	12905
929.638	12741
929.743	12684
929.848	12791
929.953	12726
930.058	12585
930.163	12407
930.267	12551
930.372	12654
930.477	12422
930.581	12692
930.685	12483
930.79	12346
930.894	12372
930.998	12350
931.103	12429
931.207	12034
931.311	12095
931.415	11935
931.519	11707
931.623	11748
