Data from test_V78500241_3240.txt Node
Date: Fri Mar 25 16:04:14 CST 2022
User: usil
Spectrometer: V785-0024
Trigger mode: 0
Integration Time (sec): 4.000000E-1
Scans to average: 1
Nonlinearity correction enabled: false
Boxcar width: 0
Storing dark spectrum: false
XAxis mode: Wavelengths
Number of Pixels in Spectrum: 1024
>>>>>Begin Spectral Data<<<<<
801.071	28782
801.214	28755
801.356	28557
801.499	28565
801.641	28325
801.783	28497
801.926	28538
802.068	28428
802.211	28436
802.353	28367
802.496	28238
802.638	28223
802.78	28207
802.923	28048
803.065	28010
803.208	28086
803.35	28204
803.492	28341
803.635	28200
803.777	28223
803.919	28299
804.061	28637
804.204	28577
804.346	28329
804.488	28382
804.63	28440
804.773	28341
804.915	28318
805.057	28588
805.199	28531
805.341	28546
805.483	28565
805.626	28531
805.768	28440
805.91	28421
806.052	28630
806.194	28459
806.336	28786
806.478	28592
806.62	28622
806.762	28588
806.904	28778
807.046	29052
807.188	29064
807.33	28995
807.472	29098
807.614	28869
807.756	29014
807.898	28900
808.04	28816
808.182	28755
808.324	28957
808.465	28881
808.607	29151
808.749	29121
808.891	29185
809.033	29417
809.174	29372
809.316	29147
809.458	29265
809.6	29170
809.741	29398
809.883	29273
810.025	29604
810.166	29627
810.308	29524
810.45	29482
810.591	29417
810.733	29360
810.875	29292
811.016	29231
811.158	29197
811.299	29524
811.441	29459
811.582	29322
811.724	29410
811.865	29212
812.007	29155
812.148	29334
812.29	29337
812.431	29375
812.573	29649
812.714	29566
812.855	29893
812.997	29885
813.138	29999
813.279	29851
813.421	29809
813.562	29745
813.703	29668
813.845	29429
813.986	29223
814.127	29124
814.268	29075
814.41	29143
814.551	29083
814.692	29155
814.833	28957
814.974	29041
815.115	28919
815.256	28885
815.397	28774
815.539	28949
815.68	28835
815.821	28774
815.962	28782
816.103	28831
816.244	28824
816.385	28702
816.526	28656
816.666	28417
816.807	28249
816.948	28295
817.089	28352
817.23	28200
817.371	28268
817.512	28303
817.653	28265
817.793	28379
817.934	28257
818.075	28284
818.216	28421
818.356	28382
818.497	28143
818.638	28105
818.778	28150
818.919	28112
819.06	28093
819.2	28162
819.341	28306
819.481	28325
819.622	28557
819.762	28850
819.903	28626
820.043	28634
820.184	28512
820.324	28527
820.465	28512
820.605	28440
820.746	28348
820.886	28371
821.026	28325
821.167	28325
821.307	28500
821.447	28265
821.588	28226
821.728	28291
821.868	27964
822.008	27880
822.149	27778
822.289	27774
822.429	27534
822.569	27564
822.709	27568
822.849	27294
822.99	27397
823.13	27378
823.27	27184
823.41	27005
823.55	27211
823.69	27207
823.83	27135
823.97	27119
824.11	26982
824.25	26948
824.389	26876
824.529	27055
824.669	27112
824.809	27047
824.949	26967
825.089	27028
825.228	27005
825.368	26902
825.508	26883
825.648	26971
825.787	26811
825.927	26925
826.067	26762
826.206	26921
826.346	26925
826.485	26994
826.625	26891
826.765	26940
826.904	26925
827.044	26701
827.183	26590
827.323	26518
827.462	26522
827.601	26602
827.741	26507
827.88	26674
828.02	26465
828.159	26602
828.298	26560
828.437	26579
828.577	26602
828.716	26552
828.855	26377
828.994	26347
829.134	26218
829.273	26309
829.412	26271
829.551	26252
829.69	26237
829.829	26286
829.968	26434
830.107	26362
830.246	26400
830.385	26126
830.524	26168
830.663	26138
830.802	26039
830.941	25845
831.08	25856
831.219	25955
831.357	26016
831.496	26039
831.635	25868
831.774	25742
831.913	25780
832.051	25799
832.19	25723
832.329	25723
832.467	25510
832.606	25403
832.744	25445
832.883	25525
833.022	25563
833.16	25647
833.299	25605
833.437	25677
833.576	25613
833.714	25613
833.852	25624
833.991	25662
834.129	25670
834.267	25677
834.406	25563
834.544	25655
834.682	25624
834.821	25639
834.959	25712
835.097	25499
835.235	25628
835.373	25647
835.511	25548
835.65	25468
835.788	25483
835.926	25392
836.064	25225
836.202	25445
836.34	25362
836.478	25460
836.615	25457
836.753	25441
836.891	25552
837.029	25487
837.167	25346
837.305	25335
837.443	25339
837.58	25213
837.718	25400
837.856	25312
837.993	25148
838.131	25213
838.269	25202
838.406	25122
838.544	25050
838.681	24867
838.819	24844
838.956	24741
839.094	24703
839.231	24787
839.369	24829
839.506	25084
839.643	24981
839.781	24681
839.918	24711
840.055	24639
840.193	24665
840.33	24574
840.467	24692
840.604	24715
840.742	24951
840.879	24384
841.016	24604
841.153	24479
841.29	24696
841.427	24631
841.564	24681
841.701	24700
841.838	24559
841.975	24597
842.112	24528
842.249	24445
842.385	24445
842.522	24544
842.659	24422
842.796	24369
842.933	24376
843.069	24251
843.206	24353
843.343	24532
843.479	24361
843.616	24414
843.752	24068
843.889	24106
844.025	24277
844.162	24159
844.298	24262
844.435	24243
844.571	24079
844.708	24152
844.844	24262
844.98	24292
845.117	24273
845.253	24136
845.389	24034
845.525	23999
845.661	24045
845.798	23977
845.934	23961
846.07	23866
846.206	23927
846.342	24076
846.478	23821
846.614	23718
846.75	23558
846.886	23646
847.022	23634
847.158	23619
847.294	23611
847.429	23748
847.565	23623
847.701	23821
847.837	23311
847.972	23364
848.108	23425
848.244	23493
848.379	23242
848.515	23117
848.65	23128
848.786	23223
848.921	23216
849.057	23356
849.192	23239
849.328	23372
849.463	23273
849.598	23052
849.734	23231
849.869	23098
850.004	23033
850.14	22961
850.275	23033
850.41	22881
850.545	22946
850.68	22820
850.815	23052
850.95	22915
851.085	23124
851.22	23018
851.355	23033
851.49	23060
851.625	22995
851.76	22965
851.895	22942
852.03	22915
852.165	23067
852.299	23033
852.434	22915
852.569	22839
852.703	22862
852.838	22938
852.973	23155
853.107	23166
853.242	22858
853.376	22831
853.511	22706
853.645	22664
853.78	22900
853.914	22721
854.048	22656
854.183	22816
854.317	22755
854.451	23006
854.585	22771
854.72	22885
854.854	22892
854.988	22748
855.122	22740
855.256	22809
855.39	22752
855.524	22965
855.658	22831
855.792	22748
855.926	22717
856.06	22831
856.194	22793
856.327	22687
856.461	22763
856.595	22793
856.729	22812
856.862	22892
856.996	22843
857.13	22820
857.263	23010
857.397	22869
857.53	22767
857.664	22740
857.797	22858
857.931	22923
858.064	22725
858.197	22778
858.331	22744
858.464	22866
858.597	22664
858.731	22740
858.864	22752
858.997	22824
859.13	22763
859.263	22717
859.396	22858
859.529	22782
859.662	22733
859.795	22759
859.928	22790
860.061	22877
860.194	23056
860.327	22915
860.46	22767
860.592	22923
860.725	22961
860.858	22892
860.99	22725
861.123	22679
861.256	22729
861.388	22767
861.521	23482
861.653	22550
861.786	22542
861.918	22493
862.05	22622
862.183	22793
862.315	22828
862.447	22854
862.58	22717
862.712	22455
862.844	22443
862.976	22497
863.108	22607
863.24	23048
863.372	22390
863.504	22462
863.636	22481
863.768	22531
863.9	22466
864.032	22440
864.164	22367
864.296	22550
864.428	22611
864.559	22459
864.691	22607
864.823	22577
864.954	22508
865.086	22470
865.217	22508
865.349	22329
865.48	22341
865.612	22306
865.743	22474
865.875	22440
866.006	22386
866.137	22371
866.269	22352
866.4	22360
866.531	22314
866.662	22375
866.793	22276
866.924	22382
867.055	22363
867.186	22428
867.317	22207
867.448	22128
867.579	22242
867.71	22306
867.841	22124
867.972	22284
868.103	22173
868.233	22291
868.364	22128
868.495	22409
868.625	22500
868.756	22584
868.886	22542
869.017	22432
869.147	22592
869.278	22664
869.408	22577
869.539	22421
869.669	22672
869.799	22580
869.929	22687
870.06	22584
870.19	22793
870.32	22774
870.45	22733
870.58	22908
870.71	23010
870.84	22999
870.97	22984
871.1	22923
871.23	23037
871.36	23079
871.489	23022
871.619	23029
871.749	23193
871.879	23140
872.008	23269
872.138	23143
872.267	23086
872.397	23052
872.526	22953
872.656	22987
872.785	23022
872.915	23075
873.044	23220
873.173	23239
873.303	23337
873.432	23121
873.561	23242
873.69	23239
873.819	23159
873.948	23216
874.077	23132
874.206	23083
874.335	23121
874.464	23288
874.593	23334
874.722	23376
874.851	23349
874.979	23471
875.108	23311
875.237	23250
875.365	23269
875.494	23341
875.623	23307
875.751	23330
875.88	23387
876.008	23417
876.136	23585
876.265	23775
876.393	23961
876.521	23889
876.65	23813
876.778	23824
876.906	23554
877.034	23668
877.162	23630
877.29	23821
877.418	23737
877.546	23786
877.674	23596
877.802	23718
877.93	23729
878.058	23760
878.185	23596
878.313	23570
878.441	23642
878.568	23524
878.696	23646
878.824	23813
878.951	23809
879.079	23874
879.206	24057
879.333	23935
879.461	23672
879.588	23912
879.715	23916
879.842	23942
879.97	23703
880.097	23516
880.224	23509
880.351	23638
880.478	23512
880.605	23402
880.732	23288
880.859	23783
880.986	23531
881.112	23474
881.239	23417
881.366	23269
881.493	23159
881.619	23102
881.746	23048
881.872	23064
881.999	23189
882.125	22934
882.252	23094
882.378	23006
882.505	23246
882.631	22919
882.757	22763
882.883	22748
883.01	22694
883.136	22664
883.262	22592
883.388	22618
883.514	22850
883.64	22755
883.766	22675
883.892	22443
884.018	22649
884.143	22672
884.269	22630
884.395	22554
884.52	22337
884.646	22394
884.772	22329
884.897	22371
885.023	22440
885.148	22478
885.274	22436
885.399	22500
885.524	22303
885.65	22481
885.775	22356
885.9	22337
886.025	22398
886.15	22337
886.275	22367
886.4	22215
886.525	22459
886.65	22341
886.775	22200
886.9	22462
887.025	22569
887.149	22268
887.274	22306
887.399	22101
887.523	22112
887.648	22086
887.773	22013
887.897	22265
888.021	22128
888.146	22185
888.27	22257
888.395	22112
888.519	22147
888.643	22101
888.767	22242
888.891	22002
889.015	21861
889.139	21888
889.263	21857
889.387	22082
889.511	22120
889.635	22105
889.759	21819
889.883	21880
890.006	21861
890.13	22021
890.254	21869
890.377	21876
890.501	21755
890.624	21705
890.748	21671
890.871	21545
890.995	21500
891.118	21431
891.241	21473
891.364	21606
891.488	21511
891.611	21564
891.734	21549
891.857	21511
891.98	21393
892.103	21488
892.226	21363
892.349	21420
892.471	21233
892.594	21313
892.717	21378
892.839	21378
892.962	21370
893.085	21557
893.207	21321
893.33	21249
893.452	21256
893.575	21336
893.697	21291
893.819	21591
893.941	21466
894.064	21485
894.186	21287
894.308	21329
894.43	21393
894.552	21606
894.674	21382
894.796	21192
894.918	21386
895.04	21264
895.161	21408
895.283	21355
895.405	21268
895.526	21214
895.648	21348
895.769	21462
895.891	21310
896.012	21382
896.134	21412
896.255	21363
896.376	21306
896.498	21279
896.619	21325
896.74	21367
896.861	21443
896.982	21637
897.103	21842
897.224	21572
897.345	21511
897.466	21572
897.587	21447
897.708	21705
897.828	21637
897.949	21443
898.07	21230
898.19	21443
898.311	21557
898.431	21549
898.552	21500
898.672	21652
898.792	21466
898.913	21576
899.033	21496
899.153	21268
899.273	21192
899.393	21272
899.513	21298
899.633	21321
899.753	21272
899.873	21146
899.993	21287
900.113	21165
900.232	21222
900.352	21256
900.472	21039
900.591	20937
900.711	21020
900.83	21009
900.95	21207
901.069	21062
901.189	20918
901.308	20587
901.427	20609
901.546	20514
901.665	20636
901.784	20571
901.904	20518
902.023	20301
902.141	20153
902.26	20126
902.379	20206
902.498	20157
902.617	20008
902.735	20122
902.854	20081
902.973	20024
903.091	19734
903.21	19761
903.328	19689
903.446	19586
903.565	19533
903.683	19529
903.801	19510
903.919	19521
904.038	19491
904.156	19320
904.274	19377
904.392	19312
904.51	19274
904.627	19324
904.745	19285
904.863	19301
904.981	19148
905.098	19038
905.216	18886
905.334	18981
905.451	18966
905.569	18924
905.686	19023
905.803	18894
905.921	18734
906.038	18852
906.155	18848
906.272	18570
906.389	18604
906.506	18506
906.623	18532
906.74	18498
906.857	18319
906.974	18342
907.091	18471
907.208	18582
907.324	18578
907.441	18407
907.557	18163
907.674	18304
907.79	18057
907.907	18095
908.023	18258
908.139	18205
908.256	18167
908.372	18102
908.488	18098
908.604	18030
908.72	17874
908.836	17969
908.952	17939
909.068	17935
909.184	18034
909.3	17752
909.415	17889
909.531	17824
909.647	17699
909.762	17539
909.878	17551
909.993	17638
910.108	17581
910.224	17592
910.339	17532
910.454	17433
910.57	17516
910.685	17311
910.8	17532
910.915	17551
911.03	17406
911.145	17212
911.259	17178
911.374	17227
911.489	17045
911.604	17102
911.718	16991
911.833	17033
911.947	16793
912.062	16850
912.176	16911
912.291	16889
912.405	16919
912.519	17113
912.633	17098
912.748	16949
912.862	16835
912.976	16805
913.09	16596
913.204	16599
913.318	16774
913.431	16759
913.545	16927
913.659	16858
913.772	16713
913.886	16580
914	16569
914.113	16531
914.226	16641
914.34	16508
914.453	16405
914.566	16653
914.68	16348
914.793	16356
914.906	16200
915.019	16059
915.132	15994
915.245	16093
915.358	16162
915.47	16147
915.583	16074
915.696	16131
915.809	16044
915.921	16284
916.034	16078
916.146	15979
916.259	15998
916.371	16128
916.483	16017
916.595	15884
916.708	15907
916.82	15876
916.932	15903
917.044	15949
917.156	15797
917.268	15751
917.38	15713
917.491	15724
917.603	15705
917.715	15739
917.826	15873
917.938	15641
918.049	15580
918.161	15644
918.272	15728
918.384	15739
918.495	15679
918.606	15488
918.717	15412
918.828	15622
918.939	15534
919.05	15340
919.161	15336
919.272	15207
919.383	15264
919.494	15477
919.604	15599
919.715	15378
919.826	15367
919.936	15363
920.047	15473
920.157	15389
920.267	15549
920.378	15466
920.488	15367
920.598	15549
920.708	15701
920.818	15530
920.928	15530
921.038	15618
921.148	15671
921.258	15363
921.368	15336
921.477	15135
921.587	15116
921.697	14910
921.806	15001
921.916	14876
922.025	14796
922.134	14716
922.244	14678
922.353	14845
922.462	14621
922.571	14583
922.68	14423
922.789	14275
922.898	14450
923.007	14298
923.116	14431
923.224	14317
923.333	14347
923.442	14313
923.55	14202
923.659	14202
923.767	14317
923.876	14123
923.984	14248
924.092	14054
924.201	14069
924.309	14065
924.417	14134
924.525	13959
924.633	13993
924.741	14834
924.849	13845
924.956	14016
925.064	13769
925.172	13689
925.279	13658
925.387	13746
925.494	13769
925.602	13864
925.709	13814
925.816	13674
925.924	13738
926.031	13780
926.138	13704
926.245	13746
926.352	13590
926.459	13700
926.566	13708
926.673	13510
926.779	13430
926.886	13369
926.993	13335
927.099	13301
927.206	13244
927.312	13209
927.419	13335
927.525	13301
927.631	13266
927.737	13183
927.843	13129
927.95	13023
928.056	13122
928.162	13122
928.267	13145
928.373	13597
928.479	13107
928.585	12806
928.69	13103
928.796	13118
928.901	12924
929.007	12795
929.112	12943
929.218	12909
929.323	12825
929.428	12882
929.533	12935
929.638	12779
929.743	12741
929.848	12795
929.953	12764
930.058	12623
930.163	12395
930.267	12464
930.372	12608
930.477	12574
930.581	12566
930.685	12509
930.79	12384
930.894	12460
930.998	12330
931.103	12456
931.207	12106
931.311	11984
931.415	11863
931.519	11802
931.623	11672
