Data from test_V78500241_125.txt Node
Date: Fri Mar 25 15:42:40 CST 2022
User: usil
Spectrometer: V785-0024
Trigger mode: 0
Integration Time (sec): 4.000000E-1
Scans to average: 1
Nonlinearity correction enabled: false
Boxcar width: 0
Storing dark spectrum: false
XAxis mode: Wavelengths
Number of Pixels in Spectrum: 1024
>>>>>Begin Spectral Data<<<<<
801.071	29885
801.214	29969
801.356	29646
801.499	29668
801.641	29611
801.783	29570
801.926	29573
802.068	29543
802.211	29429
802.353	29391
802.496	29193
802.638	29159
802.78	29242
802.923	29041
803.065	29193
803.208	28980
803.35	29242
803.492	29220
803.635	29254
803.777	29216
803.919	29280
804.061	29604
804.204	29356
804.346	29284
804.488	29315
804.63	29189
804.773	29147
804.915	29181
805.057	29375
805.199	29235
805.341	29200
805.483	29265
805.626	29516
805.768	29452
805.91	29516
806.052	29410
806.194	29360
806.336	29535
806.478	29516
806.62	29406
806.762	29551
806.904	29604
807.046	29851
807.188	29805
807.33	29843
807.472	29862
807.614	29680
807.756	29832
807.898	29775
808.04	29570
808.182	29634
808.324	29493
808.465	29577
808.607	29718
808.749	29847
808.891	30041
809.033	30060
809.174	30041
809.316	30064
809.458	30060
809.6	29786
809.741	30060
809.883	30057
810.025	30030
810.166	30194
810.308	30262
810.45	30114
810.591	30121
810.733	30053
810.875	29939
811.016	29760
811.158	29802
811.299	30110
811.441	29996
811.582	30087
811.724	29916
811.865	29935
812.007	29882
812.148	29824
812.29	29885
812.431	30091
812.573	30167
812.714	30292
812.855	30323
812.997	30418
813.138	30582
813.279	30395
813.421	30460
813.562	30407
813.703	30228
813.845	30140
813.986	29893
814.127	29703
814.268	29452
814.41	29661
814.551	29687
814.692	29528
814.833	29406
814.974	29417
815.115	29547
815.256	29368
815.397	29326
815.539	29429
815.68	29273
815.821	29094
815.962	29254
816.103	29197
816.244	29155
816.385	28987
816.526	29098
816.666	28759
816.807	28774
816.948	28729
817.089	28752
817.23	28523
817.371	28694
817.512	28744
817.653	28512
817.793	28531
817.934	28637
818.075	28596
818.216	28637
818.356	28557
818.497	28504
818.638	28257
818.778	28299
818.919	28280
819.06	28325
819.2	28535
819.341	28516
819.481	28519
819.622	28729
819.762	28866
819.903	28763
820.043	28763
820.184	28710
820.324	28596
820.465	28713
820.605	28774
820.746	28565
820.886	28329
821.026	28626
821.167	28656
821.307	28611
821.447	28531
821.588	28421
821.728	28284
821.868	28074
822.008	27994
822.149	27926
822.289	28013
822.429	27701
822.569	27618
822.709	27606
822.849	27507
822.99	27367
823.13	27401
823.27	27386
823.41	27176
823.55	27176
823.69	27370
823.83	27279
823.97	27245
824.11	26982
824.25	26937
824.389	27028
824.529	26982
824.669	26994
824.809	27093
824.949	27024
825.089	27089
825.228	27047
825.368	26796
825.508	26746
825.648	26823
825.787	26929
825.927	27036
826.067	26788
826.206	26864
826.346	26910
826.485	26880
826.625	26918
826.765	27024
826.904	26902
827.044	26457
827.183	26560
827.323	26343
827.462	26495
827.601	26461
827.741	26488
827.88	26549
828.02	26434
828.159	26533
828.298	26473
828.437	26522
828.577	26374
828.716	26530
828.855	26480
828.994	26096
829.134	26027
829.273	26183
829.412	26039
829.551	26001
829.69	26062
829.829	26103
829.968	26187
830.107	26183
830.246	26126
830.385	26058
830.524	25833
830.663	25845
830.802	25830
830.941	25772
831.08	25658
831.219	25655
831.357	25624
831.496	25830
831.635	25620
831.774	25674
831.913	25609
832.051	25426
832.19	25434
832.329	25457
832.467	25400
832.606	25274
832.744	25217
832.883	25164
833.022	25194
833.16	25114
833.299	25270
833.437	25183
833.576	25285
833.714	25259
833.852	25324
833.991	25335
834.129	25308
834.267	25438
834.406	25343
834.544	25335
834.682	25320
834.821	25171
834.959	25324
835.097	25244
835.235	25270
835.373	25118
835.511	25217
835.65	25103
835.788	25053
835.926	24913
836.064	24745
836.202	24894
836.34	25053
836.478	25145
836.615	25019
836.753	25091
836.891	25080
837.029	25034
837.167	25042
837.305	24958
837.443	24947
837.58	24901
837.718	25042
837.856	24913
837.993	24806
838.131	24859
838.269	24730
838.406	24578
838.544	24760
838.681	24505
838.819	24490
838.956	24380
839.094	24338
839.231	24445
839.369	24502
839.506	24658
839.643	24445
839.781	24197
839.918	24213
840.055	24247
840.193	24148
840.33	24205
840.467	24346
840.604	24224
840.742	24490
840.879	24011
841.016	24091
841.153	23984
841.29	24186
841.427	24030
841.564	24133
841.701	24072
841.838	23958
841.975	24125
842.112	24140
842.249	23969
842.385	23908
842.522	24064
842.659	23954
842.796	23783
842.933	23954
843.069	23668
843.206	23752
843.343	23817
843.479	23859
843.616	23794
843.752	23642
843.889	23646
844.025	23798
844.162	23630
844.298	23684
844.435	23531
844.571	23482
844.708	23634
844.844	23775
844.98	23695
845.117	23813
845.253	23547
845.389	23410
845.525	23455
845.661	23425
845.798	23315
845.934	23315
846.07	23227
846.206	23204
846.342	23330
846.478	23277
846.614	23132
846.75	22995
846.886	23033
847.022	23136
847.158	22980
847.294	23014
847.429	23022
847.565	22991
847.701	23254
847.837	22812
847.972	22698
848.108	22885
848.244	22755
848.379	22618
848.515	22474
848.65	22531
848.786	22554
848.921	22622
849.057	22637
849.192	22615
849.328	22656
849.463	22569
849.598	22557
849.734	22348
849.869	22440
850.004	22299
850.14	22363
850.275	22318
850.41	22177
850.545	22204
850.68	22166
850.815	22341
850.95	22223
851.085	22447
851.22	22318
851.355	22211
851.49	22185
851.625	22109
851.76	22188
851.895	22135
852.03	22124
852.165	22219
852.299	22192
852.434	22185
852.569	22352
852.703	22181
852.838	22333
852.973	22421
853.107	22428
853.242	22280
853.376	22044
853.511	21960
853.645	21979
853.78	22177
853.914	22147
854.048	22002
854.183	21991
854.317	22063
854.451	22166
854.585	21945
854.72	22010
854.854	22097
854.988	21922
855.122	22124
855.256	21945
855.39	22017
855.524	22166
855.658	22013
855.792	22025
855.926	22143
856.06	22223
856.194	22139
856.327	22002
856.461	21953
856.595	21918
856.729	22040
856.862	22120
856.996	21972
857.13	22101
857.263	22166
857.397	22074
857.53	21880
857.664	22036
857.797	22162
857.931	22070
858.064	21907
858.197	22040
858.331	21857
858.464	21869
858.597	21911
858.731	21960
858.864	21880
858.997	21934
859.13	22032
859.263	21972
859.396	22010
859.529	21987
859.662	21937
859.795	21884
859.928	21998
860.061	22158
860.194	22219
860.327	21930
860.46	22017
860.592	22006
860.725	22048
860.858	22109
860.99	21968
861.123	21838
861.256	21812
861.388	22036
861.521	22466
861.653	21770
861.786	21823
861.918	21842
862.05	21937
862.183	22036
862.315	21968
862.447	22040
862.58	21964
862.712	21793
862.844	21568
862.976	21846
863.108	21804
863.24	22078
863.372	21641
863.504	21614
863.636	21595
863.768	21523
863.9	21705
864.032	21523
864.164	21622
864.296	21580
864.428	21770
864.559	21675
864.691	21812
864.823	21405
864.954	21629
865.086	21572
865.217	21469
865.349	21450
865.48	21526
865.612	21336
865.743	21625
865.875	21603
866.006	21393
866.137	21595
866.269	21564
866.4	21454
866.531	21428
866.662	21325
866.793	21492
866.924	21370
867.055	21583
867.186	21469
867.317	21408
867.448	21325
867.579	21439
867.71	21416
867.841	21500
867.972	21481
868.103	21412
868.233	21481
868.364	21443
868.495	21515
868.625	21656
868.756	21751
868.886	21504
869.017	21671
869.147	21675
869.278	21846
869.408	21675
869.539	21671
869.669	21724
869.799	21679
869.929	21770
870.06	21838
870.19	21991
870.32	21987
870.45	22044
870.58	22059
870.71	22082
870.84	22211
870.97	22082
871.1	22074
871.23	22116
871.36	22314
871.489	22143
871.619	22211
871.749	22196
871.879	22402
872.008	22394
872.138	22363
872.267	22344
872.397	22154
872.526	22006
872.656	22055
872.785	22093
872.915	22200
873.044	22360
873.173	22215
873.303	22280
873.432	22360
873.561	22329
873.69	22253
873.819	22226
873.948	22230
874.077	22360
874.206	22303
874.335	22196
874.464	22356
874.593	22561
874.722	22577
874.851	22474
874.979	22630
875.108	22508
875.237	22546
875.365	22531
875.494	22352
875.623	22630
875.751	22622
875.88	22577
876.008	22577
876.136	22748
876.265	22957
876.393	22976
876.521	23041
876.65	22927
876.778	22881
876.906	22763
877.034	22889
877.162	22828
877.29	22839
877.418	22866
877.546	22854
877.674	22900
877.802	22778
877.93	22866
878.058	22843
878.185	22774
878.313	22831
878.441	22809
878.568	22816
878.696	22721
878.824	22919
878.951	22881
879.079	22923
879.206	23181
879.333	22938
879.461	22908
879.588	23048
879.715	23041
879.842	23124
879.97	22908
880.097	22653
880.224	22603
880.351	22755
880.478	22565
880.605	22630
880.732	22596
880.859	22881
880.986	22672
881.112	22812
881.239	22535
881.366	22344
881.493	22375
881.619	22169
881.746	22287
881.872	22173
881.999	22230
882.125	22299
882.252	22261
882.378	22291
882.505	22299
882.631	22139
882.757	21934
882.883	22074
883.01	21930
883.136	21991
883.262	21850
883.388	21751
883.514	22086
883.64	22036
883.766	22017
883.892	21766
884.018	21827
884.143	21857
884.269	21991
884.395	21717
884.52	21618
884.646	21583
884.772	21523
884.897	21564
885.023	21504
885.148	21603
885.274	21774
885.399	21583
885.524	21641
885.65	21622
885.775	21641
885.9	21561
886.025	21648
886.15	21614
886.275	21488
886.4	21485
886.525	21534
886.65	21561
886.775	21466
886.9	21625
887.025	21682
887.149	21622
887.274	21378
887.399	21298
887.523	21272
887.648	21275
887.773	21252
887.897	21351
888.021	21306
888.146	21279
888.27	21397
888.395	21397
888.519	21348
888.643	21355
888.767	21363
888.891	21233
889.015	21017
889.139	21070
889.263	21119
889.387	21123
889.511	21336
889.635	21161
889.759	21089
889.883	21058
890.006	21009
890.13	21161
890.254	20990
890.377	21017
890.501	20849
890.624	20758
890.748	20918
890.871	20617
890.995	20670
891.118	20651
891.241	20678
891.364	20617
891.488	20716
891.611	20594
891.734	20701
891.857	20674
891.98	20674
892.103	20705
892.226	20670
892.349	20579
892.471	20412
892.594	20537
892.717	20587
892.839	20431
892.962	20530
893.085	20678
893.207	20598
893.33	20503
893.452	20377
893.575	20476
893.697	20549
893.819	20678
893.941	20712
894.064	20800
894.186	20533
894.308	20389
894.43	20629
894.552	20689
894.674	20655
894.796	20393
894.918	20396
895.04	20488
895.161	20579
895.283	20499
895.405	20301
895.526	20568
895.648	20450
895.769	20594
895.891	20606
896.012	20640
896.134	20545
896.255	20617
896.376	20541
896.498	20606
896.619	20648
896.74	20594
896.861	20499
896.982	20933
897.103	20982
897.224	20861
897.345	20910
897.466	20804
897.587	20925
897.708	20880
897.828	20743
897.949	20712
898.07	20564
898.19	20746
898.311	20785
898.431	20826
898.552	20735
898.672	20686
898.792	20838
898.913	20587
899.033	20545
899.153	20522
899.273	20419
899.393	20446
899.513	20469
899.633	20339
899.753	20370
899.873	20358
899.993	20423
900.113	20278
900.232	20484
900.352	20294
900.472	20271
900.591	20180
900.711	20263
900.83	20107
900.95	20343
901.069	20278
901.189	20088
901.308	19989
901.427	19742
901.546	19894
901.665	19715
901.784	19807
901.904	19772
902.023	19571
902.141	19377
902.26	19331
902.379	19373
902.498	19190
902.617	19240
902.735	19335
902.854	19301
902.973	19232
903.091	19023
903.21	18943
903.328	18962
903.446	18810
903.565	18646
903.683	18665
903.801	18627
903.919	18840
904.038	18741
904.156	18494
904.274	18566
904.392	18494
904.51	18464
904.627	18544
904.745	18544
904.863	18509
904.981	18201
905.098	18121
905.216	18133
905.334	18273
905.451	18205
905.569	18125
905.686	18140
905.803	18201
905.921	17958
906.038	18026
906.155	17923
906.272	17783
906.389	17866
906.506	17745
906.623	17596
906.74	17729
906.857	17547
906.974	17661
907.091	17665
907.208	17748
907.324	17691
907.441	17532
907.557	17440
907.674	17402
907.79	17330
907.907	17269
908.023	17356
908.139	17406
908.256	17341
908.372	17189
908.488	17200
908.604	17014
908.72	17052
908.836	17048
908.952	16911
909.068	17086
909.184	17083
909.3	17010
909.415	17018
909.531	16873
909.647	16812
909.762	16767
909.878	16706
909.993	16797
910.108	16729
910.224	16729
910.339	16660
910.454	16455
910.57	16615
910.685	16462
910.8	16729
910.915	16679
911.03	16398
911.145	16371
911.259	16257
911.374	16287
911.489	16139
911.604	16059
911.718	16074
911.833	16071
911.947	15972
912.062	15888
912.176	16040
912.291	16166
912.405	16082
912.519	16291
912.633	16253
912.748	16112
912.862	15960
912.976	15842
913.09	15682
913.204	15804
913.318	15876
913.431	15960
913.545	15899
913.659	15899
913.772	15831
913.886	15698
914	15591
914.113	15762
914.226	15732
914.34	15663
914.453	15576
914.566	15766
914.68	15561
914.793	15595
914.906	15428
915.019	15279
915.132	15180
915.245	15378
915.358	15370
915.47	15230
915.583	15397
915.696	15279
915.809	15317
915.921	15416
916.034	15218
916.146	15188
916.259	15108
916.371	15252
916.483	15157
916.595	15146
916.708	15150
916.82	15131
916.932	15055
917.044	15013
917.156	14921
917.268	14979
917.38	14834
917.491	14853
917.603	14902
917.715	14933
917.826	15085
917.938	14902
918.049	14739
918.161	14834
918.272	14948
918.384	14967
918.495	14792
918.606	14686
918.717	14552
918.828	14651
918.939	14640
919.05	14560
919.161	14545
919.272	14408
919.383	14590
919.494	14697
919.604	14781
919.715	14610
919.826	14518
919.936	14575
920.047	14651
920.157	14678
920.267	14811
920.378	14640
920.488	14549
920.598	14602
920.708	14826
920.818	14697
920.928	14632
921.038	14861
921.148	14792
921.258	14507
921.368	14431
921.477	14233
921.587	14400
921.697	14168
921.806	14237
921.916	14115
922.025	13932
922.134	13925
922.244	13837
922.353	13997
922.462	13826
922.571	13753
922.68	13685
922.789	13575
922.898	13521
923.007	13563
923.116	13613
923.224	13544
923.333	13529
923.442	13403
923.55	13377
923.659	13407
923.767	13483
923.876	13316
923.984	13324
924.092	13228
924.201	13301
924.309	13255
924.417	13289
924.525	13206
924.633	13198
924.741	14084
924.849	13122
924.956	13118
925.064	13019
925.172	12996
925.279	12943
925.387	13057
925.494	12928
925.602	13137
925.709	13000
925.816	12989
925.924	12909
926.031	13061
926.138	12894
926.245	12943
926.352	12814
926.459	12913
926.566	12993
926.673	12817
926.779	12707
926.886	12730
926.993	12551
927.099	12502
927.206	12410
927.312	12494
927.419	12555
927.525	12627
927.631	12566
927.737	12399
927.843	12365
927.95	12243
928.056	12338
928.162	12330
928.267	12437
928.373	12947
928.479	12403
928.585	12133
928.69	12270
928.796	12311
928.901	12239
929.007	12034
929.112	12178
929.218	12163
929.323	12144
929.428	12068
929.533	12224
929.638	11984
929.743	11973
929.848	12076
929.953	12060
930.058	11836
930.163	11707
930.267	11752
930.372	11908
930.477	11680
930.581	11965
930.685	11756
930.79	11676
930.894	11668
930.998	11592
931.103	11649
931.207	11372
931.311	11235
931.415	11178
931.519	11025
931.623	10957
