Data from test_V78500241_141.txt Node
Date: Fri Mar 25 15:42:46 CST 2022
User: usil
Spectrometer: V785-0024
Trigger mode: 0
Integration Time (sec): 4.000000E-1
Scans to average: 1
Nonlinearity correction enabled: false
Boxcar width: 0
Storing dark spectrum: false
XAxis mode: Wavelengths
Number of Pixels in Spectrum: 1024
>>>>>Begin Spectral Data<<<<<
801.071	29809
801.214	29783
801.356	29417
801.499	29341
801.641	29258
801.783	29235
801.926	29395
802.068	29246
802.211	29299
802.353	29124
802.496	28915
802.638	28873
802.78	28873
802.923	28816
803.065	28679
803.208	28740
803.35	28946
803.492	29128
803.635	29204
803.777	28938
803.919	29033
804.061	29261
804.204	29083
804.346	28984
804.488	28953
804.63	28911
804.773	28858
804.915	28984
805.057	28987
805.199	29048
805.341	29067
805.483	29189
805.626	29022
805.768	28968
805.91	29159
806.052	29208
806.194	29094
806.336	29231
806.478	29200
806.62	28930
806.762	29311
806.904	29334
807.046	29630
807.188	29444
807.33	29505
807.472	29627
807.614	29330
807.756	29478
807.898	29288
808.04	29242
808.182	29261
808.324	29280
808.465	29444
808.607	29463
808.749	29562
808.891	29691
809.033	29942
809.174	29703
809.316	29608
809.458	29722
809.6	29592
809.741	29707
809.883	29832
810.025	29946
810.166	29813
810.308	29897
810.45	29779
810.591	29786
810.733	29619
810.875	29668
811.016	29417
811.158	29535
811.299	29741
811.441	29893
811.582	29630
811.724	29691
811.865	29535
812.007	29501
812.148	29486
812.29	29577
812.431	29783
812.573	29908
812.714	29916
812.855	29950
812.997	30114
813.138	30357
813.279	30220
813.421	30018
813.562	30114
813.703	29939
813.845	29726
813.986	29440
814.127	29299
814.268	29204
814.41	29239
814.551	29136
814.692	29402
814.833	29170
814.974	29200
815.115	29143
815.256	29022
815.397	28957
815.539	28968
815.68	29033
815.821	28915
815.962	28987
816.103	28923
816.244	28786
816.385	28729
816.526	28637
816.666	28485
816.807	28314
816.948	28375
817.089	28478
817.23	28367
817.371	28276
817.512	28333
817.653	28367
817.793	28394
817.934	28367
818.075	28223
818.216	28207
818.356	28284
818.497	28116
818.638	28025
818.778	28109
818.919	28051
819.06	28166
819.2	28166
819.341	28291
819.481	28112
819.622	28363
819.762	28497
819.903	28424
820.043	28291
820.184	28382
820.324	28314
820.465	28424
820.605	28428
820.746	28333
820.886	28097
821.026	28303
821.167	28291
821.307	28382
821.447	28219
821.588	28109
821.728	27937
821.868	27781
822.008	27705
822.149	27580
822.289	27648
822.429	27431
822.569	27389
822.709	27268
822.849	27138
822.99	27218
823.13	27112
823.27	27085
823.41	27070
823.55	26804
823.69	26876
823.83	26925
823.97	26686
824.11	26705
824.25	26644
824.389	26663
824.529	26807
824.669	26750
824.809	26910
824.949	26613
825.089	26785
825.228	26598
825.368	26408
825.508	26427
825.648	26594
825.787	26488
825.927	26594
826.067	26389
826.206	26453
826.346	26552
826.485	26583
826.625	26450
826.765	26674
826.904	26404
827.044	26244
827.183	26138
827.323	26130
827.462	26210
827.601	26100
827.741	26176
827.88	26142
828.02	26069
828.159	26069
828.298	26069
828.437	26218
828.577	26031
828.716	26164
828.855	26046
828.994	25864
829.134	25871
829.273	25852
829.412	25837
829.551	25822
829.69	25757
829.829	25974
829.968	25750
830.107	25864
830.246	25719
830.385	25837
830.524	25666
830.663	25476
830.802	25369
830.941	25369
831.08	25320
831.219	25320
831.357	25441
831.496	25483
831.635	25335
831.774	25251
831.913	25061
832.051	25145
832.19	25042
832.329	25046
832.467	25046
832.606	24916
832.744	24894
832.883	25027
833.022	24901
833.16	24985
833.299	24939
833.437	25000
833.576	24966
833.714	24943
833.852	24939
833.991	24905
834.129	25194
834.267	24894
834.406	24958
834.544	24962
834.682	25069
834.821	24821
834.959	25118
835.097	24913
835.235	25034
835.373	24768
835.511	24863
835.65	24681
835.788	24932
835.926	24589
836.064	24490
836.202	24494
836.34	24779
836.478	24802
836.615	24616
836.753	24707
836.891	24734
837.029	24757
837.167	24700
837.305	24665
837.443	24677
837.58	24597
837.718	24593
837.856	24631
837.993	24517
838.131	24563
838.269	24315
838.406	24471
838.544	24376
838.681	24213
838.819	24213
838.956	24079
839.094	24072
839.231	24106
839.369	24190
839.506	24304
839.643	24228
839.781	23980
839.918	23977
840.055	23939
840.193	23958
840.33	23897
840.467	23737
840.604	23912
840.742	24178
840.879	23707
841.016	23859
841.153	23710
841.29	23836
841.427	23775
841.564	23931
841.701	23805
841.838	23695
841.975	23699
842.112	23783
842.249	23695
842.385	23444
842.522	23859
842.659	23558
842.796	23425
842.933	23402
843.069	23421
843.206	23471
843.343	23627
843.479	23570
843.616	23414
843.752	23220
843.889	23303
844.025	23410
844.162	23227
844.298	23372
844.435	23242
844.571	23284
844.708	23250
844.844	23417
844.98	23360
845.117	23296
845.253	23174
845.389	23098
845.525	23140
845.661	23109
845.798	22881
845.934	22987
846.07	22877
846.206	22968
846.342	23060
846.478	22877
846.614	22752
846.75	22615
846.886	22649
847.022	22668
847.158	22641
847.294	22653
847.429	22573
847.565	22592
847.701	22778
847.837	22497
847.972	22310
848.108	22413
848.244	22474
848.379	22219
848.515	22223
848.65	22265
848.786	22257
848.921	22261
849.057	22344
849.192	22325
849.328	22230
849.463	22150
849.598	22124
849.734	22082
849.869	22040
850.004	22029
850.14	22002
850.275	21857
850.41	21903
850.545	21766
850.68	22063
850.815	21918
850.95	21994
851.085	22036
851.22	22017
851.355	21934
851.49	21869
851.625	21918
851.76	21903
851.895	21850
852.03	21838
852.165	21915
852.299	21865
852.434	21960
852.569	21819
852.703	21915
852.838	22048
852.973	22013
853.107	22067
853.242	21880
853.376	21751
853.511	21603
853.645	21694
853.78	21854
853.914	21785
854.048	21629
854.183	21675
854.317	21804
854.451	21869
854.585	21694
854.72	21622
854.854	21705
854.988	21583
855.122	21728
855.256	21580
855.39	21717
855.524	21644
855.658	21762
855.792	21728
855.926	21675
856.06	21797
856.194	21717
856.327	21705
856.461	21690
856.595	21644
856.729	21648
856.862	21720
856.996	21846
857.13	21690
857.263	21789
857.397	21682
857.53	21663
857.664	21660
857.797	21812
857.931	21743
858.064	21694
858.197	21743
858.331	21587
858.464	21679
858.597	21599
858.731	21641
858.864	21633
858.997	21618
859.13	21637
859.263	21641
859.396	21728
859.529	21641
859.662	21618
859.795	21553
859.928	21572
860.061	21823
860.194	21724
860.327	21663
860.46	21637
860.592	21690
860.725	21819
860.858	21717
860.99	21652
861.123	21485
861.256	21625
861.388	21606
861.521	22238
861.653	21618
861.786	21351
861.918	21545
862.05	21564
862.183	21629
862.315	21743
862.447	21709
862.58	21701
862.712	21393
862.844	21412
862.976	21317
863.108	21382
863.24	21751
863.372	21306
863.504	21370
863.636	21306
863.768	21332
863.9	21389
864.032	21173
864.164	21268
864.296	21428
864.428	21340
864.559	21344
864.691	21344
864.823	21165
864.954	21336
865.086	21275
865.217	21310
865.349	21165
865.48	21222
865.612	21169
865.743	21310
865.875	21207
866.006	21146
866.137	21207
866.269	21184
866.4	21135
866.531	21154
866.662	21131
866.793	21131
866.924	21108
867.055	21184
867.186	21192
867.317	21047
867.448	21005
867.579	21131
867.71	21142
867.841	21005
867.972	21173
868.103	21020
868.233	21188
868.364	21043
868.495	21218
868.625	21260
868.756	21458
868.886	21268
869.017	21336
869.147	21412
869.278	21462
869.408	21466
869.539	21393
869.669	21393
869.799	21226
869.929	21519
870.06	21439
870.19	21629
870.32	21648
870.45	21846
870.58	21720
870.71	21785
870.84	21778
870.97	21724
871.1	21732
871.23	21998
871.36	21983
871.489	21808
871.619	21793
871.749	21797
871.879	22010
872.008	22177
872.138	22044
872.267	21953
872.397	21778
872.526	21804
872.656	21884
872.785	21736
872.915	21994
873.044	22006
873.173	21873
873.303	22032
873.432	22051
873.561	22048
873.69	21983
873.819	21873
873.948	22074
874.077	21994
874.206	21766
874.335	21915
874.464	22128
874.593	22230
874.722	22169
874.851	22242
874.979	22299
875.108	22196
875.237	22185
875.365	22040
875.494	22162
875.623	22280
875.751	22238
875.88	22253
876.008	22276
876.136	22356
876.265	22535
876.393	22687
876.521	22710
876.65	22569
876.778	22637
876.906	22580
877.034	22546
877.162	22622
877.29	22462
877.418	22531
877.546	22584
877.674	22550
877.802	22569
877.93	22554
878.058	22462
878.185	22356
878.313	22596
878.441	22519
878.568	22329
878.696	22489
878.824	22523
878.951	22565
879.079	22710
879.206	22862
879.333	22740
879.461	22599
879.588	22611
879.715	22778
879.842	22881
879.97	22683
880.097	22318
880.224	22333
880.351	22375
880.478	22455
880.605	22386
880.732	22363
880.859	22618
880.986	22318
881.112	22428
881.239	22287
881.366	22135
881.493	21922
881.619	22044
881.746	21987
881.872	21956
881.999	21838
882.125	21941
882.252	21983
882.378	21998
882.505	22029
882.631	21827
882.757	21732
882.883	21823
883.01	21762
883.136	21618
883.262	21599
883.388	21420
883.514	21823
883.64	21762
883.766	21618
883.892	21428
884.018	21416
884.143	21660
884.269	21728
884.395	21424
884.52	21173
884.646	21329
884.772	21218
884.897	21302
885.023	21294
885.148	21450
885.274	21466
885.399	21466
885.524	21344
885.65	21298
885.775	21386
885.9	21272
886.025	21340
886.15	21359
886.275	21192
886.4	21218
886.525	21131
886.65	21199
886.775	21199
886.9	21367
887.025	21397
887.149	21325
887.274	21104
887.399	20960
887.523	20956
887.648	21116
887.773	20948
887.897	21055
888.021	21051
888.146	20944
888.27	21252
888.395	21272
888.519	21077
888.643	20952
888.767	21157
888.891	20899
889.015	20899
889.139	20857
889.263	20891
889.387	20921
889.511	21047
889.635	20933
889.759	20754
889.883	20777
890.006	20876
890.13	20868
890.254	20693
890.377	20682
890.501	20507
890.624	20545
890.748	20640
890.871	20442
890.995	20393
891.118	20320
891.241	20450
891.364	20355
891.488	20488
891.611	20396
891.734	20396
891.857	20374
891.98	20324
892.103	20370
892.226	20229
892.349	20374
892.471	20172
892.594	20237
892.717	20317
892.839	20305
892.962	20389
893.085	20290
893.207	20317
893.33	20237
893.452	20122
893.575	20294
893.697	20271
893.819	20396
893.941	20495
894.064	20313
894.186	20145
894.308	20191
894.43	20400
894.552	20381
894.674	20385
894.796	20046
894.918	20138
895.04	20278
895.161	20400
895.283	20339
895.405	20317
895.526	20347
895.648	20267
895.769	20275
895.891	20286
896.012	20358
896.134	20320
896.255	20275
896.376	20366
896.498	20271
896.619	20355
896.74	20278
896.861	20400
896.982	20583
897.103	20765
897.224	20590
897.345	20530
897.466	20454
897.587	20507
897.708	20636
897.828	20617
897.949	20533
898.07	20309
898.19	20465
898.311	20606
898.431	20476
898.552	20526
898.672	20511
898.792	20507
898.913	20473
899.033	20317
899.153	20206
899.273	20039
899.393	20271
899.513	20256
899.633	20096
899.753	20199
899.873	20084
899.993	20259
900.113	20084
900.232	20237
900.352	20024
900.472	19986
900.591	19902
900.711	20012
900.83	19856
900.95	20130
901.069	20240
901.189	19898
901.308	19559
901.427	19601
901.546	19613
901.665	19563
901.784	19525
901.904	19373
902.023	19339
902.141	19141
902.26	19152
902.379	19194
902.498	19065
902.617	19023
902.735	19023
902.854	19053
902.973	18852
903.091	18741
903.21	18696
903.328	18741
903.446	18597
903.565	18464
903.683	18422
903.801	18403
903.919	18528
904.038	18452
904.156	18216
904.274	18369
904.392	18281
904.51	18323
904.627	18235
904.745	18342
904.863	18300
904.981	18064
905.098	18003
905.216	17980
905.334	18007
905.451	17946
905.569	17935
905.686	17992
905.803	17828
905.921	17741
906.038	17863
906.155	17733
906.272	17566
906.389	17604
906.506	17444
906.623	17455
906.74	17501
906.857	17360
906.974	17429
907.091	17505
907.208	17528
907.324	17414
907.441	17318
907.557	17185
907.674	17178
907.79	17056
907.907	17056
908.023	17208
908.139	17151
908.256	16965
908.372	17064
908.488	16869
908.604	16793
908.72	16828
908.836	16778
908.952	16793
909.068	16850
909.184	16889
909.3	16710
909.415	16839
909.531	16733
909.647	16615
909.762	16535
909.878	16512
909.993	16451
910.108	16455
910.224	16360
910.339	16447
910.454	16367
910.57	16333
910.685	16352
910.8	16493
910.915	16402
911.03	16238
911.145	16147
911.259	15953
911.374	16013
911.489	16021
911.604	15888
911.718	15797
911.833	15838
911.947	15785
912.062	15728
912.176	15857
912.291	15857
912.405	15926
912.519	16044
912.633	15983
912.748	15842
912.862	15682
912.976	15648
913.09	15549
913.204	15667
913.318	15545
913.431	15747
913.545	15610
913.659	15705
913.772	15526
913.886	15405
914	15420
914.113	15408
914.226	15515
914.34	15557
914.453	15294
914.566	15534
914.68	15355
914.793	15306
914.906	15081
915.019	15058
915.132	15005
915.245	15024
915.358	15062
915.47	15009
915.583	14982
915.696	15081
915.809	15043
915.921	15116
916.034	14994
916.146	14906
916.259	14876
916.371	15001
916.483	14921
916.595	14819
916.708	14823
916.82	14967
916.932	14785
917.044	14838
917.156	14792
917.268	14678
917.38	14606
917.491	14689
917.603	14708
917.715	14705
917.826	14769
917.938	14560
918.049	14549
918.161	14636
918.272	14674
918.384	14777
918.495	14659
918.606	14450
918.717	14381
918.828	14400
918.939	14423
919.05	14412
919.161	14385
919.272	14191
919.383	14206
919.494	14484
919.604	14655
919.715	14476
919.826	14320
919.936	14309
920.047	14465
920.157	14290
920.267	14594
920.378	14256
920.488	14286
920.598	14583
920.708	14613
920.818	14568
920.928	14465
921.038	14651
921.148	14777
921.258	14305
921.368	14134
921.477	14054
921.587	14103
921.697	14005
921.806	14012
921.916	13970
922.025	13818
922.134	13693
922.244	13636
922.353	13746
922.462	13636
922.571	13518
922.68	13403
922.789	13316
922.898	13266
923.007	13259
923.116	13392
923.224	13346
923.333	13293
923.442	13232
923.55	13217
923.659	13187
923.767	13259
923.876	13187
923.984	13171
924.092	13122
924.201	13164
924.309	13110
924.417	13126
924.525	12985
924.633	13091
924.741	13871
924.849	12810
924.956	12939
925.064	12802
925.172	12688
925.279	12688
925.387	12852
925.494	12810
925.602	12905
925.709	12844
925.816	12738
925.924	12730
926.031	12840
926.138	12779
926.245	12757
926.352	12654
926.459	12768
926.566	12741
926.673	12722
926.779	12544
926.886	12536
926.993	12426
927.099	12296
927.206	12311
927.312	12235
927.419	12365
927.525	12338
927.631	12380
927.737	12254
927.843	12186
927.95	12106
928.056	12194
928.162	12182
928.267	12159
928.373	12928
928.479	12251
928.585	11931
928.69	12148
928.796	12159
928.901	12049
929.007	11942
929.112	11984
929.218	11961
929.323	11889
929.428	11904
929.533	11996
929.638	11851
929.743	11923
929.848	11931
929.953	11794
930.058	11752
930.163	11589
930.267	11558
930.372	11741
930.477	11570
930.581	11805
930.685	11630
930.79	11471
930.894	11486
930.998	11387
931.103	11524
931.207	11109
931.311	11113
931.415	10957
931.519	10733
931.623	10816
