Data from test_V78500241_1714.txt Node
Date: Fri Mar 25 15:53:40 CST 2022
User: usil
Spectrometer: V785-0024
Trigger mode: 0
Integration Time (sec): 4.000000E-1
Scans to average: 1
Nonlinearity correction enabled: false
Boxcar width: 0
Storing dark spectrum: false
XAxis mode: Wavelengths
Number of Pixels in Spectrum: 1024
>>>>>Begin Spectral Data<<<<<
801.071	28204
801.214	28139
801.356	28048
801.499	27907
801.641	27937
801.783	27850
801.926	27876
802.068	27934
802.211	27823
802.353	27774
802.496	27717
802.638	27515
802.78	27580
802.923	27386
803.065	27351
803.208	27488
803.35	27435
803.492	27538
803.635	27743
803.777	27663
803.919	27789
804.061	28025
804.204	27926
804.346	27709
804.488	27774
804.63	27785
804.773	27812
804.915	27812
805.057	27800
805.199	27530
805.341	27827
805.483	27975
805.626	28006
805.768	27812
805.91	27968
806.052	27949
806.194	27819
806.336	27930
806.478	28036
806.62	27949
806.762	28029
806.904	28032
807.046	28379
807.188	28329
807.33	28382
807.472	28413
807.614	28440
807.756	28443
807.898	28363
808.04	28124
808.182	28086
808.324	28303
808.465	28268
808.607	28451
808.749	28523
808.891	28451
809.033	28683
809.174	28626
809.316	28546
809.458	28352
809.6	28523
809.741	28752
809.883	28588
810.025	28930
810.166	28850
810.308	28774
810.45	28733
810.591	28679
810.733	28615
810.875	28592
811.016	28401
811.158	28538
811.299	28599
811.441	28710
811.582	28782
811.724	28611
811.865	28569
812.007	28607
812.148	28584
812.29	28645
812.431	28892
812.573	28869
812.714	29094
812.855	28942
812.997	29299
813.138	29379
813.279	29216
813.421	29018
813.562	29056
813.703	28885
813.845	28854
813.986	28649
814.127	28360
814.268	28295
814.41	28303
814.551	28341
814.692	28379
814.833	28306
814.974	28188
815.115	28398
815.256	28188
815.397	28185
815.539	28299
815.68	28025
815.821	27907
815.962	28032
816.103	28090
816.244	27945
816.385	27781
816.526	28006
816.666	27656
816.807	27557
816.948	27595
817.089	27713
817.23	27595
817.371	27682
817.512	27378
817.653	27648
817.793	27591
817.934	27625
818.075	27644
818.216	27679
818.356	27485
818.497	27492
818.638	27283
818.778	27325
818.919	27317
819.06	27336
819.2	27447
819.341	27595
819.481	27667
819.622	27641
819.762	27930
819.903	27797
820.043	27747
820.184	27797
820.324	27755
820.465	27732
820.605	27778
820.746	27694
820.886	27500
821.026	27728
821.167	27759
821.307	27587
821.447	27778
821.588	27606
821.728	27279
821.868	27195
822.008	27081
822.149	26925
822.289	27009
822.429	26750
822.569	26724
822.709	26731
822.849	26609
822.99	26541
823.13	26492
823.27	26514
823.41	26374
823.55	26305
823.69	26488
823.83	26355
823.97	26278
824.11	26218
824.25	26149
824.389	26256
824.529	26396
824.669	26278
824.809	26320
824.949	26240
825.089	26366
825.228	26336
825.368	26043
825.508	26100
825.648	26134
825.787	26111
825.927	25944
826.067	25997
826.206	26016
826.346	26046
826.485	26100
826.625	25997
826.765	26195
826.904	26183
827.044	25864
827.183	26016
827.323	25795
827.462	25845
827.601	25860
827.741	25841
827.88	25913
828.02	25742
828.159	25746
828.298	25772
828.437	25830
828.577	25837
828.716	25970
828.855	25609
828.994	25487
829.134	25552
829.273	25552
829.412	25426
829.551	25335
829.69	25499
829.829	25537
829.968	25544
830.107	25537
830.246	25396
830.385	25487
830.524	25464
830.663	25278
830.802	25126
830.941	25088
831.08	25080
831.219	25152
831.357	25259
831.496	25358
831.635	25080
831.774	25027
831.913	25023
832.051	24913
832.19	24848
832.329	24966
832.467	24913
832.606	24688
832.744	24848
832.883	24722
833.022	24684
833.16	24741
833.299	24837
833.437	24684
833.576	24844
833.714	24894
833.852	24787
833.991	24810
834.129	24745
834.267	24928
834.406	24856
834.544	24821
834.682	24730
834.821	24840
834.959	24932
835.097	24650
835.235	24882
835.373	24806
835.511	24745
835.65	24745
835.788	24696
835.926	24741
836.064	24445
836.202	24513
836.34	24749
836.478	24692
836.615	24726
836.753	24582
836.891	24681
837.029	24726
837.167	24646
837.305	24604
837.443	24490
837.58	24521
837.718	24589
837.856	24452
837.993	24304
838.131	24464
838.269	24426
838.406	24376
838.544	24258
838.681	24125
838.819	24072
838.956	23889
839.094	23870
839.231	24057
839.369	24144
839.506	24323
839.643	24152
839.781	23927
839.918	23897
840.055	24034
840.193	23863
840.33	23992
840.467	24018
840.604	24076
840.742	24129
840.879	23687
841.016	23794
841.153	23661
841.29	23946
841.427	23760
841.564	23847
841.701	23912
841.838	23805
841.975	23756
842.112	23809
842.249	23691
842.385	23672
842.522	23726
842.659	23691
842.796	23657
842.933	23562
843.069	23512
843.206	23653
843.343	23646
843.479	23577
843.616	23668
843.752	23379
843.889	23406
844.025	23520
844.162	23406
844.298	23448
844.435	23452
844.571	23360
844.708	23459
844.844	23497
844.98	23490
845.117	23486
845.253	23258
845.389	23197
845.525	23288
845.661	23246
845.798	23121
845.934	23124
846.07	23075
846.206	23181
846.342	23235
846.478	23128
846.614	22824
846.75	22809
846.886	22778
847.022	22919
847.158	22793
847.294	22866
847.429	22953
847.565	22797
847.701	23147
847.837	22603
847.972	22637
848.108	22668
848.244	22694
848.379	22523
848.515	22249
848.65	22379
848.786	22363
848.921	22382
849.057	22535
849.192	22584
849.328	22333
849.463	22337
849.598	22348
849.734	22295
849.869	22253
850.004	22109
850.14	22375
850.275	22242
850.41	22051
850.545	22181
850.68	22181
850.815	22177
850.95	22181
851.085	22405
851.22	22310
851.355	22310
851.49	22097
851.625	22169
851.76	22166
851.895	22051
852.03	22055
852.165	22211
852.299	22109
852.434	22333
852.569	22272
852.703	22101
852.838	22280
852.973	22158
853.107	22169
853.242	22135
853.376	21994
853.511	21979
853.645	22112
853.78	22135
853.914	22017
854.048	22055
854.183	21949
854.317	22120
854.451	22196
854.585	22013
854.72	22017
854.854	21991
854.988	22029
855.122	21998
855.256	21888
855.39	22044
855.524	22063
855.658	22044
855.792	22070
855.926	21964
856.06	22124
856.194	22124
856.327	21979
856.461	21926
856.595	21994
856.729	21968
856.862	22226
856.996	22048
857.13	22021
857.263	22128
857.397	22093
857.53	22048
857.664	22082
857.797	22230
857.931	22105
858.064	22055
858.197	22086
858.331	22070
858.464	21937
858.597	21922
858.731	21987
858.864	22017
858.997	21968
859.13	21953
859.263	21975
859.396	22002
859.529	21956
859.662	21991
859.795	21857
859.928	22032
860.061	22177
860.194	22211
860.327	22067
860.46	21991
860.592	22086
860.725	22139
860.858	22139
860.99	21964
861.123	21968
861.256	22059
861.388	22067
861.521	22675
861.653	21876
861.786	21747
861.918	21819
862.05	21846
862.183	22006
862.315	21941
862.447	22044
862.58	21876
862.712	21854
862.844	21545
862.976	21816
863.108	21873
863.24	22124
863.372	21625
863.504	21812
863.636	21686
863.768	21857
863.9	21736
864.032	21698
864.164	21644
864.296	21781
864.428	21831
864.559	21835
864.691	21743
864.823	21720
864.954	21751
865.086	21698
865.217	21663
865.349	21644
865.48	21637
865.612	21663
865.743	21800
865.875	21717
866.006	21694
866.137	21675
866.269	21610
866.4	21496
866.531	21599
866.662	21561
866.793	21625
866.924	21488
867.055	21603
867.186	21603
867.317	21599
867.448	21454
867.579	21538
867.71	21519
867.841	21572
867.972	21431
868.103	21507
868.233	21591
868.364	21660
868.495	21682
868.625	21701
868.756	21873
868.886	21667
869.017	21857
869.147	21983
869.278	21922
869.408	21861
869.539	21831
869.669	21899
869.799	21922
869.929	21930
870.06	21926
870.19	22131
870.32	22139
870.45	22128
870.58	22276
870.71	22230
870.84	22314
870.97	22124
871.1	22116
871.23	22303
871.36	22352
871.489	22284
871.619	22459
871.749	22394
871.879	22443
872.008	22466
872.138	22481
872.267	22481
872.397	22291
872.526	22196
872.656	22246
872.785	22204
872.915	22451
873.044	22542
873.173	22462
873.303	22462
873.432	22516
873.561	22615
873.69	22424
873.819	22371
873.948	22363
874.077	22481
874.206	22348
874.335	22329
874.464	22485
874.593	22725
874.722	22672
874.851	22672
874.979	22660
875.108	22755
875.237	22577
875.365	22478
875.494	22668
875.623	22691
875.751	22596
875.88	22592
876.008	22797
876.136	22839
876.265	23010
876.393	23025
876.521	23178
876.65	23140
876.778	23136
876.906	22881
877.034	22946
877.162	23079
877.29	23025
877.418	22995
877.546	22976
877.674	23029
877.802	22984
877.93	22911
878.058	22790
878.185	22927
878.313	22896
878.441	22911
878.568	22972
878.696	22854
878.824	23056
878.951	23003
879.079	23189
879.206	23303
879.333	23083
879.461	23014
879.588	23193
879.715	23117
879.842	23417
879.97	23064
880.097	22744
880.224	22771
880.351	22771
880.478	22816
880.605	22816
880.732	22869
880.859	22927
880.986	22687
881.112	22774
881.239	22752
881.366	22592
881.493	22527
881.619	22516
881.746	22344
881.872	22367
881.999	22417
882.125	22257
882.252	22421
882.378	22379
882.505	22565
882.631	22242
882.757	22067
882.883	22090
883.01	22154
883.136	22010
883.262	22036
883.388	21949
883.514	21937
883.64	22086
883.766	21998
883.892	21793
884.018	21964
884.143	21968
884.269	22044
884.395	21724
884.52	21739
884.646	21747
884.772	21622
884.897	21561
885.023	21656
885.148	21679
885.274	21838
885.399	21865
885.524	21648
885.65	21614
885.775	21842
885.9	21641
886.025	21819
886.15	21686
886.275	21713
886.4	21576
886.525	21671
886.65	21580
886.775	21580
886.9	21781
887.025	21903
887.149	21618
887.274	21500
887.399	21462
887.523	21462
887.648	21416
887.773	21363
887.897	21428
888.021	21485
888.146	21443
888.27	21523
888.395	21629
888.519	21511
888.643	21447
888.767	21523
888.891	21230
889.015	21336
889.139	21397
889.263	21199
889.387	21245
889.511	21386
889.635	21393
889.759	21287
889.883	21192
890.006	21176
890.13	21294
890.254	21104
890.377	21146
890.501	20937
890.624	20899
890.748	21062
890.871	20891
890.995	20800
891.118	20689
891.241	20823
891.364	20754
891.488	20872
891.611	20842
891.734	20796
891.857	20906
891.98	20910
892.103	20921
892.226	20864
892.349	20636
892.471	20526
892.594	20716
892.717	20659
892.839	20731
892.962	20667
893.085	20739
893.207	20720
893.33	20625
893.452	20568
893.575	20701
893.697	20640
893.819	20804
893.941	20876
894.064	20826
894.186	20617
894.308	20583
894.43	20804
894.552	20746
894.674	20708
894.796	20705
894.918	20655
895.04	20609
895.161	20826
895.283	20754
895.405	20640
895.526	20689
895.648	20640
895.769	20750
895.891	20667
896.012	20811
896.134	20735
896.255	20625
896.376	20834
896.498	20655
896.619	20667
896.74	20590
896.861	20686
896.982	20998
897.103	21077
897.224	21017
897.345	20914
897.466	20918
897.587	20998
897.708	21013
897.828	20891
897.949	20826
898.07	20765
898.19	20746
898.311	20948
898.431	20777
898.552	20906
898.672	21005
898.792	20921
898.913	20895
899.033	20777
899.153	20682
899.273	20678
899.393	20781
899.513	20689
899.633	20568
899.753	20765
899.873	20427
899.993	20781
900.113	20556
900.232	20632
900.352	20526
900.472	20419
900.591	20374
900.711	20465
900.83	20404
900.95	20530
901.069	20423
901.189	20206
901.308	20024
901.427	19894
901.546	19986
901.665	19906
901.784	20088
901.904	19841
902.023	19712
902.141	19609
902.26	19476
902.379	19525
902.498	19544
902.617	19499
902.735	19483
902.854	19419
902.973	19422
903.091	19137
903.21	19145
903.328	19110
903.446	19019
903.565	19069
903.683	19008
903.801	18783
903.919	18928
904.038	18924
904.156	18760
904.274	18810
904.392	18669
904.51	18601
904.627	18730
904.745	18661
904.863	18700
904.981	18437
905.098	18429
905.216	18399
905.334	18361
905.451	18452
905.569	18357
905.686	18445
905.803	18483
905.921	18171
906.038	18262
906.155	18300
906.272	18136
906.389	18087
906.506	18011
906.623	17927
906.74	17973
906.857	17722
906.974	17775
907.091	17961
907.208	18076
907.324	17988
907.441	17794
907.557	17638
907.674	17543
907.79	17539
907.907	17623
908.023	17566
908.139	17680
908.256	17630
908.372	17532
908.488	17463
908.604	17368
908.72	17376
908.836	17414
908.952	17398
909.068	17197
909.184	17471
909.3	17200
909.415	17353
909.531	17318
909.647	17094
909.762	17048
909.878	17060
909.993	16984
910.108	17010
910.224	16991
910.339	17045
910.454	16927
910.57	16881
910.685	16797
910.8	17136
910.915	16942
911.03	16824
911.145	16668
911.259	16653
911.374	16607
911.489	16558
911.604	16379
911.718	16390
911.833	16284
911.947	16238
912.062	16215
912.176	16375
912.291	16272
912.405	16314
912.519	16592
912.633	16538
912.748	16481
912.862	16333
912.976	16257
913.09	16120
913.204	16044
913.318	16177
913.431	16207
913.545	16265
913.659	16318
913.772	16112
913.886	15972
914	15956
914.113	15987
914.226	16074
914.34	16067
914.453	15819
914.566	16055
914.68	15823
914.793	15770
914.906	15663
915.019	15542
915.132	15538
915.245	15530
915.358	15538
915.47	15591
915.583	15458
915.696	15606
915.809	15564
915.921	15739
916.034	15477
916.146	15431
916.259	15500
916.371	15538
916.483	15526
916.595	15443
916.708	15389
916.82	15374
916.932	15325
917.044	15291
917.156	15313
917.268	15188
917.38	15252
917.491	15252
917.603	15207
917.715	15325
917.826	15317
917.938	15119
918.049	15039
918.161	15222
918.272	15287
918.384	15275
918.495	15062
918.606	15017
918.717	14914
918.828	14929
918.939	14952
919.05	14872
919.161	14986
919.272	14708
919.383	14838
919.494	14948
919.604	15142
919.715	14925
919.826	14864
919.936	14834
920.047	14956
920.157	14921
920.267	15058
920.378	14887
920.488	14773
920.598	15051
920.708	15138
920.818	15009
920.928	14944
921.038	15199
921.148	15112
921.258	14929
921.368	14792
921.477	14663
921.587	14674
921.697	14389
921.806	14617
921.916	14492
922.025	14305
922.134	14362
922.244	14237
922.353	14271
922.462	14119
922.571	14126
922.68	13944
922.789	13974
922.898	13951
923.007	13803
923.116	13982
923.224	13947
923.333	13700
923.442	13715
923.55	13742
923.659	13791
923.767	13795
923.876	13620
923.984	13685
924.092	13666
924.201	13590
924.309	13658
924.417	13742
924.525	13632
924.633	13544
924.741	14347
924.849	13449
924.956	13445
925.064	13327
925.172	13266
925.279	13285
925.387	13339
925.494	13232
925.602	13350
925.709	13362
925.816	13270
925.924	13320
926.031	13320
926.138	13350
926.245	13339
926.352	13149
926.459	13225
926.566	13331
926.673	13152
926.779	13065
926.886	13053
926.993	12958
927.099	12817
927.206	12779
927.312	12852
927.419	12825
927.525	12795
927.631	12863
927.737	12764
927.843	12715
927.95	12585
928.056	12658
928.162	12700
928.267	12719
928.373	13426
928.479	12791
928.585	12483
928.69	12665
928.796	12623
928.901	12608
929.007	12426
929.112	12566
929.218	12559
929.323	12486
929.428	12376
929.533	12536
929.638	12342
929.743	12426
929.848	12372
929.953	12338
930.058	12220
930.163	12095
930.267	12182
930.372	12251
930.477	12030
930.581	12304
930.685	12197
930.79	11999
930.894	12064
930.998	11977
931.103	12083
931.207	11695
931.311	11649
931.415	11474
931.519	11414
931.623	11387
