Data from test_V78500241_673.txt Node
Date: Fri Mar 25 15:46:27 CST 2022
User: usil
Spectrometer: V785-0024
Trigger mode: 0
Integration Time (sec): 4.000000E-1
Scans to average: 1
Nonlinearity correction enabled: false
Boxcar width: 0
Storing dark spectrum: false
XAxis mode: Wavelengths
Number of Pixels in Spectrum: 1024
>>>>>Begin Spectral Data<<<<<
801.071	28063
801.214	27903
801.356	27637
801.499	27644
801.641	27553
801.783	27435
801.926	27545
802.068	27504
802.211	27321
802.353	27351
802.496	27131
802.638	27272
802.78	27093
802.923	27104
803.065	27176
803.208	27089
803.35	27207
803.492	27294
803.635	27306
803.777	27131
803.919	27367
804.061	27793
804.204	27374
804.346	27287
804.488	27203
804.63	27264
804.773	27260
804.915	27283
805.057	27473
805.199	27340
805.341	27542
805.483	27625
805.626	27401
805.768	27336
805.91	27439
806.052	27515
806.194	27416
806.336	27797
806.478	27523
806.62	27420
806.762	27599
806.904	27831
807.046	28051
807.188	27899
807.33	27827
807.472	27945
807.614	27823
807.756	27842
807.898	27671
808.04	27686
808.182	27675
808.324	27781
808.465	27766
808.607	27861
808.749	27956
808.891	28158
809.033	28382
809.174	28097
809.316	28048
809.458	28120
809.6	28204
809.741	28386
809.883	28181
810.025	28280
810.166	28474
810.308	28538
810.45	28299
810.591	28333
810.733	28215
810.875	28082
811.016	28067
811.158	27960
811.299	28299
811.441	28390
811.582	28352
811.724	28192
811.865	28093
812.007	28021
812.148	28059
812.29	28044
812.431	28272
812.573	28592
812.714	28538
812.855	28736
812.997	28797
813.138	28961
813.279	28790
813.421	28752
813.562	28691
813.703	28641
813.845	28306
813.986	28112
814.127	27941
814.268	27861
814.41	27743
814.551	27854
814.692	27892
814.833	27888
814.974	27770
815.115	27975
815.256	27667
815.397	27717
815.539	27671
815.68	27629
815.821	27511
815.962	27637
816.103	27675
816.244	27500
816.385	27515
816.526	27454
816.666	27237
816.807	27154
816.948	27119
817.089	27207
817.23	27245
817.371	27036
817.512	27077
817.653	27142
817.793	27036
817.934	27135
818.075	27116
818.216	27176
818.356	26975
818.497	27188
818.638	26731
818.778	26929
818.919	26940
819.06	26853
819.2	27013
819.341	27066
819.481	27089
819.622	27146
819.762	27542
819.903	27363
820.043	27256
820.184	27310
820.324	27165
820.465	27241
820.605	27313
820.746	27245
820.886	27104
821.026	27317
821.167	27112
821.307	27188
821.447	27207
821.588	27112
821.728	26986
821.868	26731
822.008	26659
822.149	26644
822.289	26503
822.429	26374
822.569	26320
822.709	26309
822.849	26092
822.99	26149
823.13	26119
823.27	26035
823.41	26005
823.55	25944
823.69	25982
823.83	25826
823.97	25814
824.11	25803
824.25	25753
824.389	25822
824.529	25947
824.669	25894
824.809	25936
824.949	25860
825.089	25917
825.228	25879
825.368	25712
825.508	25609
825.648	25632
825.787	25658
825.927	25670
826.067	25647
826.206	25689
826.346	25757
826.485	25689
826.625	25586
826.765	25811
826.904	25750
827.044	25324
827.183	25472
827.323	25377
827.462	25411
827.601	25289
827.741	25411
827.88	25479
828.02	25240
828.159	25282
828.298	25285
828.437	25384
828.577	25209
828.716	25540
828.855	25251
828.994	25069
829.134	25088
829.273	25145
829.412	25213
829.551	25023
829.69	25099
829.829	25088
829.968	25046
830.107	25038
830.246	25069
830.385	25061
830.524	24951
830.663	24848
830.802	24825
830.941	24544
831.08	24654
831.219	24741
831.357	24776
831.496	24852
831.635	24631
831.774	24620
831.913	24578
832.051	24304
832.19	24460
832.329	24559
832.467	24467
832.606	24182
832.744	24292
832.883	24395
833.022	24384
833.16	24216
833.299	24426
833.437	24395
833.576	24422
833.714	24407
833.852	24544
833.991	24467
834.129	24517
834.267	24532
834.406	24437
834.544	24330
834.682	24361
834.821	24292
834.959	24639
835.097	24342
835.235	24452
835.373	24285
835.511	24353
835.65	24315
835.788	24277
835.926	24121
836.064	24136
836.202	24003
836.34	24194
836.478	24311
836.615	24197
836.753	24209
836.891	24163
837.029	24209
837.167	24121
837.305	24163
837.443	24110
837.58	23996
837.718	24167
837.856	23980
837.993	23878
838.131	24087
838.269	23935
838.406	23931
838.544	23824
838.681	23707
838.819	23604
838.956	23592
839.094	23531
839.231	23634
839.369	23718
839.506	23965
839.643	23817
839.781	23570
839.918	23600
840.055	23497
840.193	23459
840.33	23440
840.467	23398
840.604	23433
840.742	23608
840.879	23284
841.016	23387
841.153	23410
841.29	23486
841.427	23425
841.564	23463
841.701	23368
841.838	23391
841.975	23402
842.112	23292
842.249	23280
842.385	23121
842.522	23318
842.659	23254
842.796	23136
842.933	23162
843.069	23124
843.206	23147
843.343	23174
843.479	23117
843.616	23170
843.752	22984
843.889	22976
844.025	23166
844.162	23056
844.298	23079
844.435	22999
844.571	22961
844.708	23037
844.844	23079
844.98	23162
845.117	22889
845.253	22911
845.389	22896
845.525	22942
845.661	22839
845.798	22599
845.934	22752
846.07	22797
846.206	22797
846.342	22759
846.478	22752
846.614	22546
846.75	22265
846.886	22447
847.022	22516
847.158	22390
847.294	22512
847.429	22550
847.565	22409
847.701	22538
847.837	22234
847.972	22166
848.108	22272
848.244	22116
848.379	22044
848.515	21987
848.65	21892
848.786	22017
848.921	22169
849.057	22147
849.192	22120
849.328	22169
849.463	22139
849.598	22010
849.734	21979
849.869	21880
850.004	21724
850.14	21873
850.275	21671
850.41	21644
850.545	21812
850.68	21789
850.815	21804
850.95	21880
851.085	21994
851.22	21899
851.355	21797
851.49	21793
851.625	21743
851.76	21663
851.895	21717
852.03	21762
852.165	21690
852.299	21766
852.434	21831
852.569	21770
852.703	21873
852.838	21895
852.973	21876
853.107	21949
853.242	21823
853.376	21816
853.511	21618
853.645	21656
853.78	21842
853.914	21686
854.048	21641
854.183	21583
854.317	21614
854.451	21656
854.585	21694
854.72	21561
854.854	21656
854.988	21515
855.122	21564
855.256	21492
855.39	21462
855.524	21759
855.658	21606
855.792	21644
855.926	21622
856.06	21572
856.194	21675
856.327	21561
856.461	21405
856.595	21561
856.729	21595
856.862	21641
856.996	21652
857.13	21705
857.263	21641
857.397	21603
857.53	21599
857.664	21724
857.797	21675
857.931	21724
858.064	21709
858.197	21778
858.331	21713
858.464	21526
858.597	21549
858.731	21629
858.864	21519
858.997	21515
859.13	21599
859.263	21587
859.396	21762
859.529	21576
859.662	21469
859.795	21603
859.928	21652
860.061	21644
860.194	21694
860.327	21648
860.46	21603
860.592	21747
860.725	21720
860.858	21743
860.99	21583
861.123	21538
861.256	21576
861.388	21618
861.521	22234
861.653	21447
861.786	21466
861.918	21435
862.05	21473
862.183	21504
862.315	21576
862.447	21720
862.58	21530
862.712	21317
862.844	21310
862.976	21351
863.108	21500
863.24	21660
863.372	21268
863.504	21397
863.636	21252
863.768	21355
863.9	21264
864.032	21241
864.164	21332
864.296	21336
864.428	21408
864.559	21447
864.691	21321
864.823	21272
864.954	21294
865.086	21214
865.217	21207
865.349	21104
865.48	21138
865.612	21116
865.743	21355
865.875	21192
866.006	21176
866.137	21218
866.269	21157
866.4	21287
866.531	21085
866.662	21070
866.793	21150
866.924	21131
867.055	21188
867.186	21260
867.317	21013
867.448	21013
867.579	21157
867.71	21039
867.841	20963
867.972	21230
868.103	21028
868.233	21161
868.364	21188
868.495	21245
868.625	21302
868.756	21458
868.886	21275
869.017	21351
869.147	21511
869.278	21534
869.408	21405
869.539	21397
869.669	21408
869.799	21485
869.929	21454
870.06	21435
870.19	21724
870.32	21603
870.45	21724
870.58	21800
870.71	21915
870.84	21884
870.97	21785
871.1	21789
871.23	21960
871.36	21922
871.489	21899
871.619	21819
871.749	21911
871.879	22101
872.008	22048
872.138	21915
872.267	22116
872.397	21781
872.526	21846
872.656	21739
872.785	21797
872.915	21861
873.044	22078
873.173	22078
873.303	22032
873.432	21983
873.561	22040
873.69	21983
873.819	21892
873.948	22051
874.077	22044
874.206	21880
874.335	21949
874.464	22082
874.593	22150
874.722	22196
874.851	22158
874.979	22219
875.108	22253
875.237	22226
875.365	22169
875.494	22181
875.623	22249
875.751	22196
875.88	22166
876.008	22249
876.136	22382
876.265	22485
876.393	22774
876.521	22668
876.65	22687
876.778	22573
876.906	22481
877.034	22447
877.162	22554
877.29	22440
877.418	22641
877.546	22565
877.674	22531
877.802	22641
877.93	22519
878.058	22592
878.185	22363
878.313	22508
878.441	22508
878.568	22356
878.696	22500
878.824	22580
878.951	22634
879.079	22835
879.206	22919
879.333	22790
879.461	22592
879.588	22748
879.715	22752
879.842	22725
879.97	22622
880.097	22333
880.224	22310
880.351	22470
880.478	22310
880.605	22386
880.732	22478
880.859	22721
880.986	22363
881.112	22386
881.239	22261
881.366	22074
881.493	22044
881.619	21972
881.746	21854
881.872	21888
881.999	21850
882.125	21819
882.252	22105
882.378	21949
882.505	21991
882.631	21797
882.757	21698
882.883	21728
883.01	21762
883.136	21564
883.262	21629
883.388	21378
883.514	21633
883.64	21614
883.766	21568
883.892	21325
884.018	21450
884.143	21553
884.269	21652
884.395	21294
884.52	21237
884.646	21317
884.772	21207
884.897	21237
885.023	21355
885.148	21439
885.274	21454
885.399	21302
885.524	21184
885.65	21268
885.775	21332
885.9	21264
886.025	21500
886.15	21389
886.275	21237
886.4	21188
886.525	21207
886.65	21428
886.775	21207
886.9	21435
887.025	21492
887.149	21294
887.274	21051
887.399	21066
887.523	21089
887.648	21032
887.773	21055
887.897	21089
888.021	21028
888.146	20967
888.27	21157
888.395	21146
888.519	21176
888.643	21085
888.767	21081
888.891	20910
889.015	20899
889.139	20948
889.263	20914
889.387	20998
889.511	21100
889.635	20994
889.759	20807
889.883	20804
890.006	20777
890.13	20819
890.254	20731
890.377	20754
890.501	20583
890.624	20590
890.748	20602
890.871	20556
890.995	20492
891.118	20278
891.241	20484
891.364	20324
891.488	20454
891.611	20522
891.734	20499
891.857	20408
891.98	20492
892.103	20575
892.226	20446
892.349	20469
892.471	20237
892.594	20431
892.717	20408
892.839	20267
892.962	20347
893.085	20305
893.207	20244
893.33	20229
893.452	20130
893.575	20332
893.697	20309
893.819	20404
893.941	20602
894.064	20476
894.186	20351
894.308	20259
894.43	20480
894.552	20396
894.674	20488
894.796	20202
894.918	20415
895.04	20381
895.161	20427
895.283	20377
895.405	20305
895.526	20412
895.648	20294
895.769	20339
895.891	20286
896.012	20282
896.134	20503
896.255	20343
896.376	20240
896.498	20229
896.619	20377
896.74	20271
896.861	20389
896.982	20602
897.103	20735
897.224	20674
897.345	20602
897.466	20522
897.587	20583
897.708	20602
897.828	20530
897.949	20629
898.07	20492
898.19	20484
898.311	20480
898.431	20503
898.552	20514
898.672	20632
898.792	20701
898.913	20415
899.033	20377
899.153	20286
899.273	20206
899.393	20343
899.513	20377
899.633	20366
899.753	20442
899.873	20271
899.993	20286
900.113	20233
900.232	20298
900.352	20202
900.472	20119
900.591	20084
900.711	20153
900.83	20092
900.95	20172
901.069	20119
901.189	19928
901.308	19624
901.427	19563
901.546	19613
901.665	19746
901.784	19708
901.904	19441
902.023	19422
902.141	19168
902.26	19152
902.379	19251
902.498	19110
902.617	19148
902.735	19221
902.854	19091
902.973	19107
903.091	18886
903.21	18844
903.328	18741
903.446	18833
903.565	18719
903.683	18665
903.801	18547
903.919	18608
904.038	18494
904.156	18403
904.274	18582
904.392	18372
904.51	18235
904.627	18300
904.745	18395
904.863	18498
904.981	18106
905.098	18034
905.216	18079
905.334	18091
905.451	18045
905.569	18038
905.686	18091
905.803	18007
905.921	17863
906.038	17923
906.155	17847
906.272	17722
906.389	17828
906.506	17573
906.623	17672
906.74	17577
906.857	17474
906.974	17558
907.091	17630
907.208	17611
907.324	17589
907.441	17459
907.557	17273
907.674	17326
907.79	17212
907.907	17311
908.023	17254
908.139	17277
908.256	17143
908.372	17235
908.488	17220
908.604	17025
908.72	16911
908.836	16980
908.952	17045
909.068	16968
909.184	17113
909.3	16942
909.415	17140
909.531	17079
909.647	16736
909.762	16744
909.878	16721
909.993	16843
910.108	16653
910.224	16637
910.339	16649
910.454	16565
910.57	16466
910.685	16462
910.8	16710
910.915	16546
911.03	16561
911.145	16436
911.259	16398
911.374	16329
911.489	16249
911.604	16158
911.718	16086
911.833	15918
911.947	15880
912.062	15876
912.176	16010
912.291	16013
912.405	16067
912.519	16257
912.633	16234
912.748	16192
912.862	16032
912.976	15903
913.09	15785
913.204	15857
913.318	16063
913.431	15918
913.545	15972
913.659	15994
913.772	15808
913.886	15728
914	15599
914.113	15747
914.226	15827
914.34	15736
914.453	15644
914.566	15625
914.68	15564
914.793	15507
914.906	15412
915.019	15294
915.132	15283
915.245	15325
915.358	15260
915.47	15329
915.583	15233
915.696	15298
915.809	15355
915.921	15443
916.034	15306
916.146	15157
916.259	15207
916.371	15218
916.483	15256
916.595	15097
916.708	15032
916.82	15039
916.932	15077
917.044	15085
917.156	14906
917.268	14967
917.38	14941
917.491	14834
917.603	14929
917.715	15024
917.826	15009
917.938	14910
918.049	14788
918.161	14868
918.272	14956
918.384	14929
918.495	14792
918.606	14762
918.717	14617
918.828	14693
918.939	14648
919.05	14644
919.161	14625
919.272	14511
919.383	14484
919.494	14678
919.604	14960
919.715	14651
919.826	14621
919.936	14621
920.047	14765
920.157	14659
920.267	14777
920.378	14644
920.488	14670
920.598	14773
920.708	14967
920.818	14815
920.928	14834
921.038	14948
921.148	14819
921.258	14530
921.368	14400
921.477	14377
921.587	14320
921.697	14298
921.806	14328
921.916	14355
922.025	14062
922.134	13986
922.244	13974
922.353	14027
922.462	13871
922.571	13799
922.68	13731
922.789	13700
922.898	13712
923.007	13609
923.116	13685
923.224	13655
923.333	13563
923.442	13636
923.55	13480
923.659	13449
923.767	13480
923.876	13453
923.984	13472
924.092	13438
924.201	13384
924.309	13384
924.417	13384
924.525	13301
924.633	13301
924.741	14176
924.849	13187
924.956	13225
925.064	13122
925.172	13038
925.279	13065
925.387	13091
925.494	13095
925.602	13095
925.709	13103
925.816	12954
925.924	13034
926.031	13183
926.138	13019
926.245	13038
926.352	12875
926.459	13099
926.566	13053
926.673	12859
926.779	12840
926.886	12833
926.993	12715
927.099	12612
927.206	12483
927.312	12536
927.419	12776
927.525	12570
927.631	12650
927.737	12536
927.843	12441
927.95	12346
928.056	12361
928.162	12498
928.267	12498
928.373	13156
928.479	12506
928.585	12228
928.69	12437
928.796	12437
928.901	12247
929.007	12140
929.112	12277
929.218	12190
929.323	12159
929.428	12220
929.533	12372
929.638	12091
929.743	12110
929.848	12247
929.953	12121
930.058	12041
930.163	11855
930.267	11863
930.372	12011
930.477	11805
930.581	12026
930.685	11889
930.79	11741
930.894	11783
930.998	11737
931.103	11843
931.207	11509
931.311	11448
931.415	11307
931.519	11185
931.623	11079
