Data from test_V78500241_1857.txt Node
Date: Fri Mar 25 15:54:39 CST 2022
User: usil
Spectrometer: V785-0024
Trigger mode: 0
Integration Time (sec): 4.000000E-1
Scans to average: 1
Nonlinearity correction enabled: false
Boxcar width: 0
Storing dark spectrum: false
XAxis mode: Wavelengths
Number of Pixels in Spectrum: 1024
>>>>>Begin Spectral Data<<<<<
801.071	28341
801.214	28421
801.356	28295
801.499	28116
801.641	27922
801.783	27960
801.926	28021
802.068	28029
802.211	27857
802.353	27838
802.496	27808
802.638	27591
802.78	27599
802.923	27637
803.065	27618
803.208	27743
803.35	27671
803.492	27739
803.635	27823
803.777	27778
803.919	27994
804.061	28204
804.204	28017
804.346	27850
804.488	27819
804.63	27911
804.773	27857
804.915	27827
805.057	28105
805.199	27838
805.341	27960
805.483	28055
805.626	28063
805.768	27998
805.91	28223
806.052	27968
806.194	28002
806.336	28257
806.478	28059
806.62	28051
806.762	28055
806.904	28455
807.046	28599
807.188	28504
807.33	28375
807.472	28577
807.614	28459
807.756	28466
807.898	28318
808.04	28386
808.182	28234
808.324	28371
808.465	28485
808.607	28500
808.749	28702
808.891	28839
809.033	28896
809.174	28763
809.316	28729
809.458	28759
809.6	28626
809.741	28755
809.883	28896
810.025	28961
810.166	28984
810.308	29094
810.45	28919
810.591	28858
810.733	28805
810.875	28660
811.016	28721
811.158	28618
811.299	28759
811.441	28946
811.582	28885
811.724	28713
811.865	28847
812.007	28755
812.148	28649
812.29	28786
812.431	28919
812.573	28999
812.714	29166
812.855	29292
812.997	29280
813.138	29493
813.279	29448
813.421	29330
813.562	29132
813.703	29098
813.845	29090
813.986	28675
814.127	28527
814.268	28504
814.41	28436
814.551	28348
814.692	28470
814.833	28417
814.974	28356
815.115	28519
815.256	28337
815.397	28303
815.539	28360
815.68	28181
815.821	28158
815.962	28253
816.103	28295
816.244	28082
816.385	27994
816.526	28166
816.666	27827
816.807	27701
816.948	27869
817.089	27751
817.23	27770
817.371	27732
817.512	27732
817.653	27762
817.793	27732
817.934	27812
818.075	27663
818.216	27892
818.356	27671
818.497	27610
818.638	27416
818.778	27344
818.919	27504
819.06	27545
819.2	27603
819.341	27622
819.481	27739
819.622	27983
819.762	28078
819.903	28048
820.043	27869
820.184	27804
820.324	27876
820.465	27926
820.605	27808
820.746	27774
820.886	27736
821.026	27793
821.167	27762
821.307	27968
821.447	27884
821.588	27778
821.728	27515
821.868	27348
822.008	27275
822.149	27154
822.289	27237
822.429	27028
822.569	26906
822.709	26933
822.849	26564
822.99	26682
823.13	26705
823.27	26564
823.41	26484
823.55	26332
823.69	26370
823.83	26541
823.97	26309
824.11	26343
824.25	26206
824.389	26362
824.529	26431
824.669	26366
824.809	26511
824.949	26552
825.089	26514
825.228	26465
825.368	26107
825.508	26256
825.648	26191
825.787	26263
825.927	26370
826.067	26244
826.206	26332
826.346	26419
826.485	26157
826.625	26286
826.765	26358
826.904	26427
827.044	25932
827.183	25963
827.323	25856
827.462	25944
827.601	25997
827.741	25940
827.88	26008
828.02	25727
828.159	25849
828.298	25932
828.437	25966
828.577	25902
828.716	26115
828.855	25860
828.994	25772
829.134	25533
829.273	25742
829.412	25620
829.551	25658
829.69	25533
829.829	25674
829.968	25799
830.107	25727
830.246	25666
830.385	25479
830.524	25556
830.663	25476
830.802	25358
830.941	25171
831.08	25217
831.219	25430
831.357	25289
831.496	25518
831.635	25168
831.774	25095
831.913	25206
832.051	24928
832.19	25038
832.329	24989
832.467	24928
832.606	24837
832.744	24894
832.883	24909
833.022	24928
833.16	24863
833.299	24871
833.437	25027
833.576	24924
833.714	25080
833.852	24962
833.991	24962
834.129	24970
834.267	25034
834.406	25004
834.544	24897
834.682	24939
834.821	24795
834.959	25065
835.097	25008
835.235	24897
835.373	24932
835.511	24951
835.65	24802
835.788	24764
835.926	24654
836.064	24764
836.202	24540
836.34	24802
836.478	24757
836.615	24779
836.753	24791
836.891	24890
837.029	24837
837.167	24745
837.305	24654
837.443	24639
837.58	24692
837.718	24677
837.856	24665
837.993	24604
838.131	24498
838.269	24555
838.406	24528
838.544	24391
838.681	24258
838.819	24213
838.956	24110
839.094	24098
839.231	24133
839.369	24216
839.506	24414
839.643	24391
839.781	24186
839.918	24106
840.055	24095
840.193	24136
840.33	24011
840.467	23946
840.604	23965
840.742	24194
840.879	23885
841.016	23954
841.153	23885
841.29	24049
841.427	23935
841.564	23935
841.701	23954
841.838	24007
841.975	23946
842.112	23916
842.249	23596
842.385	23760
842.522	23904
842.659	23840
842.796	23638
842.933	23809
843.069	23634
843.206	23684
843.343	23843
843.479	23805
843.616	23786
843.752	23589
843.889	23600
844.025	23771
844.162	23395
844.298	23608
844.435	23566
844.571	23493
844.708	23467
844.844	23668
844.98	23707
845.117	23615
845.253	23482
845.389	23478
845.525	23493
845.661	23356
845.798	23265
845.934	23292
846.07	23121
846.206	23356
846.342	23307
846.478	23315
846.614	22900
846.75	22877
846.886	23025
847.022	22972
847.158	23064
847.294	23056
847.429	23022
847.565	23037
847.701	23174
847.837	22839
847.972	22634
848.108	22729
848.244	22793
848.379	22557
848.515	22512
848.65	22622
848.786	22462
848.921	22516
849.057	22660
849.192	22660
849.328	22683
849.463	22683
849.598	22542
849.734	22382
849.869	22432
850.004	22398
850.14	22337
850.275	22337
850.41	22249
850.545	22344
850.68	22272
850.815	22371
850.95	22333
851.085	22535
851.22	22504
851.355	22356
851.49	22238
851.625	22314
851.76	22367
851.895	22253
852.03	22276
852.165	22428
852.299	22504
852.434	22390
852.569	22306
852.703	22413
852.838	22398
852.973	22451
853.107	22379
853.242	22352
853.376	22162
853.511	22147
853.645	22082
853.78	22268
853.914	22207
854.048	22143
854.183	22188
854.317	22181
854.451	22402
854.585	22257
854.72	22246
854.854	22310
854.988	22280
855.122	22226
855.256	22036
855.39	22226
855.524	22196
855.658	22207
855.792	22204
855.926	22306
856.06	22185
856.194	22204
856.327	22150
856.461	22051
856.595	22074
856.729	22143
856.862	22268
856.996	22188
857.13	22261
857.263	22280
857.397	22204
857.53	22230
857.664	22177
857.797	22230
857.931	22341
858.064	22249
858.197	22284
858.331	22215
858.464	22150
858.597	21983
858.731	22173
858.864	22116
858.997	22154
859.13	22219
859.263	22257
859.396	22276
859.529	22162
859.662	22139
859.795	22105
859.928	22154
860.061	22181
860.194	22371
860.327	22337
860.46	22173
860.592	22436
860.725	22276
860.858	22394
860.99	22230
861.123	22173
861.256	22177
861.388	22196
861.521	23056
861.653	22078
861.786	21922
861.918	21987
862.05	22135
862.183	22032
862.315	22040
862.447	22074
862.58	22048
862.712	22017
862.844	21895
862.976	22021
863.108	21949
863.24	22333
863.372	21903
863.504	21774
863.636	21861
863.768	21831
863.9	21945
864.032	21793
864.164	21918
864.296	21880
864.428	21934
864.559	22105
864.691	21846
864.823	21880
864.954	21884
865.086	21918
865.217	21766
865.349	21679
865.48	21701
865.612	21861
865.743	22006
865.875	21812
866.006	21774
866.137	21793
866.269	21732
866.4	21785
866.531	21720
866.662	21724
866.793	21728
866.924	21827
867.055	21686
867.186	21679
867.317	21808
867.448	21610
867.579	21682
867.71	21515
867.841	21561
867.972	21759
868.103	21781
868.233	21675
868.364	21682
868.495	21842
868.625	21926
868.756	22059
868.886	21945
869.017	21888
869.147	22025
869.278	22036
869.408	21888
869.539	22051
869.669	22086
869.799	21956
869.929	22074
870.06	21899
870.19	22226
870.32	22215
870.45	22318
870.58	22356
870.71	22459
870.84	22390
870.97	22344
871.1	22341
871.23	22538
871.36	22622
871.489	22455
871.619	22440
871.749	22538
871.879	22557
872.008	22561
872.138	22538
872.267	22447
872.397	22443
872.526	22413
872.656	22325
872.785	22329
872.915	22424
873.044	22497
873.173	22679
873.303	22641
873.432	22596
873.561	22626
873.69	22649
873.819	22504
873.948	22713
874.077	22519
874.206	22432
874.335	22508
874.464	22641
874.593	22801
874.722	22729
874.851	22923
874.979	22744
875.108	22702
875.237	22717
875.365	22649
875.494	22839
875.623	22873
875.751	22706
875.88	22816
876.008	22805
876.136	22984
876.265	23261
876.393	23143
876.521	23098
876.65	23189
876.778	23200
876.906	22938
877.034	23022
877.162	23151
877.29	23170
877.418	22984
877.546	23159
877.674	23189
877.802	23041
877.93	23044
878.058	23140
878.185	22923
878.313	23033
878.441	23102
878.568	23018
878.696	23052
878.824	23159
878.951	23140
879.079	23250
879.206	23360
879.333	23181
879.461	23159
879.588	23273
879.715	23322
879.842	23349
879.97	23109
880.097	22995
880.224	22930
880.351	23117
880.478	22843
880.605	22911
880.732	23094
880.859	23193
880.986	22980
881.112	22919
881.239	22771
881.366	22649
881.493	22413
881.619	22440
881.746	22451
881.872	22497
881.999	22421
882.125	22493
882.252	22481
882.378	22386
882.505	22588
882.631	22223
882.757	22253
882.883	22238
883.01	22272
883.136	22128
883.262	22086
883.388	22006
883.514	22219
883.64	22120
883.766	22181
883.892	21892
884.018	21964
884.143	22093
884.269	22154
884.395	21907
884.52	21743
884.646	21861
884.772	21709
884.897	21622
885.023	21781
885.148	21873
885.274	21975
885.399	21911
885.524	21789
885.65	21785
885.775	21907
885.9	21865
886.025	21899
886.15	21797
886.275	21800
886.4	21641
886.525	21884
886.65	21751
886.775	21633
886.9	21854
887.025	21949
887.149	21747
887.274	21663
887.399	21504
887.523	21572
887.648	21485
887.773	21382
887.897	21641
888.021	21713
888.146	21344
888.27	21667
888.395	21743
888.519	21561
888.643	21591
888.767	21595
888.891	21469
889.015	21420
889.139	21515
889.263	21374
889.387	21526
889.511	21496
889.635	21454
889.759	21214
889.883	21294
890.006	21264
890.13	21458
890.254	21302
890.377	21416
890.501	21123
890.624	21119
890.748	21192
890.871	21005
890.995	20902
891.118	20785
891.241	20918
891.364	21017
891.488	20941
891.611	20914
891.734	20902
891.857	20967
891.98	20925
892.103	20948
892.226	20845
892.349	20956
892.471	20644
892.594	20796
892.717	20861
892.839	20743
892.962	20804
893.085	20769
893.207	20762
893.33	20651
893.452	20667
893.575	20842
893.697	20693
893.819	20967
893.941	20998
894.064	20895
894.186	20670
894.308	20781
894.43	20853
894.552	20823
894.674	20952
894.796	20682
894.918	20632
895.04	20750
895.161	20872
895.283	20807
895.405	20842
895.526	20826
895.648	20720
895.769	20739
895.891	20735
896.012	20899
896.134	20834
896.255	20845
896.376	20750
896.498	20746
896.619	20861
896.74	20754
896.861	20750
896.982	21047
897.103	21256
897.224	21123
897.345	20979
897.466	20872
897.587	20963
897.708	21135
897.828	20998
897.949	20883
898.07	20872
898.19	20868
898.311	21119
898.431	20937
898.552	20990
898.672	21085
898.792	20982
898.913	21039
899.033	20861
899.153	20853
899.273	20788
899.393	20853
899.513	20872
899.633	20758
899.753	20804
899.873	20629
899.993	20750
900.113	20678
900.232	20762
900.352	20556
900.472	20564
900.591	20476
900.711	20495
900.83	20503
900.95	20594
901.069	20697
901.189	20427
901.308	20298
901.427	20016
901.546	20119
901.665	20077
901.784	20069
901.904	19970
902.023	19879
902.141	19575
902.26	19723
902.379	19719
902.498	19616
902.617	19548
902.735	19666
902.854	19556
902.973	19422
903.091	19285
903.21	19270
903.328	19369
903.446	19225
903.565	19160
903.683	19080
903.801	18966
903.919	18973
904.038	19031
904.156	18916
904.274	18817
904.392	18738
904.51	18776
904.627	18734
904.745	18798
904.863	18802
904.981	18612
905.098	18494
905.216	18521
905.334	18601
905.451	18528
905.569	18437
905.686	18498
905.803	18433
905.921	18304
906.038	18342
906.155	18323
906.272	18216
906.389	18251
906.506	18045
906.623	17961
906.74	18098
906.857	17764
906.974	17882
907.091	18019
907.208	18091
907.324	18034
907.441	17836
907.557	17817
907.674	17703
907.79	17668
907.907	17642
908.023	17798
908.139	17646
908.256	17714
908.372	17634
908.488	17630
908.604	17490
908.72	17391
908.836	17376
908.952	17391
909.068	17383
909.184	17490
909.3	17410
909.415	17414
909.531	17391
909.647	17056
909.762	17143
909.878	17094
909.993	17045
910.108	16930
910.224	17147
910.339	17003
910.454	17060
910.57	16847
910.685	16778
910.8	17143
910.915	17113
911.03	16949
911.145	16660
911.259	16755
911.374	16736
911.489	16771
911.604	16607
911.718	16466
911.833	16432
911.947	16402
912.062	16299
912.176	16485
912.291	16497
912.405	16436
912.519	16679
912.633	16599
912.748	16523
912.862	16424
912.976	16226
913.09	16257
913.204	16200
913.318	16306
913.431	16348
913.545	16333
913.659	16356
913.772	16090
913.886	16071
914	15975
914.113	16185
914.226	16124
914.34	16112
914.453	15994
914.566	16207
914.68	15930
914.793	15918
914.906	15660
915.019	15759
915.132	15625
915.245	15663
915.358	15709
915.47	15713
915.583	15739
915.696	15580
915.809	15694
915.921	15812
916.034	15584
916.146	15481
916.259	15504
916.371	15568
916.483	15709
916.595	15568
916.708	15485
916.82	15458
916.932	15416
917.044	15405
917.156	15443
917.268	15344
917.38	15329
917.491	15310
917.603	15313
917.715	15199
917.826	15393
917.938	15127
918.049	15097
918.161	15226
918.272	15363
918.384	15370
918.495	15222
918.606	15066
918.717	14906
918.828	15047
918.939	15005
919.05	14952
919.161	15005
919.272	14758
919.383	14830
919.494	15081
919.604	15256
919.715	14998
919.826	14952
919.936	15047
920.047	14982
920.157	15017
920.267	15165
920.378	14948
920.488	14941
920.598	15135
920.708	15256
920.818	15116
920.928	15036
921.038	15188
921.148	15165
921.258	14971
921.368	14781
921.477	14670
921.587	14716
921.697	14606
921.806	14735
921.916	14533
922.025	14514
922.134	14396
922.244	14278
922.353	14366
922.462	14202
922.571	14259
922.68	13944
922.789	13955
922.898	14050
923.007	14005
923.116	14005
923.224	13909
923.333	13970
923.442	13822
923.55	13655
923.659	13799
923.767	13883
923.876	13712
923.984	13852
924.092	13734
924.201	13757
924.309	13586
924.417	13715
924.525	13651
924.633	13620
924.741	14374
924.849	13415
924.956	13529
925.064	13419
925.172	13282
925.279	13331
925.387	13396
925.494	13419
925.602	13567
925.709	13415
925.816	13274
925.924	13247
926.031	13388
926.138	13259
926.245	13244
926.352	13266
926.459	13369
926.566	13506
926.673	13190
926.779	13072
926.886	13088
926.993	13027
927.099	12970
927.206	12856
927.312	12932
927.419	12981
927.525	12943
927.631	12943
927.737	12901
927.843	12829
927.95	12642
928.056	12760
928.162	12719
928.267	12848
928.373	13403
928.479	12798
928.585	12582
928.69	12669
928.796	12776
928.901	12608
929.007	12422
929.112	12544
929.218	12597
929.323	12483
929.428	12445
929.533	12616
929.638	12422
929.743	12426
929.848	12445
929.953	12418
930.058	12186
930.163	12117
930.267	12182
930.372	12243
930.477	12186
930.581	12281
930.685	12140
930.79	12064
930.894	11992
930.998	11946
931.103	12038
931.207	11764
931.311	11676
931.415	11604
931.519	11379
931.623	11349
