Data from test_V78500241_121.txt Node
Date: Fri Mar 25 15:42:38 CST 2022
User: usil
Spectrometer: V785-0024
Trigger mode: 0
Integration Time (sec): 4.000000E-1
Scans to average: 1
Nonlinearity correction enabled: false
Boxcar width: 0
Storing dark spectrum: false
XAxis mode: Wavelengths
Number of Pixels in Spectrum: 1024
>>>>>Begin Spectral Data<<<<<
801.071	30174
801.214	30022
801.356	29882
801.499	29790
801.641	29684
801.783	29604
801.926	29710
802.068	29691
802.211	29497
802.353	29425
802.496	29387
802.638	29239
802.78	29216
802.923	29181
803.065	29261
803.208	29345
803.35	29448
803.492	29402
803.635	29429
803.777	29292
803.919	29425
804.061	29695
804.204	29482
804.346	29406
804.488	29337
804.63	29417
804.773	29162
804.915	29440
805.057	29356
805.199	29307
805.341	29433
805.483	29414
805.626	29501
805.768	29334
805.91	29577
806.052	29661
806.194	29452
806.336	29691
806.478	29539
806.62	29520
806.762	29665
806.904	29665
807.046	29882
807.188	30030
807.33	29992
807.472	29821
807.614	29996
807.756	29771
807.898	29802
808.04	29786
808.182	29695
808.324	29710
808.465	29767
808.607	29817
808.749	30007
808.891	30155
809.033	30152
809.174	30053
809.316	30072
809.458	30155
809.6	30053
809.741	30174
809.883	30148
810.025	30311
810.166	30258
810.308	30232
810.45	30155
810.591	30068
810.733	30045
810.875	29977
811.016	29885
811.158	29866
811.299	30083
811.441	30144
811.582	30281
811.724	30045
811.865	30030
812.007	29954
812.148	30003
812.29	30022
812.431	30155
812.573	30353
812.714	30448
812.855	30505
812.997	30521
813.138	30825
813.279	30635
813.421	30437
813.562	30467
813.703	30285
813.845	30232
813.986	29859
814.127	29843
814.268	29687
814.41	29684
814.551	29627
814.692	29695
814.833	29531
814.974	29505
815.115	29657
815.256	29573
815.397	29573
815.539	29444
815.68	29414
815.821	29284
815.962	29391
816.103	29345
816.244	29166
816.385	29071
816.526	28968
816.666	28957
816.807	28725
816.948	28831
817.089	28980
817.23	28854
817.371	28816
817.512	28782
817.653	28713
817.793	28809
817.934	28725
818.075	28778
818.216	28839
818.356	28706
818.497	28588
818.638	28394
818.778	28538
818.919	28618
819.06	28508
819.2	28497
819.341	28691
819.481	28622
819.622	28980
819.762	29048
819.903	28942
820.043	28984
820.184	28634
820.324	28721
820.465	28900
820.605	28790
820.746	28736
820.886	28592
821.026	28698
821.167	28759
821.307	28767
821.447	28626
821.588	28580
821.728	28390
821.868	28215
822.008	28166
822.149	28124
822.289	28131
822.429	27937
822.569	27846
822.709	27717
822.849	27618
822.99	27599
823.13	27427
823.27	27454
823.41	27340
823.55	27226
823.69	27310
823.83	27313
823.97	27317
824.11	27043
824.25	27055
824.389	27036
824.529	27321
824.669	26990
824.809	27237
824.949	27245
825.089	27123
825.228	27275
825.368	26952
825.508	26952
825.648	26906
825.787	27020
825.927	26998
826.067	26918
826.206	26861
826.346	27020
826.485	26998
826.625	26944
826.765	27093
826.904	26975
827.044	26651
827.183	26568
827.323	26621
827.462	26621
827.601	26560
827.741	26503
827.88	26644
828.02	26514
828.159	26423
828.298	26629
828.437	26667
828.577	26507
828.716	26617
828.855	26381
828.994	26351
829.134	26278
829.273	26358
829.412	26084
829.551	26221
829.69	26126
829.829	26122
829.968	26343
830.107	26328
830.246	26210
830.385	26176
830.524	26050
830.663	26008
830.802	25982
830.941	25731
831.08	25791
831.219	25883
831.357	25845
831.496	26005
831.635	25685
831.774	25727
831.913	25521
832.051	25693
832.19	25468
832.329	25575
832.467	25457
832.606	25411
832.744	25274
832.883	25392
833.022	25270
833.16	25518
833.299	25396
833.437	25335
833.576	25377
833.714	25369
833.852	25521
833.991	25468
834.129	25453
834.267	25537
834.406	25449
834.544	25346
834.682	25369
834.821	25247
834.959	25563
835.097	25274
835.235	25346
835.373	25324
835.511	25324
835.65	25251
835.788	25202
835.926	25091
836.064	24863
836.202	25027
836.34	25122
836.478	25285
836.615	25110
836.753	25168
836.891	25148
837.029	25278
837.167	25019
837.305	25232
837.443	24924
837.58	25023
837.718	25042
837.856	25008
837.993	24844
838.131	24905
838.269	24722
838.406	24848
838.544	24665
838.681	24665
838.819	24555
838.956	24426
839.094	24429
839.231	24391
839.369	24559
839.506	24642
839.643	24665
839.781	24445
839.918	24300
840.055	24277
840.193	24254
840.33	24319
840.467	24342
840.604	24361
840.742	24525
840.879	24152
841.016	24228
841.153	24060
841.29	24262
841.427	24102
841.564	24342
841.701	24205
841.838	24106
841.975	24057
842.112	24125
842.249	24091
842.385	24007
842.522	24247
842.659	23923
842.796	23935
842.933	23958
843.069	23882
843.206	23897
843.343	23939
843.479	23794
843.616	23999
843.752	23585
843.889	23649
844.025	23832
844.162	23627
844.298	23885
844.435	23707
844.571	23649
844.708	23596
844.844	23771
844.98	23760
845.117	23756
845.253	23615
845.389	23436
845.525	23474
845.661	23444
845.798	23387
845.934	23429
846.07	23227
846.206	23360
846.342	23486
846.478	23322
846.614	23121
846.75	23170
846.886	23052
847.022	23223
847.158	23132
847.294	22984
847.429	23178
847.565	22991
847.701	23311
847.837	22752
847.972	22801
848.108	22885
848.244	22812
848.379	22717
848.515	22645
848.65	22516
848.786	22569
848.921	22634
849.057	22653
849.192	22561
849.328	22664
849.463	22557
849.598	22641
849.734	22390
849.869	22398
850.004	22234
850.14	22474
850.275	22432
850.41	22181
850.545	22158
850.68	22234
850.815	22394
850.95	22325
851.085	22424
851.22	22443
851.355	22360
851.49	22310
851.625	22188
851.76	22246
851.895	22219
852.03	22242
852.165	22291
852.299	22291
852.434	22413
852.569	22215
852.703	22287
852.838	22405
852.973	22402
853.107	22508
853.242	22188
853.376	22090
853.511	21994
853.645	22105
853.78	22234
853.914	22021
854.048	22093
854.183	22154
854.317	22188
854.451	22230
854.585	22131
854.72	22112
854.854	22128
854.988	22051
855.122	22139
855.256	21956
855.39	21964
855.524	22322
855.658	22101
855.792	22211
855.926	22169
856.06	22074
856.194	22128
856.327	22086
856.461	22036
856.595	22128
856.729	22029
856.862	22204
856.996	22029
857.13	22074
857.263	22158
857.397	22074
857.53	22078
857.664	22147
857.797	22032
857.931	22196
858.064	22128
858.197	22162
858.331	22044
858.464	22021
858.597	21941
858.731	21926
858.864	22055
858.997	21979
859.13	22067
859.263	22059
859.396	22105
859.529	22044
859.662	21880
859.795	21934
859.928	22013
860.061	22154
860.194	22280
860.327	22105
860.46	22055
860.592	22078
860.725	22169
860.858	22143
860.99	22086
861.123	21972
861.256	21926
861.388	22006
861.521	22710
861.653	21819
861.786	21823
861.918	21880
862.05	21903
862.183	21994
862.315	22124
862.447	22059
862.58	22147
862.712	21755
862.844	21713
862.976	21998
863.108	21720
863.24	22105
863.372	21614
863.504	21819
863.636	21705
863.768	21785
863.9	21686
864.032	21656
864.164	21660
864.296	21739
864.428	21701
864.559	21759
864.691	21835
864.823	21633
864.954	21698
865.086	21774
865.217	21686
865.349	21549
865.48	21488
865.612	21637
865.743	21747
865.875	21583
866.006	21519
866.137	21614
866.269	21610
866.4	21595
866.531	21568
866.662	21504
866.793	21386
866.924	21458
867.055	21599
867.186	21485
867.317	21492
867.448	21370
867.579	21439
867.71	21469
867.841	21412
867.972	21443
868.103	21481
868.233	21420
868.364	21545
868.495	21576
868.625	21751
868.756	21762
868.886	21614
869.017	21701
869.147	21823
869.278	21823
869.408	21743
869.539	21709
869.669	21770
869.799	21835
869.929	21850
870.06	21778
870.19	22055
870.32	21968
870.45	22078
870.58	22105
870.71	22238
870.84	22154
870.97	21991
871.1	22158
871.23	22375
871.36	22367
871.489	22116
871.619	22284
871.749	22265
871.879	22348
872.008	22417
872.138	22295
872.267	22413
872.397	22322
872.526	22032
872.656	22185
872.785	22234
872.915	22329
873.044	22394
873.173	22367
873.303	22371
873.432	22253
873.561	22481
873.69	22421
873.819	22314
873.948	22344
874.077	22287
874.206	22287
874.335	22386
874.464	22493
874.593	22535
874.722	22440
874.851	22660
874.979	22519
875.108	22561
875.237	22451
875.365	22485
875.494	22656
875.623	22694
875.751	22588
875.88	22569
876.008	22835
876.136	22611
876.265	22904
876.393	23086
876.521	22896
876.65	22987
876.778	23041
876.906	22847
877.034	22824
877.162	22927
877.29	22866
877.418	22889
877.546	22850
877.674	22889
877.802	22930
877.93	22904
878.058	22911
878.185	22843
878.313	23018
878.441	22843
878.568	22645
878.696	22847
878.824	22957
878.951	22915
879.079	23044
879.206	23166
879.333	23143
879.461	22984
879.588	22984
879.715	23090
879.842	23178
879.97	23010
880.097	22759
880.224	22603
880.351	22824
880.478	22721
880.605	22656
880.732	22683
880.859	22889
880.986	22668
881.112	22672
881.239	22622
881.366	22402
881.493	22459
881.619	22265
881.746	22325
881.872	22329
881.999	22223
882.125	22352
882.252	22325
882.378	22306
882.505	22466
882.631	22204
882.757	22147
882.883	22215
883.01	21945
883.136	21987
883.262	21911
883.388	21797
883.514	22010
883.64	22013
883.766	21975
883.892	21835
884.018	21857
884.143	22029
884.269	22059
884.395	21812
884.52	21679
884.646	21701
884.772	21629
884.897	21496
885.023	21622
885.148	21656
885.274	21797
885.399	21774
885.524	21591
885.65	21652
885.775	21591
885.9	21561
886.025	21724
886.15	21656
886.275	21591
886.4	21492
886.525	21568
886.65	21511
886.775	21618
886.9	21633
887.025	21838
887.149	21656
887.274	21424
887.399	21310
887.523	21302
887.648	21302
887.773	21321
887.897	21458
888.021	21447
888.146	21294
888.27	21504
888.395	21420
888.519	21370
888.643	21420
888.767	21469
888.891	21317
889.015	21154
889.139	21325
889.263	21089
889.387	21249
889.511	21332
889.635	21256
889.759	21123
889.883	21074
890.006	21135
890.13	21226
890.254	21013
890.377	21116
890.501	20902
890.624	20819
890.748	20902
890.871	20807
890.995	20682
891.118	20716
891.241	20773
891.364	20617
891.488	20815
891.611	20583
891.734	20621
891.857	20739
891.98	20762
892.103	20773
892.226	20785
892.349	20743
892.471	20537
892.594	20670
892.717	20693
892.839	20583
892.962	20636
893.085	20701
893.207	20625
893.33	20541
893.452	20507
893.575	20571
893.697	20602
893.819	20724
893.941	20777
894.064	20735
894.186	20427
894.308	20499
894.43	20670
894.552	20826
894.674	20629
894.796	20503
894.918	20492
895.04	20670
895.161	20644
895.283	20556
895.405	20556
895.526	20739
895.648	20549
895.769	20648
895.891	20583
896.012	20712
896.134	20716
896.255	20682
896.376	20533
896.498	20701
896.619	20689
896.74	20613
896.861	20743
896.982	21020
897.103	21085
897.224	20979
897.345	20929
897.466	20807
897.587	20887
897.708	20887
897.828	20937
897.949	20750
898.07	20796
898.19	20792
898.311	20963
898.431	20826
898.552	20830
898.672	20990
898.792	20804
898.913	20800
899.033	20712
899.153	20545
899.273	20442
899.393	20594
899.513	20549
899.633	20552
899.753	20537
899.873	20412
899.993	20583
900.113	20404
900.232	20503
900.352	20320
900.472	20370
900.591	20301
900.711	20282
900.83	20332
900.95	20434
901.069	20400
901.189	20229
901.308	20027
901.427	19860
901.546	19947
901.665	19913
901.784	19928
901.904	19700
902.023	19620
902.141	19430
902.26	19343
902.379	19438
902.498	19327
902.617	19301
902.735	19396
902.854	19419
902.973	19255
903.091	19129
903.21	19031
903.328	18993
903.446	18913
903.565	18859
903.683	18730
903.801	18726
903.919	18825
904.038	18730
904.156	18620
904.274	18684
904.392	18700
904.51	18616
904.627	18604
904.745	18570
904.863	18498
904.981	18418
905.098	18216
905.216	18254
905.334	18361
905.451	18296
905.569	18174
905.686	18285
905.803	18254
905.921	18057
906.038	18243
906.155	18087
906.272	18026
906.389	17863
906.506	17790
906.623	17832
906.74	17748
906.857	17623
906.974	17608
907.091	17794
907.208	17882
907.324	17870
907.441	17718
907.557	17592
907.674	17478
907.79	17395
907.907	17425
908.023	17501
908.139	17433
908.256	17318
908.372	17398
908.488	17315
908.604	17071
908.72	17166
908.836	17216
908.952	17029
909.068	17170
909.184	17220
909.3	17071
909.415	17143
909.531	17136
909.647	16900
909.762	16831
909.878	16843
909.993	16778
910.108	16812
910.224	16668
910.339	16729
910.454	16713
910.57	16569
910.685	16485
910.8	16831
910.915	16755
911.03	16630
911.145	16428
911.259	16367
911.374	16394
911.489	16257
911.604	16276
911.718	16093
911.833	16177
911.947	16059
912.062	16006
912.176	16226
912.291	16158
912.405	16219
912.519	16192
912.633	16246
912.748	16139
912.862	16013
912.976	15895
913.09	15739
913.204	15831
913.318	15838
913.431	16067
913.545	15991
913.659	15941
913.772	15800
913.886	15793
914	15686
914.113	15789
914.226	15808
914.34	15732
914.453	15618
914.566	15724
914.68	15610
914.793	15469
914.906	15401
915.019	15313
915.132	15222
915.245	15439
915.358	15367
915.47	15393
915.583	15336
915.696	15428
915.809	15329
915.921	15447
916.034	15211
916.146	15260
916.259	15116
916.371	15188
916.483	15203
916.595	15146
916.708	15176
916.82	15104
916.932	15119
917.044	15089
917.156	15055
917.268	15009
917.38	14941
917.491	14929
917.603	14960
917.715	14963
917.826	15051
917.938	14834
918.049	14735
918.161	14906
918.272	15036
918.384	15017
918.495	14941
918.606	14735
918.717	14594
918.828	14773
918.939	14800
919.05	14522
919.161	14655
919.272	14537
919.383	14533
919.494	14636
919.604	14857
919.715	14697
919.826	14495
919.936	14613
920.047	14644
920.157	14689
920.267	14872
920.378	14613
920.488	14549
920.598	14861
920.708	14864
920.818	14708
920.928	14758
921.038	14781
921.148	14819
921.258	14537
921.368	14522
921.477	14362
921.587	14339
921.697	14233
921.806	14339
921.916	14180
922.025	14058
922.134	13970
922.244	13982
922.353	13974
922.462	13788
922.571	13788
922.68	13624
922.789	13556
922.898	13559
923.007	13472
923.116	13677
923.224	13552
923.333	13495
923.442	13373
923.55	13445
923.659	13468
923.767	13491
923.876	13285
923.984	13411
924.092	13327
924.201	13514
924.309	13327
924.417	13369
924.525	13225
924.633	13209
924.741	14024
924.849	13084
924.956	13091
925.064	13050
925.172	12935
925.279	13046
925.387	13023
925.494	13008
925.602	13065
925.709	13110
925.816	12924
925.924	12905
926.031	13103
926.138	12867
926.245	13038
926.352	12859
926.459	12966
926.566	13000
926.673	12928
926.779	12696
926.886	12719
926.993	12578
927.099	12604
927.206	12532
927.312	12563
927.419	12654
927.525	12532
927.631	12684
927.737	12483
927.843	12433
927.95	12281
928.056	12456
928.162	12388
928.267	12384
928.373	13050
928.479	12429
928.585	12140
928.69	12407
928.796	12323
928.901	12300
929.007	12106
929.112	12296
929.218	12159
929.323	12163
929.428	12129
929.533	12213
929.638	11958
929.743	12117
929.848	12140
929.953	12110
930.058	11851
930.163	11802
930.267	11824
930.372	11874
930.477	11714
930.581	11996
930.685	11813
930.79	11642
930.894	11748
930.998	11630
931.103	11737
931.207	11444
931.311	11288
931.415	11254
931.519	11006
931.623	11086
