Data from test_V78500241_2266.txt Node
Date: Fri Mar 25 15:57:29 CST 2022
User: usil
Spectrometer: V785-0024
Trigger mode: 0
Integration Time (sec): 4.000000E-1
Scans to average: 1
Nonlinearity correction enabled: false
Boxcar width: 0
Storing dark spectrum: false
XAxis mode: Wavelengths
Number of Pixels in Spectrum: 1024
>>>>>Begin Spectral Data<<<<<
801.071	29269
801.214	29345
801.356	28900
801.499	29003
801.641	28831
801.783	28809
801.926	28812
802.068	28809
802.211	28710
802.353	28771
802.496	28637
802.638	28599
802.78	28512
802.923	28557
803.065	28455
803.208	28375
803.35	28569
803.492	28725
803.635	28843
803.777	28649
803.919	28774
804.061	29109
804.204	28957
804.346	28828
804.488	28835
804.63	28828
804.773	28679
804.915	28888
805.057	29006
805.199	28790
805.341	28862
805.483	29014
805.626	29025
805.768	28835
805.91	29143
806.052	29121
806.194	29044
806.336	29170
806.478	28976
806.62	29029
806.762	29067
806.904	29372
807.046	29444
807.188	29459
807.33	29414
807.472	29490
807.614	29448
807.756	29334
807.898	29246
808.04	29258
808.182	29132
808.324	29421
808.465	29395
808.607	29600
808.749	29737
808.891	29741
809.033	29874
809.174	29729
809.316	29722
809.458	29874
809.6	29771
809.741	29840
809.883	29874
810.025	30003
810.166	30018
810.308	29999
810.45	29767
810.591	29984
810.733	29866
810.875	29707
811.016	29520
811.158	29638
811.299	29790
811.441	29851
811.582	29821
811.724	29783
811.865	29699
812.007	29733
812.148	29684
812.29	29775
812.431	29821
812.573	29958
812.714	30251
812.855	30239
812.997	30296
813.138	30445
813.279	30479
813.421	30319
813.562	30251
813.703	30194
813.845	29870
813.986	29691
814.127	29668
814.268	29429
814.41	29467
814.551	29433
814.692	29581
814.833	29478
814.974	29467
815.115	29414
815.256	29273
815.397	29322
815.539	29368
815.68	29398
815.821	29189
815.962	29391
816.103	29292
816.244	29208
816.385	29140
816.526	29056
816.666	28900
816.807	28767
816.948	28850
817.089	28984
817.23	28881
817.371	28771
817.512	28713
817.653	28672
817.793	28698
817.934	28759
818.075	28843
818.216	28828
818.356	28637
818.497	28759
818.638	28630
818.778	28569
818.919	28470
819.06	28694
819.2	28790
819.341	28927
819.481	28759
819.622	28892
819.762	29166
819.903	29132
820.043	28938
820.184	28976
820.324	28938
820.465	28873
820.605	28934
820.746	28771
820.886	28752
821.026	28923
821.167	28797
821.307	28816
821.447	28923
821.588	28755
821.728	28706
821.868	28508
822.008	28272
822.149	28211
822.289	28341
822.429	27972
822.569	28124
822.709	27956
822.849	27823
822.99	27789
823.13	27819
823.27	27751
823.41	27728
823.55	27526
823.69	27583
823.83	27557
823.97	27587
824.11	27420
824.25	27393
824.389	27340
824.529	27561
824.669	27439
824.809	27606
824.949	27576
825.089	27496
825.228	27420
825.368	27249
825.508	27268
825.648	27165
825.787	27340
825.927	27458
826.067	27340
826.206	27161
826.346	27401
826.485	27450
826.625	27378
826.765	27473
826.904	27329
827.044	27055
827.183	27085
827.323	26925
827.462	27146
827.601	26967
827.741	26975
827.88	27123
828.02	26902
828.159	26952
828.298	27119
828.437	27093
828.577	26990
828.716	27066
828.855	26982
828.994	26724
829.134	26689
829.273	26826
829.412	26777
829.551	26606
829.69	26743
829.829	26727
829.968	26769
830.107	26925
830.246	26769
830.385	26629
830.524	26602
830.663	26663
830.802	26469
830.941	26362
831.08	26351
831.219	26453
831.357	26381
831.496	26575
831.635	26351
831.774	26244
831.913	26290
832.051	26237
832.19	26191
832.329	26252
832.467	26043
832.606	25807
832.744	25978
832.883	26134
833.022	25963
833.16	26119
833.299	26046
833.437	25966
833.576	25993
833.714	26195
833.852	26111
833.991	26176
834.129	26282
834.267	26237
834.406	26005
834.544	26020
834.682	26005
834.821	26134
834.959	26221
835.097	26039
835.235	26157
835.373	26077
835.511	26001
835.65	25947
835.788	25811
835.926	25864
836.064	25616
836.202	25704
836.34	25932
836.478	25833
836.615	25890
836.753	25902
836.891	25871
837.029	25913
837.167	25887
837.305	25685
837.443	25639
837.58	25814
837.718	25784
837.856	25856
837.993	25765
838.131	25662
838.269	25460
838.406	25514
838.544	25578
838.681	25324
838.819	25392
838.956	25263
839.094	25240
839.231	25168
839.369	25411
839.506	25544
839.643	25419
839.781	25072
839.918	25137
840.055	25221
840.193	25034
840.33	25000
840.467	25015
840.604	25137
840.742	25293
840.879	24897
841.016	25027
841.153	25000
841.29	25122
841.427	25023
841.564	25076
841.701	24928
841.838	24981
841.975	24810
842.112	24989
842.249	24829
842.385	24833
842.522	25004
842.659	24890
842.796	24852
842.933	24954
843.069	24833
843.206	24715
843.343	24840
843.479	24783
843.616	24859
843.752	24669
843.889	24730
844.025	24741
844.162	24559
844.298	24570
844.435	24513
844.571	24555
844.708	24582
844.844	24764
844.98	24711
845.117	24639
845.253	24547
845.389	24407
845.525	24528
845.661	24566
845.798	24254
845.934	24407
846.07	24330
846.206	24330
846.342	24399
846.478	24182
846.614	24163
846.75	23954
846.886	24045
847.022	24110
847.158	24117
847.294	23980
847.429	24007
847.565	23897
847.701	24273
847.837	23718
847.972	23726
848.108	23779
848.244	23786
848.379	23630
848.515	23600
848.65	23589
848.786	23558
848.921	23596
849.057	23722
849.192	23676
849.328	23657
849.463	23634
849.598	23566
849.734	23455
849.869	23520
850.004	23444
850.14	23417
850.275	23303
850.41	23322
850.545	23356
850.68	23334
850.815	23444
850.95	23391
851.085	23436
851.22	23562
851.355	23471
851.49	23429
851.625	23311
851.76	23337
851.895	23307
852.03	23315
852.165	23448
852.299	23391
852.434	23570
852.569	23410
852.703	23391
852.838	23322
852.973	23493
853.107	23493
853.242	23334
853.376	23250
853.511	23166
853.645	23170
853.78	23398
853.914	23212
854.048	23140
854.183	23197
854.317	23022
854.451	23429
854.585	23109
854.72	23227
854.854	23288
854.988	23079
855.122	23200
855.256	23147
855.39	23170
855.524	23113
855.658	23265
855.792	23258
855.926	23181
856.06	23269
856.194	23261
856.327	23227
856.461	23056
856.595	23113
856.729	23094
856.862	23368
856.996	23136
857.13	23254
857.263	23383
857.397	23273
857.53	23185
857.664	23364
857.797	23200
857.931	23269
858.064	23220
858.197	23258
858.331	23003
858.464	23090
858.597	23033
858.731	23200
858.864	23174
858.997	23166
859.13	23265
859.263	22991
859.396	23239
859.529	23322
859.662	23197
859.795	23136
859.928	23227
860.061	23356
860.194	23330
860.327	23181
860.46	23220
860.592	23246
860.725	23429
860.858	23315
860.99	23254
861.123	23170
861.256	23166
861.388	23307
861.521	23809
861.653	23060
861.786	22961
861.918	22984
862.05	23208
862.183	23079
862.315	23181
862.447	23197
862.58	23242
862.712	22957
862.844	22927
862.976	22930
863.108	22953
863.24	23387
863.372	22889
863.504	22869
863.636	23037
863.768	22896
863.9	22885
864.032	22820
864.164	22812
864.296	23033
864.428	22927
864.559	22968
864.691	22938
864.823	22873
864.954	22850
865.086	22968
865.217	22729
865.349	22588
865.48	22786
865.612	22774
865.743	22896
865.875	22778
866.006	22702
866.137	22687
866.269	22847
866.4	22702
866.531	22725
866.662	22675
866.793	22653
866.924	22675
867.055	22767
867.186	22664
867.317	22767
867.448	22698
867.579	22626
867.71	22679
867.841	22535
867.972	22641
868.103	22641
868.233	22679
868.364	22660
868.495	22816
868.625	22858
868.756	23029
868.886	22862
869.017	22927
869.147	22991
869.278	22908
869.408	23014
869.539	22900
869.669	23006
869.799	22896
869.929	23041
870.06	23094
870.19	23136
870.32	23193
870.45	23318
870.58	23235
870.71	23356
870.84	23425
870.97	23239
871.1	23239
871.23	23512
871.36	23505
871.489	23383
871.619	23425
871.749	23638
871.879	23398
872.008	23722
872.138	23395
872.267	23493
872.397	23250
872.526	23334
872.656	23334
872.785	23376
872.915	23512
873.044	23570
873.173	23558
873.303	23581
873.432	23585
873.561	23634
873.69	23676
873.819	23554
873.948	23600
874.077	23589
874.206	23455
874.335	23509
874.464	23589
874.593	23802
874.722	23737
874.851	23756
874.979	23760
875.108	23726
875.237	23589
875.365	23531
875.494	23600
875.623	23722
875.751	23748
875.88	23672
876.008	23866
876.136	23847
876.265	24159
876.393	24235
876.521	24197
876.65	24281
876.778	24155
876.906	24064
877.034	24095
877.162	24117
877.29	24060
877.418	24053
877.546	24098
877.674	24114
877.802	24117
877.93	24155
878.058	23988
878.185	23870
878.313	23965
878.441	23969
878.568	23843
878.696	24095
878.824	24060
878.951	24129
879.079	24209
879.206	24270
879.333	24182
879.461	24068
879.588	24190
879.715	24300
879.842	24372
879.97	24072
880.097	23969
880.224	23786
880.351	24045
880.478	23927
880.605	23916
880.732	24003
880.859	24159
880.986	23908
881.112	23893
881.239	23771
881.366	23642
881.493	23558
881.619	23562
881.746	23364
881.872	23440
881.999	23379
882.125	23421
882.252	23364
882.378	23406
882.505	23528
882.631	23288
882.757	23155
882.883	23143
883.01	23174
883.136	23071
883.262	22923
883.388	23018
883.514	23022
883.64	23193
883.766	22991
883.892	22904
884.018	22892
884.143	23041
884.269	23170
884.395	22752
884.52	22729
884.646	22873
884.772	22615
884.897	22580
885.023	22782
885.148	22790
885.274	22869
885.399	22942
885.524	22786
885.65	22744
885.775	22816
885.9	22736
886.025	22778
886.15	22820
886.275	22664
886.4	22713
886.525	22706
886.65	22615
886.775	22569
886.9	22774
887.025	22812
887.149	22736
887.274	22607
887.399	22440
887.523	22504
887.648	22485
887.773	22371
887.897	22493
888.021	22379
888.146	22398
888.27	22599
888.395	22462
888.519	22459
888.643	22402
888.767	22618
888.891	22371
889.015	22257
889.139	22398
889.263	22265
889.387	22318
889.511	22478
889.635	22295
889.759	22341
889.883	22318
890.006	22238
890.13	22348
890.254	22242
890.377	22131
890.501	22059
890.624	21983
890.748	21987
890.871	21895
890.995	21865
891.118	21804
891.241	21709
891.364	21797
891.488	21926
891.611	21884
891.734	21762
891.857	21789
891.98	21800
892.103	21808
892.226	21854
892.349	21698
892.471	21583
892.594	21656
892.717	21675
892.839	21580
892.962	21739
893.085	21743
893.207	21603
893.33	21656
893.452	21561
893.575	21789
893.697	21660
893.819	21793
893.941	21884
894.064	21709
894.186	21652
894.308	21625
894.43	21743
894.552	21854
894.674	21629
894.796	21694
894.918	21603
895.04	21614
895.161	21686
895.283	21747
895.405	21595
895.526	21690
895.648	21553
895.769	21770
895.891	21720
896.012	21743
896.134	21728
896.255	21622
896.376	21603
896.498	21644
896.619	21698
896.74	21564
896.861	21701
896.982	22055
897.103	22101
897.224	21850
897.345	21895
897.466	21739
897.587	21781
897.708	21994
897.828	21983
897.949	21709
898.07	21766
898.19	21808
898.311	21838
898.431	21766
898.552	21857
898.672	21854
898.792	21983
898.913	21797
899.033	21781
899.153	21538
899.273	21454
899.393	21534
899.513	21618
899.633	21629
899.753	21622
899.873	21542
899.993	21534
900.113	21386
900.232	21477
900.352	21420
900.472	21351
900.591	21203
900.711	21363
900.83	21313
900.95	21454
901.069	21359
901.189	21119
901.308	20986
901.427	20941
901.546	20948
901.665	20895
901.784	20845
901.904	20739
902.023	20640
902.141	20518
902.26	20415
902.379	20434
902.498	20431
902.617	20278
902.735	20347
902.854	20385
902.973	20358
903.091	20081
903.21	20001
903.328	20054
903.446	19947
903.565	19689
903.683	19890
903.801	19693
903.919	19811
904.038	19757
904.156	19537
904.274	19708
904.392	19529
904.51	19594
904.627	19491
904.745	19563
904.863	19693
904.981	19476
905.098	19259
905.216	19187
905.334	19217
905.451	19274
905.569	19225
905.686	19278
905.803	19225
905.921	19023
906.038	19168
906.155	19000
906.272	18859
906.389	18996
906.506	18738
906.623	18738
906.74	18749
906.857	18620
906.974	18741
907.091	18810
907.208	18757
907.324	18783
907.441	18711
907.557	18483
907.674	18445
907.79	18483
907.907	18403
908.023	18422
908.139	18414
908.256	18353
908.372	18327
908.488	18334
908.604	18304
908.72	18216
908.836	18148
908.952	18083
909.068	18232
909.184	18197
909.3	18163
909.415	18201
909.531	18144
909.647	17908
909.762	17904
909.878	17870
909.993	17908
910.108	17813
910.224	17832
910.339	17756
910.454	17817
910.57	17600
910.685	17627
910.8	17950
910.915	17707
911.03	17539
911.145	17482
911.259	17410
911.374	17535
911.489	17303
911.604	17334
911.718	17166
911.833	17143
911.947	16972
912.062	16968
912.176	17147
912.291	17189
912.405	17208
912.519	17372
912.633	17280
912.748	17193
912.862	17170
912.976	16908
913.09	16843
913.204	16862
913.318	16942
913.431	16949
913.545	16980
913.659	17006
913.772	16873
913.886	16763
914	16736
914.113	16763
914.226	16835
914.34	16820
914.453	16611
914.566	16911
914.68	16710
914.793	16607
914.906	16394
915.019	16344
915.132	16207
915.245	16284
915.358	16360
915.47	16265
915.583	16303
915.696	16424
915.809	16508
915.921	16398
916.034	16177
916.146	16181
916.259	16169
916.371	16303
916.483	16166
916.595	16211
916.708	16139
916.82	16116
916.932	16116
917.044	16082
917.156	16048
917.268	15994
917.38	15964
917.491	15960
917.603	16029
917.715	15964
917.826	16090
917.938	15873
918.049	15770
918.161	15850
918.272	15960
918.384	15915
918.495	15869
918.606	15759
918.717	15614
918.828	15728
918.939	15800
919.05	15564
919.161	15652
919.272	15435
919.383	15538
919.494	15641
919.604	15823
919.715	15652
919.826	15534
919.936	15625
920.047	15637
920.157	15618
920.267	15789
920.378	15652
920.488	15587
920.598	15778
920.708	15937
920.818	15690
920.928	15701
921.038	15854
921.148	15854
921.258	15561
921.368	15374
921.477	15287
921.587	15283
921.697	15146
921.806	15283
921.916	15165
922.025	14948
922.134	14963
922.244	14975
922.353	14990
922.462	14838
922.571	14823
922.68	14579
922.789	14587
922.898	14625
923.007	14537
923.116	14571
923.224	14545
923.333	14507
923.442	14423
923.55	14366
923.659	14427
923.767	14404
923.876	14480
923.984	14370
924.092	14191
924.201	14294
924.309	14366
924.417	14278
924.525	14157
924.633	14161
924.741	14960
924.849	13970
924.956	14062
925.064	13936
925.172	13913
925.279	13955
925.387	13940
925.494	13849
925.602	14062
925.709	13917
925.816	13852
925.924	13887
926.031	13928
926.138	13883
926.245	13875
926.352	13814
926.459	13894
926.566	13841
926.673	13772
926.779	13662
926.886	13586
926.993	13582
927.099	13396
927.206	13426
927.312	13422
927.419	13525
927.525	13396
927.631	13438
927.737	13384
927.843	13209
927.95	13168
928.056	13381
928.162	13282
928.267	13324
928.373	14096
928.479	13301
928.585	13019
928.69	13179
928.796	13236
928.901	13065
929.007	13046
929.112	13042
929.218	13057
929.323	12970
929.428	12920
929.533	13019
929.638	12901
929.743	12894
929.848	12871
929.953	12943
930.058	12662
930.163	12597
930.267	12631
930.372	12772
930.477	12536
930.581	12802
930.685	12711
930.79	12547
930.894	12566
930.998	12414
931.103	12601
931.207	12266
931.311	12060
931.415	12098
931.519	11863
931.623	11798
