Data from test_V78500241_3099.txt Node
Date: Fri Mar 25 16:03:16 CST 2022
User: usil
Spectrometer: V785-0024
Trigger mode: 0
Integration Time (sec): 4.000000E-1
Scans to average: 1
Nonlinearity correction enabled: false
Boxcar width: 0
Storing dark spectrum: false
XAxis mode: Wavelengths
Number of Pixels in Spectrum: 1024
>>>>>Begin Spectral Data<<<<<
801.071	28455
801.214	28470
801.356	28265
801.499	28344
801.641	28029
801.783	28173
801.926	28013
802.068	28131
802.211	27937
802.353	27956
802.496	27945
802.638	27819
802.78	27823
802.923	27755
803.065	27564
803.208	27808
803.35	27804
803.492	27987
803.635	28021
803.777	27861
803.919	28074
804.061	28207
804.204	28124
804.346	28051
804.488	27926
804.63	27968
804.773	27914
804.915	27930
805.057	28192
805.199	28040
805.341	28112
805.483	28280
805.626	28070
805.768	28013
805.91	28143
806.052	28226
806.194	28166
806.336	28348
806.478	28025
806.62	27964
806.762	28409
806.904	28493
807.046	28702
807.188	28493
807.33	28618
807.472	28698
807.614	28519
807.756	28596
807.898	28459
808.04	28401
808.182	28360
808.324	28489
808.465	28409
808.607	28531
808.749	28725
808.891	28938
809.033	29075
809.174	28869
809.316	28881
809.458	28786
809.6	28866
809.741	28957
809.883	28942
810.025	29155
810.166	29105
810.308	29181
810.45	29071
810.591	28980
810.733	28755
810.875	28774
811.016	28828
811.158	28892
811.299	29006
811.441	29193
811.582	29029
811.724	28839
811.865	28752
812.007	28900
812.148	28847
812.29	28908
812.431	29102
812.573	29242
812.714	29303
812.855	29406
812.997	29493
813.138	29562
813.279	29383
813.421	29334
813.562	29208
813.703	29277
813.845	29079
813.986	28809
814.127	28675
814.268	28656
814.41	28592
814.551	28489
814.692	28542
814.833	28538
814.974	28500
815.115	28577
815.256	28489
815.397	28265
815.539	28443
815.68	28436
815.821	28169
815.962	28459
816.103	28280
816.244	28185
816.385	28162
816.526	28166
816.666	28036
816.807	28013
816.948	27945
817.089	27903
817.23	27960
817.371	27789
817.512	27911
817.653	27766
817.793	27751
817.934	27800
818.075	27854
818.216	27876
818.356	27918
818.497	27751
818.638	27705
818.778	27660
818.919	27637
819.06	27816
819.2	27785
819.341	27739
819.481	27800
819.622	27998
819.762	28215
819.903	28185
820.043	28135
820.184	28063
820.324	28086
820.465	28143
820.605	28059
820.746	27850
820.886	27892
821.026	27953
821.167	27983
821.307	27998
821.447	27876
821.588	27804
821.728	27660
821.868	27549
822.008	27412
822.149	27378
822.289	27382
822.429	27146
822.569	27032
822.709	26944
822.849	26743
822.99	26773
823.13	26956
823.27	26861
823.41	26655
823.55	26518
823.69	26777
823.83	26636
823.97	26693
824.11	26495
824.25	26396
824.389	26556
824.529	26552
824.669	26571
824.809	26686
824.949	26587
825.089	26621
825.228	26648
825.368	26393
825.508	26343
825.648	26408
825.787	26259
825.927	26362
826.067	26415
826.206	26336
826.346	26374
826.485	26400
826.625	26396
826.765	26655
826.904	26442
827.044	26237
827.183	26210
827.323	26039
827.462	26218
827.601	26157
827.741	25951
827.88	26138
828.02	26054
828.159	26005
828.298	26027
828.437	26317
828.577	26008
828.716	26191
828.855	26103
828.994	25883
829.134	25887
829.273	25909
829.412	25712
829.551	25681
829.69	25856
829.829	25761
829.968	25955
830.107	25826
830.246	25795
830.385	25826
830.524	25723
830.663	25632
830.802	25537
830.941	25312
831.08	25468
831.219	25449
831.357	25537
831.496	25601
831.635	25350
831.774	25232
831.913	25316
832.051	25259
832.19	25350
832.329	25217
832.467	25175
832.606	25076
832.744	24920
832.883	24973
833.022	25031
833.16	25076
833.299	25091
833.437	25122
833.576	25103
833.714	25099
833.852	25213
833.991	25282
834.129	25171
834.267	25122
834.406	25152
834.544	25263
834.682	25012
834.821	25110
834.959	25179
835.097	25042
835.235	25122
835.373	25122
835.511	25065
835.65	25050
835.788	24932
835.926	24814
836.064	24719
836.202	24882
836.34	24875
836.478	25061
836.615	24947
836.753	25084
836.891	25019
837.029	25027
837.167	24924
837.305	24932
837.443	24958
837.58	24768
837.718	24935
837.856	24764
837.993	24741
838.131	24886
838.269	24532
838.406	24726
838.544	24726
838.681	24323
838.819	24422
838.956	24475
839.094	24292
839.231	24262
839.369	24441
839.506	24544
839.643	24467
839.781	24327
839.918	24159
840.055	24327
840.193	24239
840.33	24205
840.467	24178
840.604	24152
840.742	24437
840.879	24068
841.016	24213
841.153	24106
841.29	24311
841.427	24220
841.564	24239
841.701	24155
841.838	24018
841.975	24030
842.112	24159
842.249	23935
842.385	23809
842.522	24239
842.659	24022
842.796	23931
842.933	23961
843.069	23863
843.206	24007
843.343	23977
843.479	23973
843.616	23843
843.752	23786
843.889	23756
844.025	23935
844.162	23790
844.298	23897
844.435	23638
844.571	23642
844.708	23836
844.844	23836
844.98	23885
845.117	23874
845.253	23703
845.389	23512
845.525	23516
845.661	23570
845.798	23471
845.934	23516
846.07	23429
846.206	23524
846.342	23448
846.478	23311
846.614	23284
846.75	23273
846.886	23162
847.022	23223
847.158	23387
847.294	23079
847.429	23197
847.565	23269
847.701	23448
847.837	22972
847.972	22930
848.108	22885
848.244	22911
848.379	22816
848.515	22820
848.65	22854
848.786	22733
848.921	22717
849.057	22869
849.192	22881
849.328	22771
849.463	22858
849.598	22763
849.734	22771
849.869	22599
850.004	22504
850.14	22611
850.275	22573
850.41	22557
850.545	22424
850.68	22516
850.815	22596
850.95	22516
851.085	22664
851.22	22592
851.355	22512
851.49	22615
851.625	22557
851.76	22512
851.895	22417
852.03	22436
852.165	22596
852.299	22527
852.434	22580
852.569	22592
852.703	22523
852.838	22599
852.973	22771
853.107	22664
853.242	22478
853.376	22348
853.511	22226
853.645	22318
853.78	22360
853.914	22272
854.048	22329
854.183	22348
854.317	22375
854.451	22462
854.585	22291
854.72	22291
854.854	22386
854.988	22318
855.122	22356
855.256	22242
855.39	22360
855.524	22459
855.658	22500
855.792	22390
855.926	22409
856.06	22409
856.194	22481
856.327	22519
856.461	22246
856.595	22382
856.729	22481
856.862	22481
856.996	22375
857.13	22356
857.263	22443
857.397	22459
857.53	22379
857.664	22375
857.797	22356
857.931	22462
858.064	22226
858.197	22569
858.331	22421
858.464	22348
858.597	22211
858.731	22337
858.864	22375
858.997	22322
859.13	22352
859.263	22360
859.396	22447
859.529	22280
859.662	22466
859.795	22230
859.928	22356
860.061	22531
860.194	22683
860.327	22443
860.46	22318
860.592	22493
860.725	22493
860.858	22519
860.99	22382
861.123	22382
861.256	22303
861.388	22318
861.521	22930
861.653	22268
861.786	22135
861.918	22185
862.05	22207
862.183	22234
862.315	22356
862.447	22402
862.58	22329
862.712	22105
862.844	22105
862.976	22173
863.108	22063
863.24	22561
863.372	22219
863.504	22131
863.636	22036
863.768	22082
863.9	22135
864.032	22006
864.164	21953
864.296	22093
864.428	22166
864.559	22131
864.691	22051
864.823	22078
864.954	22169
865.086	21945
865.217	22048
865.349	21850
865.48	21884
865.612	21918
865.743	22128
865.875	22025
866.006	21953
866.137	21968
866.269	21903
866.4	21964
866.531	21949
866.662	21895
866.793	21983
866.924	21804
867.055	21926
867.186	21937
867.317	21865
867.448	21869
867.579	21816
867.71	21766
867.841	21751
867.972	21937
868.103	21762
868.233	21972
868.364	21918
868.495	22082
868.625	22147
868.756	22177
868.886	22162
869.017	22025
869.147	22192
869.278	22211
869.408	22135
869.539	22086
869.669	22196
869.799	22173
869.929	22272
870.06	22242
870.19	22360
870.32	22405
870.45	22447
870.58	22489
870.71	22561
870.84	22478
870.97	22538
871.1	22531
871.23	22672
871.36	22672
871.489	22622
871.619	22729
871.749	22790
871.879	22687
872.008	22908
872.138	22767
872.267	22740
872.397	22649
872.526	22573
872.656	22535
872.785	22596
872.915	22854
873.044	22755
873.173	22752
873.303	22820
873.432	22786
873.561	22820
873.69	22729
873.819	22816
873.948	22774
874.077	22694
874.206	22713
874.335	22816
874.464	22812
874.593	23105
874.722	22968
874.851	22991
874.979	22889
875.108	22953
875.237	22949
875.365	22881
875.494	22930
875.623	23052
875.751	22904
875.88	22980
876.008	23140
876.136	23094
876.265	23337
876.393	23497
876.521	23433
876.65	23471
876.778	23212
876.906	23341
877.034	23372
877.162	23284
877.29	23200
877.418	23284
877.546	23296
877.674	23280
877.802	23341
877.93	23288
878.058	23261
878.185	23250
878.313	23356
878.441	23318
878.568	23105
878.696	23193
878.824	23288
878.951	23379
879.079	23497
879.206	23551
879.333	23528
879.461	23220
879.588	23292
879.715	23379
879.842	23551
879.97	23402
880.097	23136
880.224	23094
880.351	23117
880.478	23216
880.605	23128
880.732	23124
880.859	23277
880.986	23128
881.112	23113
881.239	22991
881.366	22877
881.493	22828
881.619	22611
881.746	22816
881.872	22733
881.999	22763
882.125	22592
882.252	22679
882.378	22596
882.505	22774
882.631	22546
882.757	22398
882.883	22417
883.01	22379
883.136	22177
883.262	22211
883.388	22139
883.514	22348
883.64	22474
883.766	22257
883.892	22173
884.018	22200
884.143	22318
884.269	22440
884.395	21968
884.52	21991
884.646	21998
884.772	21964
884.897	21918
885.023	21998
885.148	22097
885.274	22124
885.399	22086
885.524	22044
885.65	22101
885.775	22025
885.9	22017
886.025	22044
886.15	22128
886.275	22048
886.4	21907
886.525	22010
886.65	21869
886.775	21778
886.9	22086
887.025	22147
887.149	21892
887.274	21808
887.399	21778
887.523	21850
887.648	21812
887.773	21599
887.897	21876
888.021	21732
888.146	21724
888.27	21835
888.395	21876
888.519	21766
888.643	21686
888.767	21793
888.891	21644
889.015	21519
889.139	21648
889.263	21496
889.387	21618
889.511	21736
889.635	21553
889.759	21466
889.883	21469
890.006	21663
890.13	21641
890.254	21431
890.377	21561
890.501	21241
890.624	21169
890.748	21359
890.871	21138
890.995	21169
891.118	20956
891.241	21017
891.364	21108
891.488	21188
891.611	21100
891.734	21039
891.857	21188
891.98	21058
892.103	21203
892.226	21108
892.349	21039
892.471	20910
892.594	21066
892.717	20956
892.839	20956
892.962	21024
893.085	20944
893.207	20967
893.33	20864
893.452	20982
893.575	21017
893.697	20929
893.819	21104
893.941	21203
894.064	21176
894.186	20937
894.308	20796
894.43	21005
894.552	21173
894.674	21093
894.796	20781
894.918	21017
895.04	20914
895.161	21062
895.283	21039
895.405	20891
895.526	20967
895.648	20880
895.769	20990
895.891	21013
896.012	21127
896.134	20982
896.255	21020
896.376	20834
896.498	21017
896.619	21165
896.74	21051
896.861	20921
896.982	21241
897.103	21447
897.224	21195
897.345	21157
897.466	21176
897.587	21203
897.708	21310
897.828	21241
897.949	21135
898.07	21028
898.19	21116
898.311	21233
898.431	21142
898.552	21173
898.672	21142
898.792	21344
898.913	21138
899.033	21055
899.153	21066
899.273	20948
899.393	20918
899.513	20944
899.633	21005
899.753	20842
899.873	20773
899.993	20891
900.113	20861
900.232	20826
900.352	20800
900.472	20720
900.591	20579
900.711	20579
900.83	20552
900.95	20796
901.069	20758
901.189	20587
901.308	20347
901.427	20206
901.546	20252
901.665	20233
901.784	20229
901.904	20111
902.023	19997
902.141	19830
902.26	19742
902.379	19902
902.498	19681
902.617	19681
902.735	19856
902.854	19666
902.973	19746
903.091	19476
903.21	19419
903.328	19377
903.446	19377
903.565	19129
903.683	19327
903.801	19088
903.919	19107
904.038	19206
904.156	18954
904.274	19065
904.392	18878
904.51	18821
904.627	18905
904.745	19069
904.863	18977
904.981	18890
905.098	18677
905.216	18696
905.334	18604
905.451	18700
905.569	18582
905.686	18711
905.803	18646
905.921	18391
906.038	18506
906.155	18559
906.272	18140
906.389	18330
906.506	18152
906.623	18209
906.74	18136
906.857	17965
906.974	18076
907.091	18277
907.208	18228
907.324	18125
907.441	18015
907.557	17977
907.674	17798
907.79	17859
907.907	17783
908.023	17843
908.139	17904
908.256	17885
908.372	17653
908.488	17718
908.604	17691
908.72	17592
908.836	17604
908.952	17448
909.068	17630
909.184	17642
909.3	17509
909.415	17752
909.531	17573
909.647	17280
909.762	17368
909.878	17216
909.993	17212
910.108	17242
910.224	17242
910.339	17261
910.454	17102
910.57	17083
910.685	16965
910.8	17299
910.915	17235
911.03	17064
911.145	16858
911.259	16793
911.374	16820
911.489	16843
911.604	16710
911.718	16584
911.833	16645
911.947	16405
912.062	16409
912.176	16577
912.291	16672
912.405	16637
912.519	16725
912.633	16847
912.748	16630
912.862	16554
912.976	16428
913.09	16337
913.204	16413
913.318	16299
913.431	16580
913.545	16455
913.659	16436
913.772	16329
913.886	16196
914	16173
914.113	16226
914.226	16390
914.34	16299
914.453	16230
914.566	16188
914.68	16093
914.793	16021
914.906	15812
915.019	15762
915.132	15671
915.245	15682
915.358	15819
915.47	15739
915.583	15785
915.696	15800
915.809	15922
915.921	15934
916.034	15732
916.146	15667
916.259	15660
916.371	15770
916.483	15743
916.595	15603
916.708	15637
916.82	15538
916.932	15526
917.044	15538
917.156	15580
917.268	15420
917.38	15462
917.491	15321
917.603	15397
917.715	15351
917.826	15496
917.938	15344
918.049	15214
918.161	15428
918.272	15488
918.384	15382
918.495	15355
918.606	15222
918.717	15104
918.828	15154
918.939	15154
919.05	15024
919.161	15169
919.272	14941
919.383	14982
919.494	15192
919.604	15260
919.715	15176
919.826	15100
919.936	15047
920.047	15241
920.157	15195
920.267	15264
920.378	15123
920.488	15032
920.598	15180
920.708	15397
920.818	15260
920.928	15226
921.038	15412
921.148	15291
921.258	15058
921.368	14941
921.477	14876
921.587	14769
921.697	14670
921.806	14853
921.916	14594
922.025	14480
922.134	14465
922.244	14450
922.353	14457
922.462	14370
922.571	14317
922.68	14214
922.789	14123
922.898	14145
923.007	14069
923.116	14191
923.224	14001
923.333	14046
923.442	13947
923.55	13871
923.659	13932
923.767	13936
923.876	13860
923.984	13906
924.092	13750
924.201	13761
924.309	13776
924.417	13833
924.525	13746
924.633	13753
924.741	14587
924.849	13552
924.956	13636
925.064	13533
925.172	13403
925.279	13556
925.387	13548
925.494	13578
925.602	13563
925.709	13578
925.816	13324
925.924	13343
926.031	13460
926.138	13464
926.245	13563
926.352	13194
926.459	13400
926.566	13525
926.673	13434
926.779	13160
926.886	13160
926.993	13065
927.099	13076
927.206	12973
927.312	13057
927.419	13103
927.525	12970
927.631	13099
927.737	12783
927.843	12817
927.95	12757
928.056	12878
928.162	12856
928.267	12856
928.373	13430
928.479	12795
928.585	12642
928.69	12795
928.796	12798
928.901	12677
929.007	12540
929.112	12719
929.218	12627
929.323	12544
929.428	12528
929.533	12692
929.638	12513
929.743	12509
929.848	12593
929.953	12555
930.058	12399
930.163	12289
930.267	12247
930.372	12369
930.477	12159
930.581	12300
930.685	12197
930.79	12117
930.894	12117
930.998	12072
931.103	12239
931.207	11805
931.311	11802
931.415	11661
931.519	11429
931.623	11501
