Data from test_V78500241_1545.txt Node
Date: Fri Mar 25 15:52:30 CST 2022
User: usil
Spectrometer: V785-0024
Trigger mode: 0
Integration Time (sec): 4.000000E-1
Scans to average: 1
Nonlinearity correction enabled: false
Boxcar width: 0
Storing dark spectrum: false
XAxis mode: Wavelengths
Number of Pixels in Spectrum: 1024
>>>>>Begin Spectral Data<<<<<
801.071	27591
801.214	27622
801.356	27313
801.499	27351
801.641	27291
801.783	27043
801.926	27218
802.068	27055
802.211	27123
802.353	27005
802.496	26899
802.638	26883
802.78	26804
802.923	26796
803.065	26788
803.208	26727
803.35	26933
803.492	26963
803.635	26986
803.777	26823
803.919	26929
804.061	27302
804.204	26975
804.346	26857
804.488	26940
804.63	26944
804.773	26876
804.915	26929
805.057	27161
805.199	27104
805.341	27077
805.483	27302
805.626	27116
805.768	27009
805.91	27119
806.052	27150
806.194	27055
806.336	27218
806.478	27260
806.62	27226
806.762	27233
806.904	27405
807.046	27504
807.188	27481
807.33	27397
807.472	27507
807.614	27519
807.756	27511
807.898	27310
808.04	27268
808.182	27424
808.324	27405
808.465	27378
808.607	27633
808.749	27785
808.891	27705
809.033	27949
809.174	27869
809.316	27705
809.458	27743
809.6	27713
809.741	27907
809.883	27876
810.025	27914
810.166	28082
810.308	27937
810.45	27926
810.591	27865
810.733	27759
810.875	27713
811.016	27751
811.158	27652
811.299	27808
811.441	27895
811.582	27960
811.724	27800
811.865	27827
812.007	27751
812.148	27755
812.29	27766
812.431	27899
812.573	28147
812.714	28158
812.855	28177
812.997	28333
813.138	28310
813.279	28253
813.421	28333
813.562	28162
813.703	27994
813.845	27797
813.986	27667
814.127	27679
814.268	27553
814.41	27386
814.551	27401
814.692	27523
814.833	27332
814.974	27291
815.115	27439
815.256	27233
815.397	27218
815.539	27370
815.68	27146
815.821	27119
815.962	27169
816.103	27104
816.244	26956
816.385	27135
816.526	26990
816.666	26811
816.807	26724
816.948	26705
817.089	26971
817.23	26743
817.371	26716
817.512	26762
817.653	26590
817.793	26716
817.934	26708
818.075	26663
818.216	26701
818.356	26522
818.497	26651
818.638	26492
818.778	26419
818.919	26476
819.06	26419
819.2	26495
819.341	26754
819.481	26686
819.622	26956
819.762	27135
819.903	26933
820.043	26986
820.184	26963
820.324	26720
820.465	26849
820.605	26762
820.746	26705
820.886	26560
821.026	26762
821.167	26750
821.307	26758
821.447	26663
821.588	26537
821.728	26518
821.868	26282
822.008	26210
822.149	26259
822.289	26069
822.429	25997
822.569	25871
822.709	25830
822.849	25674
822.99	25624
823.13	25799
823.27	25624
823.41	25518
823.55	25419
823.69	25514
823.83	25658
823.97	25514
824.11	25297
824.25	25217
824.389	25213
824.529	25358
824.669	25369
824.809	25514
824.949	25365
825.089	25362
825.228	25339
825.368	25145
825.508	25217
825.648	25179
825.787	25156
825.927	25320
826.067	25240
826.206	25145
826.346	25274
826.485	25320
826.625	25156
826.765	25164
826.904	25240
827.044	25152
827.183	25012
827.323	24875
827.462	24856
827.601	24878
827.741	24844
827.88	24905
828.02	24783
828.159	24856
828.298	24916
828.437	24886
828.577	24833
828.716	24966
828.855	24852
828.994	24722
829.134	24692
829.273	24692
829.412	24601
829.551	24525
829.69	24566
829.829	24525
829.968	24730
830.107	24574
830.246	24536
830.385	24509
830.524	24650
830.663	24300
830.802	24220
830.941	24167
831.08	24136
831.219	24182
831.357	24270
831.496	24410
831.635	24148
831.774	24171
831.913	24049
832.051	24003
832.19	24140
832.329	24064
832.467	23809
832.606	23745
832.744	23676
832.883	23790
833.022	23764
833.16	23897
833.299	23859
833.437	23920
833.576	23901
833.714	23988
833.852	23954
833.991	23916
834.129	23988
834.267	24007
834.406	23794
834.544	23847
834.682	23992
834.821	23901
834.959	24030
835.097	23878
835.235	24015
835.373	23863
835.511	23847
835.65	23882
835.788	23786
835.926	23627
836.064	23638
836.202	23657
836.34	23813
836.478	23859
836.615	23745
836.753	23790
836.891	23828
837.029	23707
837.167	23699
837.305	23634
837.443	23604
837.58	23516
837.718	23684
837.856	23615
837.993	23589
838.131	23668
838.269	23459
838.406	23543
838.544	23311
838.681	23159
838.819	23379
838.956	23159
839.094	23064
839.231	22999
839.369	23261
839.506	23372
839.643	23235
839.781	23056
839.918	23029
840.055	22949
840.193	23083
840.33	22999
840.467	23044
840.604	23052
840.742	23246
840.879	22892
841.016	22927
841.153	22831
841.29	23033
841.427	22892
841.564	23037
841.701	22854
841.838	22972
841.975	22976
842.112	22889
842.249	22782
842.385	22767
842.522	22889
842.659	22812
842.796	22706
842.933	22645
843.069	22675
843.206	22641
843.343	22744
843.479	22687
843.616	22755
843.752	22497
843.889	22417
844.025	22554
844.162	22478
844.298	22554
844.435	22409
844.571	22443
844.708	22645
844.844	22508
844.98	22710
845.117	22557
845.253	22428
845.389	22325
845.525	22363
845.661	22291
845.798	22185
845.934	22344
846.07	22257
846.206	22246
846.342	22363
846.478	22192
846.614	22101
846.75	22059
846.886	21998
847.022	22070
847.158	21941
847.294	21983
847.429	22029
847.565	21861
847.701	22124
847.837	21736
847.972	21682
848.108	21819
848.244	21785
848.379	21564
848.515	21595
848.65	21553
848.786	21538
848.921	21572
849.057	21713
849.192	21724
849.328	21625
849.463	21679
849.598	21576
849.734	21526
849.869	21374
850.004	21382
850.14	21332
850.275	21458
850.41	21214
850.545	21184
850.68	21245
850.815	21287
850.95	21245
851.085	21481
851.22	21298
851.355	21401
851.49	21348
851.625	21344
851.76	21264
851.895	21237
852.03	21237
852.165	21359
852.299	21336
852.434	21298
852.569	21408
852.703	21294
852.838	21428
852.973	21393
853.107	21401
853.242	21207
853.376	21192
853.511	21096
853.645	21055
853.78	21169
853.914	21142
854.048	21199
854.183	21184
854.317	21230
854.451	21374
854.585	21188
854.72	21093
854.854	21287
854.988	21108
855.122	21218
855.256	21062
855.39	21024
855.524	21336
855.658	21127
855.792	21260
855.926	21245
856.06	21241
856.194	21119
856.327	21252
856.461	21017
856.595	21085
856.729	21135
856.862	21340
856.996	21165
857.13	21249
857.263	21241
857.397	21245
857.53	21214
857.664	21195
857.797	21176
857.931	21192
858.064	21211
858.197	21313
858.331	21218
858.464	21214
858.597	20986
858.731	21108
858.864	21119
858.997	21017
859.13	21119
859.263	21192
859.396	21355
859.529	21100
859.662	21104
859.795	21009
859.928	21230
860.061	21401
860.194	21344
860.327	21256
860.46	21169
860.592	21245
860.725	21287
860.858	21230
860.99	21058
861.123	21081
861.256	21161
861.388	21070
861.521	21633
861.653	20994
861.786	20982
861.918	21017
862.05	21085
862.183	20998
862.315	21032
862.447	21291
862.58	21135
862.712	20781
862.844	20899
862.976	20883
863.108	20979
863.24	21199
863.372	20834
863.504	20708
863.636	20963
863.768	20872
863.9	20937
864.032	20800
864.164	20883
864.296	20838
864.428	21020
864.559	20944
864.691	20918
864.823	20918
864.954	20876
865.086	20785
865.217	20716
865.349	20720
865.48	20807
865.612	20781
865.743	20925
865.875	20842
866.006	20708
866.137	20724
866.269	20769
866.4	20777
866.531	20819
866.662	20640
866.793	20648
866.924	20815
867.055	20861
867.186	20800
867.317	20735
867.448	20632
867.579	20705
867.71	20583
867.841	20746
867.972	20705
868.103	20811
868.233	20754
868.364	20663
868.495	20754
868.625	20994
868.756	21070
868.886	20929
869.017	20956
869.147	21096
869.278	21032
869.408	20918
869.539	20979
869.669	21127
869.799	21020
869.929	21062
870.06	20971
870.19	21291
870.32	21230
870.45	21340
870.58	21260
870.71	21389
870.84	21458
870.97	21294
871.1	21313
871.23	21492
871.36	21549
871.489	21401
871.619	21641
871.749	21469
871.879	21538
872.008	21606
872.138	21549
872.267	21530
872.397	21477
872.526	21336
872.656	21408
872.785	21325
872.915	21511
873.044	21587
873.173	21610
873.303	21671
873.432	21591
873.561	21629
873.69	21622
873.819	21549
873.948	21694
874.077	21599
874.206	21481
874.335	21557
874.464	21717
874.593	21778
874.722	21797
874.851	21854
874.979	21831
875.108	21926
875.237	21759
875.365	21728
875.494	21778
875.623	21808
875.751	21781
875.88	21800
876.008	21842
876.136	21888
876.265	22124
876.393	22344
876.521	22226
876.65	22337
876.778	22257
876.906	22158
877.034	22112
877.162	22211
877.29	22147
877.418	22082
877.546	22139
877.674	22063
877.802	22070
877.93	22226
878.058	22090
878.185	21907
878.313	22086
878.441	22112
878.568	21922
878.696	22044
878.824	22173
878.951	22169
879.079	22238
879.206	22436
879.333	22261
879.461	22295
879.588	22253
879.715	22318
879.842	22348
879.97	22268
880.097	21960
880.224	22032
880.351	21983
880.478	21991
880.605	21991
880.732	21899
880.859	22272
880.986	22029
881.112	21968
881.239	21884
881.366	21747
881.493	21663
881.619	21606
881.746	21515
881.872	21701
881.999	21526
882.125	21420
882.252	21542
882.378	21542
882.505	21713
882.631	21443
882.757	21412
882.883	21424
883.01	21230
883.136	21207
883.262	21169
883.388	21043
883.514	21192
883.64	21291
883.766	21070
883.892	21043
884.018	21024
884.143	21214
884.269	21180
884.395	20982
884.52	20811
884.646	20785
884.772	20880
884.897	20868
885.023	20921
885.148	20929
885.274	20963
885.399	20785
885.524	20941
885.65	20826
885.775	20739
885.9	20902
886.025	20956
886.15	20948
886.275	20792
886.4	20750
886.525	20994
886.65	20826
886.775	20800
886.9	21051
887.025	21127
887.149	20788
887.274	20792
887.399	20648
887.523	20621
887.648	20686
887.773	20507
887.897	20724
888.021	20697
888.146	20598
888.27	20731
888.395	20674
888.519	20670
888.643	20632
888.767	20754
888.891	20659
889.015	20492
889.139	20450
889.263	20454
889.387	20499
889.511	20712
889.635	20640
889.759	20469
889.883	20450
890.006	20473
890.13	20431
890.254	20351
890.377	20366
890.501	20172
890.624	20256
890.748	20210
890.871	20084
890.995	20103
891.118	19868
891.241	20069
891.364	20062
891.488	20164
891.611	19967
891.734	20043
891.857	20043
891.98	20088
892.103	20043
892.226	20115
892.349	19894
892.471	19875
892.594	20016
892.717	19986
892.839	20039
892.962	19913
893.085	20020
893.207	19913
893.33	19894
893.452	19906
893.575	20001
893.697	20012
893.819	20073
893.941	20081
894.064	20142
894.186	19791
894.308	19830
894.43	20054
894.552	20062
894.674	20035
894.796	19837
894.918	19917
895.04	19932
895.161	20050
895.283	19921
895.405	19833
895.526	19947
895.648	19921
895.769	20077
895.891	19959
896.012	20157
896.134	19936
896.255	20031
896.376	19936
896.498	19875
896.619	20020
896.74	20027
896.861	20073
896.982	20244
897.103	20457
897.224	20252
897.345	20130
897.466	20176
897.587	20145
897.708	20256
897.828	20172
897.949	20168
898.07	19993
898.19	20126
898.311	20259
898.431	20199
898.552	20134
898.672	20362
898.792	20259
898.913	20225
899.033	20065
899.153	20016
899.273	19921
899.393	19936
899.513	20054
899.633	19967
899.753	19883
899.873	19837
899.993	19959
900.113	19868
900.232	19989
900.352	19811
900.472	19818
900.591	19704
900.711	19635
900.83	19666
900.95	19791
901.069	19799
901.189	19708
901.308	19331
901.427	19415
901.546	19426
901.665	19392
901.784	19278
901.904	19179
902.023	19042
902.141	18920
902.26	18776
902.379	18996
902.498	18837
902.617	18753
902.735	18852
902.854	18719
902.973	18738
903.091	18486
903.21	18540
903.328	18464
903.446	18422
903.565	18372
903.683	18311
903.801	18129
903.919	18251
904.038	18243
904.156	18114
904.274	18091
904.392	17999
904.51	18053
904.627	18068
904.745	18140
904.863	18057
904.981	17840
905.098	17756
905.216	17726
905.334	17783
905.451	17828
905.569	17760
905.686	17783
905.803	17748
905.921	17474
906.038	17668
906.155	17505
906.272	17330
906.389	17417
906.506	17269
906.623	17311
906.74	17227
906.857	17166
906.974	17109
907.091	17341
907.208	17269
907.324	17288
907.441	17140
907.557	16976
907.674	16961
907.79	16968
907.907	17006
908.023	16953
908.139	17003
908.256	16946
908.372	16896
908.488	16904
908.604	16694
908.72	16630
908.836	16805
908.952	16637
909.068	16611
909.184	16752
909.3	16679
909.415	16740
909.531	16729
909.647	16462
909.762	16440
909.878	16417
909.993	16405
910.108	16432
910.224	16413
910.339	16379
910.454	16386
910.57	16131
910.685	16265
910.8	16375
910.915	16382
911.03	16173
911.145	15964
911.259	16021
911.374	16006
911.489	15899
911.604	15903
911.718	15774
911.833	15724
911.947	15701
912.062	15614
912.176	15694
912.291	15766
912.405	15789
912.519	15857
912.633	15987
912.748	15922
912.862	15724
912.976	15606
913.09	15435
913.204	15466
913.318	15576
913.431	15755
913.545	15701
913.659	15755
913.772	15507
913.886	15386
914	15321
914.113	15462
914.226	15511
914.34	15507
914.453	15336
914.566	15386
914.68	15249
914.793	15173
914.906	14998
915.019	14944
915.132	14880
915.245	14975
915.358	15039
915.47	14998
915.583	14944
915.696	15043
915.809	15097
915.921	15066
916.034	14899
916.146	14902
916.259	14769
916.371	14975
916.483	14830
916.595	14937
916.708	14716
916.82	14830
916.932	14883
917.044	14724
917.156	14819
917.268	14617
917.38	14659
917.491	14644
917.603	14648
917.715	14727
917.826	14640
917.938	14537
918.049	14537
918.161	14571
918.272	14625
918.384	14731
918.495	14583
918.606	14404
918.717	14381
918.828	14415
918.939	14503
919.05	14290
919.161	14374
919.272	14161
919.383	14298
919.494	14427
919.604	14514
919.715	14385
919.826	14309
919.936	14362
920.047	14484
920.157	14362
920.267	14541
920.378	14336
920.488	14366
920.598	14598
920.708	14575
920.818	14442
920.928	14511
921.038	14625
921.148	14625
921.258	14275
921.368	14324
921.477	14119
921.587	14088
921.697	13989
921.806	14161
921.916	13917
922.025	13852
922.134	13712
922.244	13594
922.353	13696
922.462	13636
922.571	13552
922.68	13483
922.789	13438
922.898	13422
923.007	13362
923.116	13453
923.224	13362
923.333	13480
923.442	13263
923.55	13354
923.659	13206
923.767	13285
923.876	13137
923.984	13232
924.092	13095
924.201	13225
924.309	13209
924.417	13095
924.525	13012
924.633	13179
924.741	14039
924.849	12764
924.956	12977
925.064	12867
925.172	12810
925.279	12764
925.387	12863
925.494	12787
925.602	12973
925.709	12932
925.816	12688
925.924	12783
926.031	12901
926.138	12829
926.245	12867
926.352	12719
926.459	12943
926.566	12810
926.673	12662
926.779	12563
926.886	12502
926.993	12376
927.099	12467
927.206	12342
927.312	12376
927.419	12441
927.525	12365
927.631	12445
927.737	12285
927.843	12224
927.95	12175
928.056	12289
928.162	12220
928.267	12365
928.373	12962
928.479	12304
928.585	12057
928.69	12148
928.796	12281
928.901	12133
929.007	11977
929.112	12079
929.218	12110
929.323	12019
929.428	11908
929.533	12026
929.638	11942
929.743	11923
929.848	11984
929.953	11882
930.058	11798
930.163	11695
930.267	11695
930.372	11748
930.477	11577
930.581	11737
930.685	11676
930.79	11562
930.894	11619
930.998	11592
931.103	11535
931.207	11280
931.311	11132
931.415	11010
931.519	10946
931.623	10968
