Data from test_V78500241_8.txt Node
Date: Fri Mar 25 15:41:51 CST 2022
User: usil
Spectrometer: V785-0024
Trigger mode: 0
Integration Time (sec): 4.000000E-1
Scans to average: 1
Nonlinearity correction enabled: false
Boxcar width: 0
Storing dark spectrum: false
XAxis mode: Wavelengths
Number of Pixels in Spectrum: 1024
>>>>>Begin Spectral Data<<<<<
801.071	27214
801.214	27119
801.356	26769
801.499	26838
801.641	26484
801.783	26457
801.926	26590
802.068	26453
802.211	26476
802.353	26560
802.496	26183
802.638	26138
802.78	26039
802.923	25989
803.065	25951
803.208	25986
803.35	26107
803.492	26065
803.635	26115
803.777	26058
803.919	26050
804.061	26461
804.204	26115
804.346	26012
804.488	25902
804.63	25913
804.773	25833
804.915	25940
805.057	26039
805.199	26020
805.341	25986
805.483	26043
805.626	26115
805.768	26005
805.91	26107
806.052	26180
806.194	26054
806.336	26267
806.478	26035
806.62	25928
806.762	26126
806.904	26202
807.046	26412
807.188	26309
807.33	26419
807.472	26461
807.614	26271
807.756	26225
807.898	26119
808.04	25997
808.182	25883
808.324	26126
808.465	26111
808.607	26153
808.749	26434
808.891	26583
809.033	26533
809.174	26396
809.316	26358
809.458	26396
809.6	26457
809.741	26541
809.883	26507
810.025	26583
810.166	26609
810.308	26644
810.45	26739
810.591	26541
810.733	26320
810.875	26244
811.016	26218
811.158	26202
811.299	26404
811.441	26453
811.582	26446
811.724	26237
811.865	26347
812.007	26275
812.148	26290
812.29	26191
812.431	26484
812.573	26632
812.714	26689
812.855	26785
812.997	26762
813.138	27085
813.279	27051
813.421	26849
813.562	26773
813.703	26625
813.845	26438
813.986	26237
814.127	25917
814.268	25852
814.41	25864
814.551	25826
814.692	26062
814.833	25677
814.974	25761
815.115	25803
815.256	25715
815.397	25582
815.539	25586
815.68	25548
815.821	25533
815.962	25556
816.103	25533
816.244	25343
816.385	25274
816.526	25187
816.666	25160
816.807	25050
816.948	24928
817.089	25000
817.23	25076
817.371	24909
817.512	24924
817.653	24977
817.793	24901
817.934	24867
818.075	24867
818.216	24791
818.356	24776
818.497	24837
818.638	24612
818.778	24589
818.919	24498
819.06	24479
819.2	24711
819.341	24707
819.481	24753
819.622	24977
819.762	24970
819.903	24996
820.043	25000
820.184	24719
820.324	24867
820.465	25004
820.605	24837
820.746	24700
820.886	24635
821.026	24745
821.167	24768
821.307	24760
821.447	24734
821.588	24578
821.728	24498
821.868	24365
822.008	24167
822.149	24182
822.289	24144
822.429	23874
822.569	23847
822.709	23802
822.849	23615
822.99	23512
823.13	23501
823.27	23509
823.41	23535
823.55	23231
823.69	23440
823.83	23452
823.97	23326
824.11	23162
824.25	23181
824.389	23117
824.529	23178
824.669	23109
824.809	23200
824.949	23220
825.089	23170
825.228	23128
825.368	22953
825.508	22869
825.648	22854
825.787	23033
825.927	22938
826.067	22904
826.206	22881
826.346	22862
826.485	22938
826.625	22908
826.765	23003
826.904	22900
827.044	22672
827.183	22694
827.323	22500
827.462	22626
827.601	22512
827.741	22493
827.88	22565
828.02	22436
828.159	22550
828.298	22622
828.437	22428
828.577	22432
828.716	22744
828.855	22474
828.994	22109
829.134	22166
829.273	22284
829.412	22177
829.551	22230
829.69	22143
829.829	22284
829.968	22341
830.107	22303
830.246	22200
830.385	22063
830.524	22097
830.663	21960
830.802	21953
830.941	21861
831.08	21736
831.219	21812
831.357	21846
831.496	22017
831.635	21785
831.774	21690
831.913	21466
832.051	21538
832.19	21466
832.329	21530
832.467	21530
832.606	21325
832.744	21538
832.883	21363
833.022	21291
833.16	21389
833.299	21355
833.437	21424
833.576	21367
833.714	21443
833.852	21370
833.991	21523
834.129	21439
834.267	21477
834.406	21313
834.544	21370
834.682	21386
834.821	21321
834.959	21477
835.097	21302
835.235	21424
835.373	21378
835.511	21325
835.65	21211
835.788	21287
835.926	21127
836.064	21062
836.202	21104
836.34	21245
836.478	21214
836.615	21089
836.753	21272
836.891	21351
837.029	21150
837.167	21226
837.305	21150
837.443	21062
837.58	21180
837.718	21077
837.856	21154
837.993	21043
838.131	21100
838.269	20994
838.406	20952
838.544	20830
838.681	20762
838.819	20629
838.956	20514
839.094	20522
839.231	20552
839.369	20613
839.506	20899
839.643	20823
839.781	20507
839.918	20499
840.055	20579
840.193	20480
840.33	20396
840.467	20450
840.604	20533
840.742	20815
840.879	20362
841.016	20332
841.153	20339
841.29	20469
841.427	20320
841.564	20404
841.701	20434
841.838	20313
841.975	20282
842.112	20309
842.249	20206
842.385	20115
842.522	20385
842.659	20229
842.796	20202
842.933	20073
843.069	19997
843.206	20039
843.343	20100
843.479	20103
843.616	20153
843.752	19928
843.889	19761
844.025	20016
844.162	19856
844.298	19830
844.435	19757
844.571	19723
844.708	19852
844.844	20050
844.98	19978
845.117	19940
845.253	19788
845.389	19624
845.525	19681
845.661	19487
845.798	19601
845.934	19582
846.07	19483
846.206	19544
846.342	19613
846.478	19556
846.614	19426
846.75	19312
846.886	19247
847.022	19350
847.158	19228
847.294	19297
847.429	19289
847.565	19293
847.701	19506
847.837	18993
847.972	19027
848.108	19061
848.244	19114
848.379	18897
848.515	18886
848.65	18859
848.786	18913
848.921	18943
849.057	18943
849.192	18962
849.328	18783
849.463	18791
849.598	18772
849.734	18829
849.869	18635
850.004	18612
850.14	18589
850.275	18604
850.41	18551
850.545	18604
850.68	18547
850.815	18544
850.95	18509
851.085	18681
851.22	18620
851.355	18547
851.49	18483
851.625	18448
851.76	18547
851.895	18483
852.03	18490
852.165	18471
852.299	18525
852.434	18681
852.569	18597
852.703	18517
852.838	18486
852.973	18688
853.107	18642
853.242	18433
853.376	18410
853.511	18270
853.645	18330
853.78	18494
853.914	18418
854.048	18304
854.183	18342
854.317	18418
854.451	18544
854.585	18304
854.72	18292
854.854	18433
854.988	18235
855.122	18289
855.256	18247
855.39	18334
855.524	18376
855.658	18479
855.792	18403
855.926	18357
856.06	18319
856.194	18475
856.327	18437
856.461	18216
856.595	18327
856.729	18251
856.862	18414
856.996	18422
857.13	18315
857.263	18582
857.397	18399
857.53	18254
857.664	18479
857.797	18464
857.931	18448
858.064	18350
858.197	18448
858.331	18327
858.464	18213
858.597	18220
858.731	18258
858.864	18285
858.997	18197
859.13	18300
859.263	18251
859.396	18380
859.529	18308
859.662	18327
859.795	18251
859.928	18247
860.061	18464
860.194	18490
860.327	18361
860.46	18228
860.592	18372
860.725	18365
860.858	18350
860.99	18232
861.123	18205
861.256	18254
861.388	18228
861.521	18768
861.653	18083
861.786	18102
861.918	18102
862.05	18209
862.183	18418
862.315	18365
862.447	18410
862.58	18365
862.712	18140
862.844	18007
862.976	18098
863.108	18057
863.24	18300
863.372	17923
863.504	18026
863.636	17999
863.768	18045
863.9	17999
864.032	17988
864.164	17874
864.296	18007
864.428	18072
864.559	18083
864.691	18155
864.823	18007
864.954	18041
865.086	17946
865.217	17950
865.349	17828
865.48	17935
865.612	17851
865.743	18098
865.875	17878
866.006	17885
866.137	17889
866.269	17988
866.4	17855
866.531	17920
866.662	17794
866.793	17832
866.924	17843
867.055	17923
867.186	17973
867.317	17798
867.448	17859
867.579	17805
867.71	17764
867.841	17726
867.972	17859
868.103	17897
868.233	17729
868.364	17798
868.495	17931
868.625	18171
868.756	18133
868.886	18072
869.017	18072
869.147	18224
869.278	18110
869.408	18144
869.539	18076
869.669	18201
869.799	18041
869.929	18140
870.06	18220
870.19	18376
870.32	18350
870.45	18445
870.58	18483
870.71	18669
870.84	18616
870.97	18448
871.1	18486
871.23	18692
871.36	18650
871.489	18608
871.619	18528
871.749	18741
871.879	18806
872.008	18817
872.138	18802
872.267	18741
872.397	18582
872.526	18589
872.656	18486
872.785	18525
872.915	18779
873.044	18700
873.173	18692
873.303	18745
873.432	18738
873.561	18844
873.69	18787
873.819	18658
873.948	18768
874.077	18833
874.206	18719
874.335	18844
874.464	18928
874.593	18909
874.722	18905
874.851	19057
874.979	19133
875.108	19091
875.237	19103
875.365	19019
875.494	18977
875.623	19137
875.751	18977
875.88	19050
876.008	19240
876.136	19240
876.265	19502
876.393	19655
876.521	19537
876.65	19464
876.778	19487
876.906	19457
877.034	19285
877.162	19419
877.29	19324
877.418	19327
877.546	19430
877.674	19362
877.802	19438
877.93	19460
878.058	19331
878.185	19278
878.313	19362
878.441	19392
878.568	19247
878.696	19331
878.824	19518
878.951	19460
879.079	19632
879.206	19658
879.333	19658
879.461	19426
879.588	19514
879.715	19533
879.842	19715
879.97	19525
880.097	19282
880.224	19183
880.351	19327
880.478	19316
880.605	19293
880.732	19209
880.859	19449
880.986	19304
881.112	19247
881.239	19168
881.366	19046
881.493	18916
881.619	18894
881.746	18882
881.872	18878
881.999	18833
882.125	18757
882.252	18875
882.378	18928
882.505	19023
882.631	18856
882.757	18570
882.883	18821
883.01	18749
883.136	18642
883.262	18486
883.388	18445
883.514	18658
883.64	18715
883.766	18479
883.892	18559
884.018	18551
884.143	18612
884.269	18726
884.395	18437
884.52	18426
884.646	18281
884.772	18239
884.897	18270
885.023	18262
885.148	18410
885.274	18323
885.399	18403
885.524	18315
885.65	18353
885.775	18300
885.9	18277
886.025	18418
886.15	18281
886.275	18308
886.4	18190
886.525	18372
886.65	18232
886.775	18148
886.9	18323
887.025	18483
887.149	18391
887.274	18003
887.399	18049
887.523	18083
887.648	18022
887.773	18007
887.897	18213
888.021	17992
888.146	18121
888.27	18194
888.395	18315
888.519	18079
888.643	18095
888.767	18152
888.891	18060
889.015	17942
889.139	18060
889.263	17786
889.387	17977
889.511	18114
889.635	18106
889.759	17908
889.883	18034
890.006	17889
890.13	18053
890.254	17821
890.377	17851
890.501	17718
890.624	17634
890.748	17741
890.871	17676
890.995	17474
891.118	17452
891.241	17478
891.364	17539
891.488	17566
891.611	17486
891.734	17581
891.857	17600
891.98	17581
892.103	17543
892.226	17478
892.349	17501
892.471	17345
892.594	17455
892.717	17436
892.839	17372
892.962	17463
893.085	17463
893.207	17463
893.33	17307
893.452	17376
893.575	17509
893.697	17330
893.819	17615
893.941	17535
894.064	17665
894.186	17455
894.308	17284
894.43	17585
894.552	17745
894.674	17627
894.796	17341
894.918	17490
895.04	17505
895.161	17478
895.283	17535
895.405	17349
895.526	17528
895.648	17471
895.769	17566
895.891	17570
896.012	17566
896.134	17589
896.255	17509
896.376	17493
896.498	17573
896.619	17745
896.74	17623
896.861	17748
896.982	17958
897.103	18091
897.224	17786
897.345	17923
897.466	17866
897.587	17840
897.708	18026
897.828	17882
897.949	17931
898.07	17646
898.19	17657
898.311	17920
898.431	17802
898.552	17805
898.672	17992
898.792	17969
898.913	17722
899.033	17687
899.153	17604
899.273	17467
899.393	17562
899.513	17646
899.633	17493
899.753	17570
899.873	17516
899.993	17528
900.113	17604
900.232	17543
900.352	17482
900.472	17402
900.591	17334
900.711	17379
900.83	17284
900.95	17535
901.069	17547
901.189	17429
901.308	17140
901.427	17010
901.546	17124
901.665	17033
901.784	17128
901.904	16991
902.023	16828
902.141	16607
902.26	16634
902.379	16641
902.498	16497
902.617	16508
902.735	16721
902.854	16588
902.973	16462
903.091	16398
903.21	16219
903.328	16147
903.446	16105
903.565	15991
903.683	16109
903.801	16017
903.919	15975
904.038	15964
904.156	15880
904.274	15968
904.392	15835
904.51	15857
904.627	15812
904.745	15869
904.863	15907
904.981	15663
905.098	15458
905.216	15393
905.334	15496
905.451	15568
905.569	15572
905.686	15603
905.803	15462
905.921	15336
906.038	15408
906.155	15355
906.272	15207
906.389	15150
906.506	15066
906.623	15138
906.74	15043
906.857	15013
906.974	14899
907.091	15188
907.208	15138
907.324	15017
907.441	15005
907.557	14727
907.674	14823
907.79	14663
907.907	14739
908.023	14735
908.139	14750
908.256	14655
908.372	14640
908.488	14621
908.604	14556
908.72	14507
908.836	14446
908.952	14393
909.068	14446
909.184	14552
909.3	14495
909.415	14579
909.531	14355
909.647	14237
909.762	14062
909.878	14149
909.993	14180
910.108	14145
910.224	14130
910.339	14157
910.454	14035
910.57	14005
910.685	13970
910.8	14161
910.915	14119
911.03	13986
911.145	13852
911.259	13765
911.374	13837
911.489	13738
911.604	13670
911.718	13533
911.833	13590
911.947	13445
912.062	13514
912.176	13552
912.291	13655
912.405	13624
912.519	13670
912.633	13753
912.748	13613
912.862	13563
912.976	13384
913.09	13221
913.204	13316
913.318	13320
913.431	13468
913.545	13400
913.659	13518
913.772	13426
913.886	13316
914	13206
914.113	13285
914.226	13320
914.34	13304
914.453	13053
914.566	13255
914.68	13149
914.793	13072
914.906	12901
915.019	12886
915.132	12810
915.245	12905
915.358	13000
915.47	12958
915.583	12814
915.696	12935
915.809	13038
915.921	12905
916.034	12878
916.146	12840
916.259	12711
916.371	12817
916.483	12875
916.595	12734
916.708	12810
916.82	12768
916.932	12684
917.044	12635
917.156	12669
917.268	12604
917.38	12589
917.491	12650
917.603	12662
917.715	12700
917.826	12673
917.938	12700
918.049	12376
918.161	12620
918.272	12612
918.384	12696
918.495	12563
918.606	12456
918.717	12418
918.828	12403
918.939	12403
919.05	12342
919.161	12361
919.272	12178
919.383	12327
919.494	12479
919.604	12673
919.715	12357
919.826	12327
919.936	12407
920.047	12422
920.157	12407
920.267	12612
920.378	12418
920.488	12369
920.598	12494
920.708	12662
920.818	12494
920.928	12582
921.038	12703
921.148	12540
921.258	12365
921.368	12273
921.477	12152
921.587	12171
921.697	12060
921.806	12121
921.916	12030
922.025	11946
922.134	11783
922.244	11809
922.353	11912
922.462	11779
922.571	11665
922.68	11676
922.789	11493
922.898	11528
923.007	11493
923.116	11535
923.224	11455
923.333	11455
923.442	11349
923.55	11311
923.659	11349
923.767	11391
923.876	11292
923.984	11356
924.092	11132
924.201	11292
924.309	11330
924.417	11261
924.525	11315
924.633	11322
924.741	12178
924.849	11025
924.956	11162
925.064	11166
925.172	10976
925.279	11037
925.387	11064
925.494	11056
925.602	11189
925.709	11086
925.816	11109
925.924	11098
926.031	11124
926.138	11056
926.245	11056
926.352	11060
926.459	11113
926.566	11155
926.673	11037
926.779	10858
926.886	10839
926.993	10626
927.099	10721
927.206	10710
927.312	10611
927.419	10733
927.525	10664
927.631	10736
927.737	10637
927.843	10542
927.95	10485
928.056	10542
928.162	10531
928.267	10599
928.373	11204
928.479	10702
928.585	10386
928.69	10512
928.796	10538
928.901	10481
929.007	10325
929.112	10440
929.218	10409
929.323	10329
929.428	10356
929.533	10379
929.638	10265
929.743	10276
929.848	10344
929.953	10322
930.058	10246
930.163	10112
930.267	10032
930.372	10166
930.477	10074
930.581	10204
930.685	10013
930.79	9930
930.894	10021
930.998	9926
931.103	10093
931.207	9717
931.311	9622
931.415	9549
931.519	9382
931.623	9344
