Data from test_V78500241_2810.txt Node
Date: Fri Mar 25 16:01:16 CST 2022
User: usil
Spectrometer: V785-0024
Trigger mode: 0
Integration Time (sec): 4.000000E-1
Scans to average: 1
Nonlinearity correction enabled: false
Boxcar width: 0
Storing dark spectrum: false
XAxis mode: Wavelengths
Number of Pixels in Spectrum: 1024
>>>>>Begin Spectral Data<<<<<
801.071	28949
801.214	28976
801.356	28763
801.499	28687
801.641	28649
801.783	28637
801.926	28694
802.068	28656
802.211	28622
802.353	28546
802.496	28440
802.638	28356
802.78	28230
802.923	28181
803.065	28272
803.208	28246
803.35	28405
803.492	28417
803.635	28622
803.777	28443
803.919	28569
804.061	28812
804.204	28653
804.346	28561
804.488	28497
804.63	28687
804.773	28622
804.915	28611
805.057	28710
805.199	28622
805.341	28725
805.483	28736
805.626	28831
805.768	28649
805.91	28790
806.052	28698
806.194	28679
806.336	28972
806.478	28691
806.62	28858
806.762	28934
806.904	29128
807.046	29246
807.188	29216
807.33	29216
807.472	29299
807.614	29216
807.756	29280
807.898	29094
808.04	28946
808.182	29102
808.324	29132
808.465	29105
808.607	29490
808.749	29452
808.891	29471
809.033	29653
809.174	29589
809.316	29535
809.458	29410
809.6	29440
809.741	29604
809.883	29589
810.025	29767
810.166	29687
810.308	29897
810.45	29722
810.591	29577
810.733	29528
810.875	29444
811.016	29410
811.158	29364
811.299	29589
811.441	29676
811.582	29596
811.724	29459
811.865	29448
812.007	29471
812.148	29280
812.29	29459
812.431	29748
812.573	29855
812.714	29954
812.855	30038
812.997	30197
813.138	30232
813.279	30102
813.421	30091
813.562	29946
813.703	29862
813.845	29748
813.986	29379
814.127	29303
814.268	29235
814.41	29181
814.551	29216
814.692	29261
814.833	29121
814.974	29258
815.115	29083
815.256	29170
815.397	29193
815.539	29064
815.68	28953
815.821	28953
815.962	29025
816.103	28934
816.244	28858
816.385	28763
816.526	28656
816.666	28698
816.807	28489
816.948	28656
817.089	28550
817.23	28615
817.371	28466
817.512	28527
817.653	28447
817.793	28622
817.934	28489
818.075	28588
818.216	28554
818.356	28512
818.497	28367
818.638	28234
818.778	28417
818.919	28325
819.06	28367
819.2	28405
819.341	28653
819.481	28656
819.622	28675
819.762	28877
819.903	28877
820.043	28755
820.184	28672
820.324	28569
820.465	28847
820.605	28626
820.746	28710
820.886	28561
821.026	28668
821.167	28565
821.307	28675
821.447	28565
821.588	28306
821.728	28310
821.868	28169
822.008	28093
822.149	28078
822.289	27953
822.429	27766
822.569	27789
822.709	27652
822.849	27641
822.99	27469
823.13	27443
823.27	27530
823.41	27306
823.55	27287
823.69	27340
823.83	27393
823.97	27389
824.11	27154
824.25	27192
824.389	27294
824.529	27382
824.669	27051
824.809	27154
824.949	27230
825.089	27294
825.228	27135
825.368	26929
825.508	27024
825.648	26967
825.787	27119
825.927	27089
826.067	27119
826.206	27112
826.346	27066
826.485	27112
826.625	27070
826.765	27184
826.904	27226
827.044	26830
827.183	26804
827.323	26796
827.462	26830
827.601	26811
827.741	26830
827.88	26781
828.02	26530
828.159	26792
828.298	26769
828.437	26724
828.577	26815
828.716	26826
828.855	26819
828.994	26499
829.134	26522
829.273	26492
829.412	26473
829.551	26366
829.69	26412
829.829	26606
829.968	26564
830.107	26488
830.246	26560
830.385	26313
830.524	26419
830.663	26385
830.802	26324
830.941	26161
831.08	25982
831.219	26225
831.357	26103
831.496	26362
831.635	26149
831.774	25986
831.913	25864
832.051	25852
832.19	25906
832.329	25746
832.467	25761
832.606	25666
832.744	25772
832.883	25784
833.022	25723
833.16	25704
833.299	25769
833.437	25879
833.576	25849
833.714	25837
833.852	26039
833.991	25765
834.129	25841
834.267	25830
834.406	25769
834.544	25799
834.682	25845
834.821	25719
834.959	25795
835.097	25685
835.235	25765
835.373	25738
835.511	25860
835.65	25674
835.788	25635
835.926	25544
836.064	25559
836.202	25411
836.34	25540
836.478	25681
836.615	25521
836.753	25559
836.891	25639
837.029	25681
837.167	25548
837.305	25552
837.443	25487
837.58	25415
837.718	25628
837.856	25445
837.993	25457
838.131	25358
838.269	25343
838.406	25400
838.544	25339
838.681	25209
838.819	25122
838.956	24905
839.094	24932
839.231	24894
839.369	25103
839.506	25285
839.643	25168
839.781	24935
839.918	24935
840.055	24871
840.193	24916
840.33	24715
840.467	24875
840.604	24802
840.742	25050
840.879	24741
841.016	24829
841.153	24684
841.29	24840
841.427	24791
841.564	24734
841.701	24779
841.838	24749
841.975	24661
842.112	24798
842.249	24654
842.385	24642
842.522	24757
842.659	24787
842.796	24665
842.933	24585
843.069	24563
843.206	24422
843.343	24730
843.479	24410
843.616	24513
843.752	24391
843.889	24338
844.025	24448
844.162	24399
844.298	24418
844.435	24361
844.571	24391
844.708	24399
844.844	24467
844.98	24498
845.117	24433
845.253	24186
845.389	24315
845.525	24319
845.661	24155
845.798	24129
845.934	24140
846.07	23977
846.206	24186
846.342	24228
846.478	24038
846.614	24011
846.75	23752
846.886	23802
847.022	23878
847.158	23878
847.294	23779
847.429	23726
847.565	23699
847.701	24015
847.837	23558
847.972	23531
848.108	23570
848.244	23581
848.379	23326
848.515	23284
848.65	23341
848.786	23364
848.921	23406
849.057	23528
849.192	23467
849.328	23360
849.463	23353
849.598	23372
849.734	23391
849.869	23307
850.004	23155
850.14	23174
850.275	23105
850.41	23022
850.545	23037
850.68	23117
850.815	23174
850.95	23200
851.085	23349
851.22	23299
851.355	23174
851.49	23239
851.625	23121
851.76	23162
851.895	23010
852.03	23086
852.165	23075
852.299	23185
852.434	23132
852.569	23121
852.703	23124
852.838	23086
852.973	23277
853.107	23239
853.242	23147
853.376	23037
853.511	22778
853.645	23067
853.78	23044
853.914	23003
854.048	22854
854.183	22919
854.317	22995
854.451	23239
854.585	23003
854.72	22968
854.854	22957
854.988	22980
855.122	22930
855.256	22778
855.39	22938
855.524	23010
855.658	22942
855.792	22995
855.926	22980
856.06	22980
856.194	23079
856.327	22824
856.461	22843
856.595	22896
856.729	22835
856.862	23132
856.996	23052
857.13	22995
857.263	22923
857.397	23037
857.53	23037
857.664	23003
857.797	22987
857.931	23052
858.064	23003
858.197	23052
858.331	23052
858.464	22885
858.597	22881
858.731	22927
858.864	22904
858.997	22957
859.13	23064
859.263	22835
859.396	23010
859.529	22904
859.662	22957
859.795	22828
859.928	23003
860.061	23117
860.194	23178
860.327	22991
860.46	23067
860.592	23086
860.725	23212
860.858	23174
860.99	22961
861.123	22847
861.256	22858
861.388	22968
861.521	23615
861.653	22790
861.786	22721
861.918	22744
862.05	22930
862.183	22919
862.315	22923
862.447	22820
862.58	22900
862.712	22607
862.844	22660
862.976	22755
863.108	22774
863.24	23136
863.372	22580
863.504	22626
863.636	22656
863.768	22706
863.9	22729
864.032	22596
864.164	22508
864.296	22599
864.428	22706
864.559	22649
864.691	22721
864.823	22656
864.954	22637
865.086	22577
865.217	22459
865.349	22508
865.48	22405
865.612	22569
865.743	22512
865.875	22641
866.006	22546
866.137	22569
866.269	22527
866.4	22489
866.531	22462
866.662	22470
866.793	22462
866.924	22580
867.055	22550
867.186	22451
867.317	22451
867.448	22409
867.579	22462
867.71	22386
867.841	22379
867.972	22478
868.103	22462
868.233	22413
868.364	22474
868.495	22531
868.625	22668
868.756	22660
868.886	22596
869.017	22637
869.147	22839
869.278	22869
869.408	22744
869.539	22626
869.669	22653
869.799	22790
869.929	22812
870.06	22759
870.19	23025
870.32	23025
870.45	22908
870.58	23075
870.71	23277
870.84	23185
870.97	23105
871.1	23083
871.23	23292
871.36	23391
871.489	23132
871.619	23277
871.749	23349
871.879	23391
872.008	23345
872.138	23345
872.267	23315
872.397	23174
872.526	23105
872.656	23105
872.785	23189
872.915	23360
873.044	23406
873.173	23387
873.303	23444
873.432	23368
873.561	23497
873.69	23315
873.819	23383
873.948	23406
874.077	23429
874.206	23239
874.335	23356
874.464	23315
874.593	23604
874.722	23467
874.851	23615
874.979	23600
875.108	23592
875.237	23486
875.365	23334
875.494	23493
875.623	23668
875.751	23520
875.88	23524
876.008	23661
876.136	23691
876.265	23946
876.393	23923
876.521	23931
876.65	23954
876.778	23897
876.906	23855
877.034	23836
877.162	23870
877.29	23794
877.418	23836
877.546	23828
877.674	23851
877.802	23908
877.93	23691
878.058	23824
878.185	23714
878.313	23878
878.441	23923
878.568	23634
878.696	23786
878.824	23813
878.951	24026
879.079	23923
879.206	24102
879.333	23916
879.461	23893
879.588	24125
879.715	24026
879.842	24224
879.97	24060
880.097	23657
880.224	23790
880.351	23741
880.478	23661
880.605	23539
880.732	23752
880.859	23885
880.986	23680
881.112	23779
881.239	23516
881.366	23471
881.493	23223
881.619	23280
881.746	23250
881.872	23185
881.999	23208
882.125	23242
882.252	23162
882.378	23113
882.505	23280
882.631	23010
882.757	22889
882.883	22938
883.01	22949
883.136	22938
883.262	22881
883.388	22805
883.514	22740
883.64	22991
883.766	22889
883.892	22504
884.018	22653
884.143	22877
884.269	22892
884.395	22584
884.52	22485
884.646	22573
884.772	22493
884.897	22519
885.023	22504
885.148	22599
885.274	22782
885.399	22626
885.524	22478
885.65	22546
885.775	22500
885.9	22554
886.025	22771
886.15	22504
886.275	22588
886.4	22417
886.525	22413
886.65	22481
886.775	22440
886.9	22554
887.025	22752
887.149	22531
887.274	22356
887.399	22310
887.523	22299
887.648	22242
887.773	22226
887.897	22299
888.021	22329
888.146	22280
888.27	22310
888.395	22382
888.519	22261
888.643	22337
888.767	22226
888.891	22230
889.015	22162
889.139	22246
889.263	22059
889.387	22185
889.511	22306
889.635	22196
889.759	22029
889.883	22063
890.006	22166
890.13	22333
890.254	21968
890.377	22025
890.501	21819
890.624	21743
890.748	21895
890.871	21549
890.995	21656
891.118	21618
891.241	21663
891.364	21690
891.488	21713
891.611	21496
891.734	21663
891.857	21644
891.98	21542
892.103	21698
892.226	21587
892.349	21519
892.471	21397
892.594	21610
892.717	21557
892.839	21576
892.962	21458
893.085	21538
893.207	21431
893.33	21416
893.452	21526
893.575	21519
893.697	21473
893.819	21682
893.941	21682
894.064	21504
894.186	21359
894.308	21268
894.43	21564
894.552	21511
894.674	21507
894.796	21291
894.918	21469
895.04	21397
895.161	21610
895.283	21511
895.405	21389
895.526	21523
895.648	21443
895.769	21412
895.891	21443
896.012	21591
896.134	21477
896.255	21557
896.376	21287
896.498	21424
896.619	21450
896.74	21359
896.861	21504
896.982	21686
897.103	21865
897.224	21644
897.345	21667
897.466	21500
897.587	21599
897.708	21663
897.828	21701
897.949	21595
898.07	21500
898.19	21568
898.311	21778
898.431	21690
898.552	21511
898.672	21652
898.792	21694
898.913	21694
899.033	21625
899.153	21500
899.273	21363
899.393	21485
899.513	21389
899.633	21443
899.753	21462
899.873	21275
899.993	21397
900.113	21393
900.232	21401
900.352	21317
900.472	21169
900.591	21074
900.711	21116
900.83	21104
900.95	21268
901.069	21222
901.189	20948
901.308	20773
901.427	20815
901.546	20644
901.665	20640
901.784	20667
901.904	20655
902.023	20400
902.141	20237
902.26	20229
902.379	20240
902.498	20122
902.617	20145
902.735	20210
902.854	20161
902.973	20142
903.091	19925
903.21	19849
903.328	19936
903.446	19791
903.565	19696
903.683	19723
903.801	19518
903.919	19700
904.038	19601
904.156	19495
904.274	19499
904.392	19362
904.51	19365
904.627	19438
904.745	19403
904.863	19434
904.981	19168
905.098	19198
905.216	19160
905.334	19053
905.451	19164
905.569	18939
905.686	19061
905.803	19084
905.921	18825
906.038	19034
906.155	18973
906.272	18779
906.389	18696
906.506	18547
906.623	18661
906.74	18612
906.857	18479
906.974	18509
907.091	18635
907.208	18669
907.324	18597
907.441	18414
907.557	18342
907.674	18315
907.79	18304
907.907	18140
908.023	18357
908.139	18357
908.256	18251
908.372	18163
908.488	18167
908.604	18121
908.72	18015
908.836	18049
908.952	17927
909.068	17889
909.184	18117
909.3	17969
909.415	17908
909.531	17950
909.647	17802
909.762	17813
909.878	17615
909.993	17752
910.108	17646
910.224	17642
910.339	17642
910.454	17634
910.57	17539
910.685	17387
910.8	17741
910.915	17634
911.03	17516
911.145	17364
911.259	17414
911.374	17296
911.489	17273
911.604	17124
911.718	17094
911.833	16980
911.947	16919
912.062	16824
912.176	17025
912.291	17025
912.405	16999
912.519	17151
912.633	17105
912.748	17025
912.862	16904
912.976	16869
913.09	16706
913.204	16854
913.318	16831
913.431	16850
913.545	16805
913.659	16873
913.772	16847
913.886	16649
914	16626
914.113	16656
914.226	16744
914.34	16649
914.453	16459
914.566	16554
914.68	16474
914.793	16466
914.906	16223
915.019	16192
915.132	16223
915.245	16322
915.358	16223
915.47	16162
915.583	16143
915.696	16215
915.809	16322
915.921	16257
916.034	16147
916.146	16128
916.259	16131
916.371	16090
916.483	16204
916.595	15975
916.708	15994
916.82	15953
916.932	15934
917.044	15915
917.156	16025
917.268	15789
917.38	15827
917.491	15778
917.603	15831
917.715	15816
917.826	15842
917.938	15717
918.049	15572
918.161	15690
918.272	15831
918.384	15884
918.495	15690
918.606	15507
918.717	15386
918.828	15663
918.939	15557
919.05	15374
919.161	15523
919.272	15291
919.383	15374
919.494	15523
919.604	15671
919.715	15443
919.826	15374
919.936	15405
920.047	15587
920.157	15325
920.267	15705
920.378	15443
920.488	15412
920.598	15511
920.708	15778
920.818	15523
920.928	15625
921.038	15785
921.148	15728
921.258	15435
921.368	15317
921.477	15146
921.587	15176
921.697	15085
921.806	15241
921.916	15028
922.025	14876
922.134	14826
922.244	14743
922.353	14876
922.462	14606
922.571	14659
922.68	14454
922.789	14381
922.898	14446
923.007	14419
923.116	14457
923.224	14457
923.333	14427
923.442	14210
923.55	14320
923.659	14275
923.767	14324
923.876	14145
923.984	14202
924.092	14142
924.201	14149
924.309	14119
924.417	14145
924.525	14073
924.633	14164
924.741	15051
924.849	13856
924.956	14027
925.064	13837
925.172	13780
925.279	13795
925.387	13826
925.494	13776
925.602	13864
925.709	13898
925.816	13818
925.924	13746
926.031	13784
926.138	13681
926.245	13765
926.352	13670
926.459	13811
926.566	13826
926.673	13575
926.779	13563
926.886	13483
926.993	13354
927.099	13449
927.206	13331
927.312	13232
927.419	13327
927.525	13377
927.631	13411
927.737	13232
927.843	13301
927.95	13076
928.056	13160
928.162	13145
928.267	13285
928.373	13742
928.479	13274
928.585	13019
928.69	13046
928.796	13129
928.901	13027
929.007	12886
929.112	12981
929.218	12977
929.323	12863
929.428	12856
929.533	12928
929.638	12817
929.743	12821
929.848	12844
929.953	12829
930.058	12612
930.163	12494
930.267	12547
930.372	12654
930.477	12464
930.581	12635
930.685	12544
930.79	12376
930.894	12422
930.998	12445
931.103	12544
931.207	12068
931.311	12060
931.415	11954
931.519	11828
931.623	11726
