Data from test_V78500241_1022.txt Node
Date: Fri Mar 25 15:48:52 CST 2022
User: usil
Spectrometer: V785-0024
Trigger mode: 0
Integration Time (sec): 4.000000E-1
Scans to average: 1
Nonlinearity correction enabled: false
Boxcar width: 0
Storing dark spectrum: false
XAxis mode: Wavelengths
Number of Pixels in Spectrum: 1024
>>>>>Begin Spectral Data<<<<<
801.071	28082
801.214	28059
801.356	27827
801.499	27857
801.641	27648
801.783	27587
801.926	27701
802.068	27690
802.211	27538
802.353	27580
802.496	27420
802.638	27226
802.78	27272
802.923	27310
803.065	27272
803.208	27287
803.35	27378
803.492	27454
803.635	27367
803.777	27382
803.919	27492
804.061	27846
804.204	27614
804.346	27481
804.488	27393
804.63	27458
804.773	27447
804.915	27538
805.057	27625
805.199	27469
805.341	27538
805.483	27759
805.626	27682
805.768	27606
805.91	27633
806.052	27656
806.194	27660
806.336	27918
806.478	27816
806.62	27656
806.762	27953
806.904	27953
807.046	28188
807.188	28093
807.33	28040
807.472	28291
807.614	28120
807.756	28162
807.898	28051
808.04	27907
808.182	27880
808.324	27979
808.465	28067
808.607	28226
808.749	28223
808.891	28398
809.033	28440
809.174	28291
809.316	28352
809.458	28352
809.6	28375
809.741	28451
809.883	28592
810.025	28668
810.166	28607
810.308	28603
810.45	28577
810.591	28455
810.733	28325
810.875	28356
811.016	28169
811.158	28310
811.299	28561
811.441	28440
811.582	28523
811.724	28519
811.865	28421
812.007	28382
812.148	28352
812.29	28428
812.431	28569
812.573	28656
812.714	28713
812.855	28885
812.997	28991
813.138	29227
813.279	29014
813.421	28862
813.562	28740
813.703	28645
813.845	28607
813.986	28246
814.127	28196
814.268	28223
814.41	28158
814.551	28021
814.692	28196
814.833	27979
814.974	27983
815.115	27953
815.256	27922
815.397	27838
815.539	27873
815.68	27865
815.821	27660
815.962	27842
816.103	27941
816.244	27641
816.385	27606
816.526	27622
816.666	27595
816.807	27310
816.948	27317
817.089	27500
817.23	27378
817.371	27218
817.512	27272
817.653	27291
817.793	27283
817.934	27340
818.075	27447
818.216	27298
818.356	27275
818.497	27226
818.638	27062
818.778	27222
818.919	27074
819.06	27195
819.2	27241
819.341	27336
819.481	27283
819.622	27488
819.762	27622
819.903	27614
820.043	27603
820.184	27553
820.324	27367
820.465	27454
820.605	27591
820.746	27435
820.886	27401
821.026	27424
821.167	27439
821.307	27401
821.447	27325
821.588	27272
821.728	27154
821.868	27146
822.008	27055
822.149	26830
822.289	26689
822.429	26613
822.569	26442
822.709	26518
822.849	26427
822.99	26244
823.13	26301
823.27	26252
823.41	26195
823.55	26134
823.69	26122
823.83	26187
823.97	26172
824.11	25963
824.25	25978
824.389	26073
824.529	26100
824.669	26024
824.809	26065
824.949	26084
825.089	25997
825.228	26180
825.368	25936
825.508	25803
825.648	25852
825.787	26103
825.927	25833
826.067	25841
826.206	25871
826.346	25982
826.485	25913
826.625	25986
826.765	26050
826.904	25807
827.044	25639
827.183	25628
827.323	25601
827.462	25635
827.601	25563
827.741	25590
827.88	25518
828.02	25468
828.159	25468
828.298	25578
828.437	25856
828.577	25578
828.716	25677
828.855	25468
828.994	25350
829.134	25145
829.273	25278
829.412	25164
829.551	25228
829.69	25297
829.829	25278
829.968	25320
830.107	25381
830.246	25331
830.385	25266
830.524	25145
830.663	25129
830.802	24981
830.941	24795
831.08	24859
831.219	25012
831.357	25061
831.496	25046
831.635	24787
831.774	24871
831.913	24795
832.051	24726
832.19	24597
832.329	24654
832.467	24525
832.606	24650
832.744	24471
832.883	24525
833.022	24536
833.16	24509
833.299	24681
833.437	24578
833.576	24646
833.714	24555
833.852	24639
833.991	24661
834.129	24707
834.267	24673
834.406	24631
834.544	24578
834.682	24608
834.821	24517
834.959	24589
835.097	24483
835.235	24578
835.373	24559
835.511	24475
835.65	24399
835.788	24441
835.926	24369
836.064	24251
836.202	24334
836.34	24464
836.478	24498
836.615	24410
836.753	24399
836.891	24585
837.029	24384
837.167	24357
837.305	24369
837.443	24395
837.58	24308
837.718	24437
837.856	24171
837.993	24174
838.131	24178
838.269	24076
838.406	24194
838.544	24026
838.681	23851
838.819	23874
838.956	23752
839.094	23756
839.231	23851
839.369	23885
839.506	24038
839.643	24072
839.781	23707
839.918	23600
840.055	23680
840.193	23630
840.33	23649
840.467	23657
840.604	23764
840.742	23950
840.879	23463
841.016	23509
841.153	23589
841.29	23802
841.427	23684
841.564	23665
841.701	23558
841.838	23646
841.975	23444
842.112	23551
842.249	23455
842.385	23387
842.522	23642
842.659	23509
842.796	23452
842.933	23486
843.069	23280
843.206	23349
843.343	23433
843.479	23360
843.616	23372
843.752	23231
843.889	23174
844.025	23216
844.162	23178
844.298	23299
844.435	23178
844.571	23208
844.708	23277
844.844	23360
844.98	23273
845.117	23383
845.253	23147
845.389	23037
845.525	23056
845.661	22987
845.798	22904
845.934	23006
846.07	22965
846.206	22820
846.342	22896
846.478	22820
846.614	22698
846.75	22577
846.886	22538
847.022	22702
847.158	22550
847.294	22672
847.429	22698
847.565	22565
847.701	22778
847.837	22478
847.972	22413
848.108	22402
848.244	22318
848.379	22356
848.515	22226
848.65	22272
848.786	22226
848.921	22093
849.057	22375
849.192	22325
849.328	22200
849.463	22268
849.598	22207
849.734	22040
849.869	22006
850.004	22067
850.14	21972
850.275	21949
850.41	22021
850.545	21937
850.68	21972
850.815	21949
850.95	21968
851.085	22200
851.22	22082
851.355	21998
851.49	21987
851.625	21869
851.76	21953
851.895	21937
852.03	21892
852.165	22010
852.299	21956
852.434	22124
852.569	22063
852.703	21975
852.838	21975
852.973	21991
853.107	22116
853.242	21983
853.376	21880
853.511	21652
853.645	21842
853.78	21831
853.914	21876
854.048	21781
854.183	21698
854.317	21884
854.451	21888
854.585	21808
854.72	21789
854.854	21907
854.988	21656
855.122	21728
855.256	21698
855.39	21823
855.524	21816
855.658	21861
855.792	21873
855.926	21850
856.06	21895
856.194	21934
856.327	21778
856.461	21762
856.595	21736
856.729	21888
856.862	21865
856.996	21835
857.13	21797
857.263	21960
857.397	21884
857.53	21785
857.664	21819
857.797	21884
857.931	21907
858.064	21884
858.197	21968
858.331	21690
858.464	21652
858.597	21652
858.731	21812
858.864	21686
858.997	21705
859.13	21945
859.263	21892
859.396	21937
859.529	21873
859.662	21698
859.795	21701
859.928	21827
860.061	21915
860.194	22051
860.327	21759
860.46	21831
860.592	21850
860.725	22013
860.858	21861
860.99	21888
861.123	21747
861.256	21682
861.388	21857
861.521	22748
861.653	21656
861.786	21435
861.918	21553
862.05	21629
862.183	21652
862.315	21724
862.447	21800
862.58	21648
862.712	21473
862.844	21504
862.976	21618
863.108	21450
863.24	22010
863.372	21408
863.504	21515
863.636	21568
863.768	21545
863.9	21466
864.032	21477
864.164	21450
864.296	21545
864.428	21660
864.559	21576
864.691	21431
864.823	21428
864.954	21439
865.086	21447
865.217	21496
865.349	21298
865.48	21370
865.612	21393
865.743	21644
865.875	21462
866.006	21348
866.137	21405
866.269	21378
866.4	21306
866.531	21374
866.662	21325
866.793	21386
866.924	21310
867.055	21374
867.186	21321
867.317	21485
867.448	21325
867.579	21317
867.71	21237
867.841	21214
867.972	21294
868.103	21275
868.233	21462
868.364	21431
868.495	21443
868.625	21553
868.756	21553
868.886	21507
869.017	21595
869.147	21709
869.278	21717
869.408	21610
869.539	21591
869.669	21583
869.799	21633
869.929	21656
870.06	21739
870.19	22013
870.32	21945
870.45	21987
870.58	22029
870.71	22162
870.84	22090
870.97	22116
871.1	21922
871.23	22246
871.36	22219
871.489	22196
871.619	22154
871.749	22188
871.879	22223
872.008	22394
872.138	22265
872.267	22234
872.397	22055
872.526	22093
872.656	22029
872.785	22063
872.915	22268
873.044	22417
873.173	22173
873.303	22284
873.432	22280
873.561	22322
873.69	22295
873.819	22257
873.948	22337
874.077	22200
874.206	22249
874.335	22226
874.464	22249
874.593	22432
874.722	22455
874.851	22538
874.979	22398
875.108	22459
875.237	22436
875.365	22314
875.494	22390
875.623	22459
875.751	22428
875.88	22462
876.008	22603
876.136	22615
876.265	22843
876.393	22968
876.521	22877
876.65	22835
876.778	22835
876.906	22752
877.034	22881
877.162	22812
877.29	22698
877.418	22774
877.546	22828
877.674	22828
877.802	22736
877.93	22717
878.058	22683
878.185	22679
878.313	22786
878.441	22847
878.568	22641
878.696	22740
878.824	22759
878.951	22850
879.079	22946
879.206	22976
879.333	22942
879.461	22858
879.588	22896
879.715	23006
879.842	22938
879.97	22866
880.097	22557
880.224	22611
880.351	22649
880.478	22622
880.605	22580
880.732	22565
880.859	23025
880.986	22626
881.112	22596
881.239	22493
881.366	22337
881.493	22318
881.619	22162
881.746	22223
881.872	22211
881.999	22150
882.125	22055
882.252	22200
882.378	22181
882.505	22398
882.631	22090
882.757	21918
882.883	21937
883.01	21884
883.136	21781
883.262	21739
883.388	21736
883.514	21846
883.64	21892
883.766	21857
883.892	21504
884.018	21671
884.143	21781
884.269	21949
884.395	21488
884.52	21504
884.646	21492
884.772	21485
884.897	21264
885.023	21526
885.148	21576
885.274	21622
885.399	21481
885.524	21450
885.65	21606
885.775	21454
885.9	21450
886.025	21580
886.15	21553
886.275	21443
886.4	21401
886.525	21526
886.65	21492
886.775	21355
886.9	21606
887.025	21747
887.149	21405
887.274	21313
887.399	21283
887.523	21222
887.648	21119
887.773	21131
887.897	21363
888.021	21268
888.146	21154
888.27	21359
888.395	21397
888.519	21397
888.643	21310
888.767	21195
888.891	21230
889.015	21138
889.139	21089
889.263	21112
889.387	21085
889.511	21230
889.635	21222
889.759	21036
889.883	20918
890.006	21062
890.13	21070
890.254	21039
890.377	21009
890.501	20785
890.624	20773
890.748	20921
890.871	20792
890.995	20617
891.118	20511
891.241	20629
891.364	20564
891.488	20830
891.611	20575
891.734	20716
891.857	20640
891.98	20629
892.103	20648
892.226	20560
892.349	20530
892.471	20480
892.594	20473
892.717	20488
892.839	20530
892.962	20514
893.085	20583
893.207	20552
893.33	20415
893.452	20351
893.575	20492
893.697	20488
893.819	20617
893.941	20670
894.064	20655
894.186	20587
894.308	20415
894.43	20571
894.552	20678
894.674	20476
894.796	20461
894.918	20507
895.04	20526
895.161	20606
895.283	20629
895.405	20476
895.526	20598
895.648	20476
895.769	20659
895.891	20549
896.012	20678
896.134	20590
896.255	20587
896.376	20560
896.498	20511
896.619	20678
896.74	20377
896.861	20511
896.982	20830
897.103	20986
897.224	20708
897.345	20727
897.466	20602
897.587	20735
897.708	20952
897.828	20739
897.949	20648
898.07	20670
898.19	20663
898.311	20819
898.431	20697
898.552	20682
898.672	20762
898.792	20880
898.913	20693
899.033	20617
899.153	20587
899.273	20419
899.393	20533
899.513	20518
899.633	20427
899.753	20545
899.873	20419
899.993	20476
900.113	20438
900.232	20495
900.352	20484
900.472	20381
900.591	20206
900.711	20290
900.83	20282
900.95	20324
901.069	20240
901.189	20130
901.308	19761
901.427	19769
901.546	19860
901.665	19879
901.784	19765
901.904	19757
902.023	19518
902.141	19487
902.26	19350
902.379	19434
902.498	19289
902.617	19369
902.735	19282
902.854	19259
902.973	19187
903.091	19080
903.21	18989
903.328	18935
903.446	18939
903.565	18749
903.683	18772
903.801	18677
903.919	18795
904.038	18753
904.156	18464
904.274	18612
904.392	18506
904.51	18521
904.627	18490
904.745	18635
904.863	18570
904.981	18391
905.098	18285
905.216	18224
905.334	18273
905.451	18315
905.569	18182
905.686	18304
905.803	18266
905.921	17984
906.038	18209
906.155	17954
906.272	17923
906.389	17904
906.506	17729
906.623	17824
906.74	17836
906.857	17748
906.974	17714
907.091	17809
907.208	17840
907.324	17866
907.441	17608
907.557	17592
907.674	17440
907.79	17444
907.907	17395
908.023	17623
908.139	17486
908.256	17368
908.372	17425
908.488	17330
908.604	17223
908.72	17064
908.836	17246
908.952	17181
909.068	17155
909.184	17235
909.3	17124
909.415	17239
909.531	17220
909.647	17029
909.762	16930
909.878	16839
909.993	16816
910.108	16866
910.224	16824
910.339	16835
910.454	16702
910.57	16687
910.685	16668
910.8	16908
910.915	16828
911.03	16698
911.145	16596
911.259	16508
911.374	16462
911.489	16440
911.604	16329
911.718	16268
911.833	16230
911.947	16097
912.062	16090
912.176	16242
912.291	16276
912.405	16215
912.519	16443
912.633	16333
912.748	16246
912.862	16154
912.976	16051
913.09	15865
913.204	15983
913.318	15956
913.431	16158
913.545	16120
913.659	16196
913.772	15975
913.886	15907
914	15865
914.113	15956
914.226	15854
914.34	15930
914.453	15762
914.566	15819
914.68	15694
914.793	15629
914.906	15534
915.019	15351
915.132	15348
915.245	15431
915.358	15386
915.47	15428
915.583	15473
915.696	15374
915.809	15439
915.921	15469
916.034	15359
916.146	15374
916.259	15287
916.371	15439
916.483	15348
916.595	15161
916.708	15340
916.82	15237
916.932	15214
917.044	15245
917.156	15192
917.268	15039
917.38	15058
917.491	15100
917.603	15028
917.715	15165
917.826	15207
917.938	14979
918.049	14880
918.161	14998
918.272	15127
918.384	15097
918.495	14979
918.606	14823
918.717	14845
918.828	14876
918.939	14712
919.05	14758
919.161	14773
919.272	14587
919.383	14594
919.494	14811
919.604	14967
919.715	14857
919.826	14579
919.936	14689
920.047	14857
920.157	14792
920.267	14998
920.378	14746
920.488	14735
920.598	14887
920.708	15100
920.818	14845
920.928	14811
921.038	15089
921.148	15017
921.258	14842
921.368	14571
921.477	14507
921.587	14549
921.697	14454
921.806	14575
921.916	14362
922.025	14206
922.134	14157
922.244	14088
922.353	14111
922.462	14027
922.571	13917
922.68	13826
922.789	13776
922.898	13780
923.007	13765
923.116	13837
923.224	13712
923.333	13712
923.442	13620
923.55	13563
923.659	13655
923.767	13632
923.876	13556
923.984	13624
924.092	13548
924.201	13548
924.309	13483
924.417	13457
924.525	13365
924.633	13438
924.741	14225
924.849	13270
924.956	13388
925.064	13255
925.172	13141
925.279	13168
925.387	13343
925.494	13160
925.602	13293
925.709	13285
925.816	13107
925.924	13042
926.031	13194
926.138	13118
926.245	13080
926.352	12981
926.459	13190
926.566	13133
926.673	12985
926.779	12913
926.886	12966
926.993	12814
927.099	12715
927.206	12741
927.312	12722
927.419	12776
927.525	12768
927.631	12700
927.737	12616
927.843	12582
927.95	12521
928.056	12650
928.162	12513
928.267	12532
928.373	13141
928.479	12608
928.585	12346
928.69	12502
928.796	12566
928.901	12433
929.007	12289
929.112	12483
929.218	12304
929.323	12300
929.428	12251
929.533	12338
929.638	12178
929.743	12201
929.848	12319
929.953	12190
930.058	12041
930.163	11977
930.267	12057
930.372	12091
930.477	11912
930.581	12152
930.685	12060
930.79	11889
930.894	11870
930.998	11836
931.103	11939
931.207	11604
931.311	11463
931.415	11482
931.519	11223
931.623	11193
