Data from test_V78500241_1265.txt Node
Date: Fri Mar 25 15:50:33 CST 2022
User: usil
Spectrometer: V785-0024
Trigger mode: 0
Integration Time (sec): 4.000000E-1
Scans to average: 1
Nonlinearity correction enabled: false
Boxcar width: 0
Storing dark spectrum: false
XAxis mode: Wavelengths
Number of Pixels in Spectrum: 1024
>>>>>Begin Spectral Data<<<<<
801.071	28866
801.214	28816
801.356	28470
801.499	28561
801.641	28379
801.783	28344
801.926	28489
802.068	28512
802.211	28493
802.353	28519
802.496	28101
802.638	28128
802.78	28112
802.923	28090
803.065	27876
803.208	28006
803.35	28200
803.492	28124
803.635	28333
803.777	28226
803.919	28424
804.061	28683
804.204	28497
804.346	28440
804.488	28371
804.63	28489
804.773	28348
804.915	28443
805.057	28641
805.199	28409
805.341	28523
805.483	28538
805.626	28432
805.768	28497
805.91	28584
806.052	28599
806.194	28508
806.336	28683
806.478	28455
806.62	28611
806.762	28733
806.904	28778
807.046	28984
807.188	28934
807.33	28904
807.472	29227
807.614	28919
807.756	29159
807.898	28759
808.04	28786
808.182	28896
808.324	28847
808.465	28888
808.607	29094
808.749	29341
808.891	29436
809.033	29410
809.174	29258
809.316	29220
809.458	29178
809.6	29254
809.741	29303
809.883	29296
810.025	29520
810.166	29558
810.308	29551
810.45	29573
810.591	29486
810.733	29364
810.875	29227
811.016	29204
811.158	29197
811.299	29391
811.441	29433
811.582	29417
811.724	29273
811.865	29254
812.007	29132
812.148	29216
812.29	29337
812.431	29474
812.573	29528
812.714	29767
812.855	29824
812.997	29916
813.138	30106
813.279	29859
813.421	29764
813.562	29783
813.703	29524
813.845	29570
813.986	29246
814.127	29166
814.268	29048
814.41	29006
814.551	29006
814.692	28923
814.833	28946
814.974	29010
815.115	29014
815.256	28866
815.397	28812
815.539	28881
815.68	28706
815.821	28618
815.962	28869
816.103	28672
816.244	28691
816.385	28683
816.526	28565
816.666	28424
816.807	28398
816.948	28371
817.089	28451
817.23	28421
817.371	28409
817.512	28310
817.653	28413
817.793	28276
817.934	28318
818.075	28405
818.216	28341
818.356	28234
818.497	28169
818.638	28070
818.778	28097
818.919	28131
819.06	28219
819.2	28337
819.341	28318
819.481	28242
819.622	28527
819.762	28557
819.903	28535
820.043	28561
820.184	28272
820.324	28512
820.465	28527
820.605	28375
820.746	28341
820.886	28371
821.026	28455
821.167	28424
821.307	28405
821.447	28497
821.588	28242
821.728	28211
821.868	27876
822.008	27865
822.149	27869
822.289	27724
822.429	27424
822.569	27515
822.709	27507
822.849	27382
822.99	27454
823.13	27222
823.27	27241
823.41	27085
823.55	27093
823.69	27161
823.83	27173
823.97	27043
824.11	26948
824.25	26857
824.389	26998
824.529	27024
824.669	26937
824.809	27184
824.949	27157
825.089	27207
825.228	27055
825.368	26834
825.508	26800
825.648	26842
825.787	26845
825.927	26982
826.067	26746
826.206	27013
826.346	26853
826.485	26971
826.625	26872
826.765	26998
826.904	26834
827.044	26598
827.183	26655
827.323	26526
827.462	26602
827.601	26617
827.741	26446
827.88	26689
828.02	26564
828.159	26461
828.298	26549
828.437	26556
828.577	26507
828.716	26488
828.855	26461
828.994	26229
829.134	26164
829.273	26480
829.412	26149
829.551	26168
829.69	26142
829.829	26286
829.968	26336
830.107	26240
830.246	26301
830.385	26248
830.524	26225
830.663	26065
830.802	26016
830.941	25890
831.08	25883
831.219	25947
831.357	25921
831.496	26012
831.635	25833
831.774	25837
831.913	25776
832.051	25731
832.19	25765
832.329	25635
832.467	25537
832.606	25339
832.744	25407
832.883	25533
833.022	25537
833.16	25597
833.299	25590
833.437	25540
833.576	25666
833.714	25685
833.852	25502
833.991	25586
834.129	25662
834.267	25689
834.406	25769
834.544	25738
834.682	25590
834.821	25525
834.959	25761
835.097	25575
835.235	25601
835.373	25540
835.511	25582
835.65	25445
835.788	25434
835.926	25438
836.064	25179
836.202	25289
836.34	25483
836.478	25457
836.615	25365
836.753	25422
836.891	25491
837.029	25392
837.167	25320
837.305	25301
837.443	25225
837.58	25339
837.718	25331
837.856	25270
837.993	25183
838.131	25187
838.269	25061
838.406	24989
838.544	25095
838.681	24890
838.819	24897
838.956	24707
839.094	24677
839.231	24745
839.369	24916
839.506	24977
839.643	24947
839.781	24555
839.918	24608
840.055	24604
840.193	24566
840.33	24604
840.467	24517
840.604	24753
840.742	24913
840.879	24456
841.016	24589
841.153	24570
841.29	24639
841.427	24608
841.564	24540
841.701	24528
841.838	24429
841.975	24437
842.112	24555
842.249	24315
842.385	24353
842.522	24551
842.659	24448
842.796	24289
842.933	24407
843.069	24266
843.206	24315
843.343	24334
843.479	24448
843.616	24228
843.752	24281
843.889	24182
844.025	24171
844.162	24068
844.298	24220
844.435	24136
844.571	24072
844.708	24315
844.844	24266
844.98	24289
845.117	24311
845.253	24015
845.389	23855
845.525	23901
845.661	23977
845.798	23958
845.934	23977
846.07	23809
846.206	23851
846.342	23904
846.478	23920
846.614	23657
846.75	23467
846.886	23566
847.022	23714
847.158	23608
847.294	23604
847.429	23581
847.565	23509
847.701	23733
847.837	23326
847.972	23258
848.108	23398
848.244	23299
848.379	23079
848.515	23094
848.65	23181
848.786	23132
848.921	23265
849.057	23254
849.192	23181
849.328	23208
849.463	23178
849.598	23086
849.734	23094
849.869	22961
850.004	22995
850.14	22919
850.275	22873
850.41	22934
850.545	22816
850.68	22972
850.815	22972
850.95	22980
851.085	23280
851.22	22946
851.355	22915
851.49	22881
851.625	22850
851.76	22904
851.895	22759
852.03	22740
852.165	22991
852.299	22900
852.434	23018
852.569	22919
852.703	22816
852.838	22991
852.973	23090
853.107	23140
853.242	22858
853.376	22725
853.511	22637
853.645	22740
853.78	22904
853.914	22679
854.048	22679
854.183	22611
854.317	22759
854.451	22995
854.585	22805
854.72	22812
854.854	22908
854.988	22584
855.122	22664
855.256	22607
855.39	22733
855.524	22725
855.658	22641
855.792	22630
855.926	22767
856.06	22752
856.194	22778
856.327	22664
856.461	22721
856.595	22694
856.729	22717
856.862	22793
856.996	22702
857.13	22733
857.263	22778
857.397	22809
857.53	22679
857.664	22790
857.797	22774
857.931	22850
858.064	22778
858.197	22873
858.331	22721
858.464	22653
858.597	22607
858.731	22588
858.864	22660
858.997	22774
859.13	22672
859.263	22660
859.396	22930
859.529	22596
859.662	22630
859.795	22702
859.928	22786
860.061	22675
860.194	22957
860.327	22759
860.46	22717
860.592	22809
860.725	22812
860.858	22904
860.99	22656
861.123	22538
861.256	22626
861.388	22904
861.521	23376
861.653	22694
861.786	22421
861.918	22538
862.05	22569
862.183	22592
862.315	22748
862.447	22626
862.58	22569
862.712	22447
862.844	22405
862.976	22622
863.108	22462
863.24	22790
863.372	22325
863.504	22413
863.636	22398
863.768	22535
863.9	22512
864.032	22402
864.164	22386
864.296	22421
864.428	22462
864.559	22424
864.691	22428
864.823	22219
864.954	22398
865.086	22318
865.217	22299
865.349	22261
865.48	22276
865.612	22341
865.743	22451
865.875	22386
866.006	22230
866.137	22261
866.269	22310
866.4	22272
866.531	22173
866.662	22188
866.793	22253
866.924	22287
867.055	22344
867.186	22306
867.317	22371
867.448	22234
867.579	22268
867.71	22063
867.841	22135
867.972	22051
868.103	22280
868.233	22143
868.364	22242
868.495	22280
868.625	22413
868.756	22573
868.886	22386
869.017	22386
869.147	22554
869.278	22580
869.408	22500
869.539	22497
869.669	22546
869.799	22466
869.929	22538
870.06	22615
870.19	22885
870.32	22733
870.45	22889
870.58	22824
870.71	22972
870.84	22889
870.97	22877
871.1	22896
871.23	23102
871.36	23067
871.489	22771
871.619	22923
871.749	22938
871.879	23090
872.008	23113
872.138	23064
872.267	23060
872.397	22915
872.526	22869
872.656	22892
872.785	22934
872.915	23113
873.044	23033
873.173	22965
873.303	23178
873.432	23064
873.561	23159
873.69	23006
873.819	22923
873.948	23075
874.077	23060
874.206	23067
874.335	23170
874.464	23159
874.593	23334
874.722	23269
874.851	23341
874.979	23341
875.108	23398
875.237	23151
875.365	23170
875.494	23185
875.623	23258
875.751	23136
875.88	23417
876.008	23501
876.136	23421
876.265	23687
876.393	23726
876.521	23832
876.65	23699
876.778	23703
876.906	23619
877.034	23589
877.162	23729
877.29	23501
877.418	23554
877.546	23672
877.674	23501
877.802	23653
877.93	23687
878.058	23543
878.185	23486
878.313	23497
878.441	23642
878.568	23433
878.696	23505
878.824	23634
878.951	23748
879.079	23695
879.206	23859
879.333	23828
879.461	23672
879.588	23657
879.715	23714
879.842	23916
879.97	23687
880.097	23474
880.224	23444
880.351	23410
880.478	23448
880.605	23353
880.732	23429
880.859	23745
880.986	23452
881.112	23387
881.239	23292
881.366	23162
881.493	23166
881.619	23010
881.746	23056
881.872	23067
881.999	22957
882.125	22984
882.252	23071
882.378	22927
882.505	22961
882.631	22965
882.757	22664
882.883	22679
883.01	22626
883.136	22683
883.262	22527
883.388	22561
883.514	22626
883.64	22599
883.766	22653
883.892	22523
884.018	22466
884.143	22645
884.269	22603
884.395	22371
884.52	22169
884.646	22234
884.772	22215
884.897	22196
885.023	22177
885.148	22306
885.274	22402
885.399	22398
885.524	22246
885.65	22314
885.775	22367
885.9	22265
886.025	22409
886.15	22367
886.275	22230
886.4	22120
886.525	22120
886.65	22280
886.775	22207
886.9	22371
887.025	22538
887.149	22310
887.274	21991
887.399	21991
887.523	22078
887.648	21945
887.773	21884
887.897	22166
888.021	22082
888.146	22032
888.27	22124
888.395	22185
888.519	22086
888.643	22059
888.767	22128
888.891	21926
889.015	21972
889.139	21994
889.263	21747
889.387	21861
889.511	21998
889.635	22017
889.759	21781
889.883	21804
890.006	21857
890.13	21968
890.254	21759
890.377	21739
890.501	21583
890.624	21561
890.748	21599
890.871	21401
890.995	21420
891.118	21287
891.241	21382
891.364	21386
891.488	21561
891.611	21447
891.734	21469
891.857	21488
891.98	21382
892.103	21519
892.226	21340
892.349	21351
892.471	21116
892.594	21313
892.717	21336
892.839	21268
892.962	21325
893.085	21363
893.207	21340
893.33	21188
893.452	21214
893.575	21340
893.697	21272
893.819	21386
893.941	21382
894.064	21336
894.186	21214
894.308	21146
894.43	21218
894.552	21568
894.674	21348
894.796	21222
894.918	21233
895.04	21351
895.161	21283
895.283	21283
895.405	21245
895.526	21131
895.648	21180
895.769	21321
895.891	21329
896.012	21393
896.134	21340
896.255	21294
896.376	21294
896.498	21233
896.619	21272
896.74	21222
896.861	21382
896.982	21568
897.103	21656
897.224	21466
897.345	21485
897.466	21382
897.587	21378
897.708	21568
897.828	21435
897.949	21386
898.07	21359
898.19	21370
898.311	21492
898.431	21363
898.552	21530
898.672	21458
898.792	21530
898.913	21462
899.033	21298
899.153	21355
899.273	21138
899.393	21142
899.513	21203
899.633	21233
899.753	21085
899.873	21055
899.993	21329
900.113	21093
900.232	21089
900.352	21043
900.472	21013
900.591	21009
900.711	20933
900.83	20887
900.95	21001
901.069	21055
901.189	20785
901.308	20648
901.427	20556
901.546	20503
901.665	20457
901.784	20545
901.904	20366
902.023	20218
902.141	19970
902.26	19955
902.379	20176
902.498	20043
902.617	20005
902.735	20096
902.854	19913
902.973	19898
903.091	19670
903.21	19700
903.328	19628
903.446	19537
903.565	19445
903.683	19396
903.801	19441
903.919	19578
904.038	19449
904.156	19251
904.274	19228
904.392	19118
904.51	19137
904.627	19198
904.745	19168
904.863	19206
904.981	19008
905.098	18966
905.216	18909
905.334	18920
905.451	18798
905.569	18798
905.686	18871
905.803	18901
905.921	18677
906.038	18703
906.155	18616
906.272	18585
906.389	18566
906.506	18464
906.623	18460
906.74	18407
906.857	18243
906.974	18254
907.091	18585
907.208	18486
907.324	18395
907.441	18216
907.557	18228
907.674	18079
907.79	17939
907.907	18079
908.023	18034
908.139	18072
908.256	18057
908.372	17961
908.488	18015
908.604	17923
908.72	17878
908.836	17866
908.952	17760
909.068	17889
909.184	17817
909.3	17828
909.415	17840
909.531	17657
909.647	17600
909.762	17493
909.878	17524
909.993	17520
910.108	17505
910.224	17448
910.339	17433
910.454	17349
910.57	17353
910.685	17273
910.8	17554
910.915	17448
911.03	17242
911.145	17124
911.259	17025
911.374	17121
911.489	17014
911.604	16900
911.718	16828
911.833	16805
911.947	16793
912.062	16782
912.176	16843
912.291	16839
912.405	16900
912.519	16980
912.633	17083
912.748	16908
912.862	16782
912.976	16611
913.09	16558
913.204	16500
913.318	16603
913.431	16660
913.545	16706
913.659	16637
913.772	16569
913.886	16481
914	16371
914.113	16474
914.226	16523
914.34	16504
914.453	16215
914.566	16470
914.68	16398
914.793	16344
914.906	15991
915.019	16002
915.132	15930
915.245	16090
915.358	16090
915.47	16029
915.583	15918
915.696	15998
915.809	15975
915.921	16154
916.034	15838
916.146	15869
916.259	15941
916.371	15876
916.483	15937
916.595	15846
916.708	15926
916.82	15888
916.932	15774
917.044	15701
917.156	15747
917.268	15610
917.38	15500
917.491	15660
917.603	15606
917.715	15618
917.826	15622
917.938	15408
918.049	15393
918.161	15530
918.272	15755
918.384	15675
918.495	15545
918.606	15462
918.717	15336
918.828	15279
918.939	15386
919.05	15188
919.161	15351
919.272	15207
919.383	15279
919.494	15439
919.604	15542
919.715	15298
919.826	15256
919.936	15161
920.047	15401
920.157	15218
920.267	15485
920.378	15325
920.488	15370
920.598	15382
920.708	15606
920.818	15485
920.928	15359
921.038	15584
921.148	15443
921.258	15313
921.368	15123
921.477	15058
921.587	14956
921.697	14876
921.806	14963
921.916	14769
922.025	14659
922.134	14594
922.244	14606
922.353	14724
922.462	14560
922.571	14434
922.68	14263
922.789	14290
922.898	14275
923.007	14191
923.116	14267
923.224	14218
923.333	14298
923.442	14142
923.55	14081
923.659	14123
923.767	14134
923.876	14065
923.984	14145
924.092	14046
924.201	14130
924.309	14058
924.417	14065
924.525	14027
924.633	13936
924.741	14902
924.849	13689
924.956	13875
925.064	13727
925.172	13601
925.279	13700
925.387	13689
925.494	13731
925.602	13788
925.709	13666
925.816	13605
925.924	13624
926.031	13799
926.138	13632
926.245	13647
926.352	13506
926.459	13578
926.566	13738
926.673	13556
926.779	13449
926.886	13316
926.993	13285
927.099	13312
927.206	13225
927.312	13221
927.419	13289
927.525	13183
927.631	13171
927.737	13084
927.843	13019
927.95	12970
928.056	13091
928.162	12977
928.267	13149
928.373	13529
928.479	13069
928.585	12840
928.69	13050
928.796	13080
928.901	12958
929.007	12760
929.112	12909
929.218	12798
929.323	12802
929.428	12821
929.533	12856
929.638	12707
929.743	12768
929.848	12810
929.953	12703
930.058	12593
930.163	12429
930.267	12445
930.372	12578
930.477	12403
930.581	12593
930.685	12525
930.79	12209
930.894	12247
930.998	12300
931.103	12441
931.207	12076
931.311	12064
931.415	11832
931.519	11657
931.623	11668
