Data from test_V78500241_465.txt Node
Date: Fri Mar 25 15:45:01 CST 2022
User: usil
Spectrometer: V785-0024
Trigger mode: 0
Integration Time (sec): 4.000000E-1
Scans to average: 1
Nonlinearity correction enabled: false
Boxcar width: 0
Storing dark spectrum: false
XAxis mode: Wavelengths
Number of Pixels in Spectrum: 1024
>>>>>Begin Spectral Data<<<<<
801.071	27564
801.214	27610
801.356	27382
801.499	27226
801.641	27154
801.783	27150
801.926	27401
802.068	27104
802.211	27093
802.353	26937
802.496	26986
802.638	26785
802.78	26849
802.923	26735
803.065	26724
803.208	26659
803.35	26765
803.492	26872
803.635	27119
803.777	26758
803.919	26861
804.061	27211
804.204	26982
804.346	26849
804.488	26823
804.63	26929
804.773	26834
804.915	27013
805.057	27017
805.199	26883
805.341	26956
805.483	26982
805.626	27108
805.768	26963
805.91	27055
806.052	27043
806.194	26979
806.336	27294
806.478	27100
806.62	27123
806.762	27230
806.904	27389
807.046	27458
807.188	27435
807.33	27416
807.472	27511
807.614	27477
807.756	27355
807.898	27355
808.04	27135
808.182	27287
808.324	27252
808.465	27222
808.607	27583
808.749	27633
808.891	27739
809.033	27800
809.174	27789
809.316	27808
809.458	27751
809.6	27774
809.741	27804
809.883	27797
810.025	27987
810.166	27934
810.308	27941
810.45	27869
810.591	27846
810.733	27778
810.875	27557
811.016	27720
811.158	27538
811.299	27854
811.441	27816
811.582	27785
811.724	27724
811.865	27618
812.007	27671
812.148	27679
812.29	27739
812.431	27797
812.573	27934
812.714	28055
812.855	28185
812.997	28249
813.138	28466
813.279	28166
813.421	28287
813.562	28188
813.703	27850
813.845	27953
813.986	27652
814.127	27599
814.268	27367
814.41	27195
814.551	27450
814.692	27241
814.833	27321
814.974	27260
815.115	27264
815.256	27138
815.397	27336
815.539	27294
815.68	27184
815.821	26921
815.962	27138
816.103	27074
816.244	27119
816.385	26788
816.526	26724
816.666	26796
816.807	26644
816.948	26583
817.089	26629
817.23	26640
817.371	26693
817.512	26533
817.653	26606
817.793	26530
817.934	26511
818.075	26640
818.216	26533
818.356	26522
818.497	26393
818.638	26339
818.778	26358
818.919	26370
819.06	26431
819.2	26370
819.341	26590
819.481	26579
819.622	26667
819.762	26960
819.903	26807
820.043	26712
820.184	26674
820.324	26762
820.465	26807
820.605	26735
820.746	26788
820.886	26629
821.026	26754
821.167	26686
821.307	26701
821.447	26613
821.588	26613
821.728	26237
821.868	26237
822.008	26027
822.149	26100
822.289	25917
822.429	25727
822.569	25677
822.709	25860
822.849	25575
822.99	25575
823.13	25491
823.27	25476
823.41	25441
823.55	25244
823.69	25472
823.83	25449
823.97	25285
824.11	25145
824.25	25118
824.389	25000
824.529	25137
824.669	25141
824.809	25190
824.949	25175
825.089	25335
825.228	25282
825.368	25061
825.508	24897
825.648	25084
825.787	25103
825.927	25118
826.067	25072
826.206	24932
826.346	25156
826.485	25080
826.625	25168
826.765	25088
826.904	25217
827.044	24814
827.183	24772
827.323	24810
827.462	24878
827.601	24875
827.741	24772
827.88	24916
828.02	24639
828.159	24734
828.298	24703
828.437	24852
828.577	24806
828.716	24779
828.855	24635
828.994	24319
829.134	24452
829.273	24582
829.412	24372
829.551	24410
829.69	24513
829.829	24536
829.968	24604
830.107	24483
830.246	24471
830.385	24407
830.524	24353
830.663	24232
830.802	24102
830.941	23969
831.08	24091
831.219	24129
831.357	24144
831.496	24292
831.635	24026
831.774	23836
831.913	23901
832.051	23836
832.19	23809
832.329	23908
832.467	23661
832.606	23805
832.744	23703
832.883	23577
833.022	23752
833.16	23695
833.299	23722
833.437	23718
833.576	23680
833.714	23714
833.852	23870
833.991	23916
834.129	23847
834.267	23843
834.406	23718
834.544	23836
834.682	23748
834.821	23779
834.959	23908
835.097	23676
835.235	23805
835.373	23714
835.511	23859
835.65	23615
835.788	23524
835.926	23535
836.064	23493
836.202	23512
836.34	23642
836.478	23623
836.615	23615
836.753	23779
836.891	23634
837.029	23649
837.167	23570
837.305	23455
837.443	23592
837.58	23341
837.718	23539
837.856	23570
837.993	23307
838.131	23505
838.269	23200
838.406	23246
838.544	23261
838.681	23075
838.819	23044
838.956	22881
839.094	22946
839.231	22854
839.369	23079
839.506	23326
839.643	23162
839.781	22934
839.918	22866
840.055	22927
840.193	22816
840.33	22908
840.467	22812
840.604	22900
840.742	23124
840.879	22672
841.016	22805
841.153	22809
841.29	22946
841.427	22771
841.564	22767
841.701	22843
841.838	22713
841.975	22748
842.112	22694
842.249	22611
842.385	22664
842.522	22721
842.659	22584
842.796	22512
842.933	22523
843.069	22478
843.206	22599
843.343	22527
843.479	22466
843.616	22691
843.752	22257
843.889	22356
844.025	22436
844.162	22390
844.298	22504
844.435	22291
844.571	22112
844.708	22322
844.844	22462
844.98	22504
845.117	22516
845.253	22303
845.389	22154
845.525	22356
845.661	22211
845.798	22013
845.934	22272
846.07	22120
846.206	22188
846.342	22154
846.478	22150
846.614	21941
846.75	21797
846.886	21816
847.022	21892
847.158	21789
847.294	21770
847.429	21911
847.565	21819
847.701	22029
847.837	21477
847.972	21549
848.108	21519
848.244	21599
848.379	21481
848.515	21416
848.65	21230
848.786	21389
848.921	21389
849.057	21450
849.192	21545
849.328	21462
849.463	21389
849.598	21332
849.734	21336
849.869	21192
850.004	21161
850.14	21195
850.275	21195
850.41	21085
850.545	21081
850.68	21127
850.815	21230
850.95	21127
851.085	21294
851.22	21260
851.355	21180
851.49	21150
851.625	21169
851.76	21157
851.895	21017
852.03	21093
852.165	21138
852.299	21279
852.434	21279
852.569	21104
852.703	21302
852.838	21237
852.973	21237
853.107	21313
853.242	21275
853.376	21058
853.511	20941
853.645	20941
853.78	21066
853.914	20998
854.048	20967
854.183	20883
854.317	20967
854.451	21245
854.585	21024
854.72	20990
854.854	21116
854.988	20838
855.122	20960
855.256	20895
855.39	20963
855.524	21085
855.658	21116
855.792	21024
855.926	20941
856.06	20967
856.194	21138
856.327	21036
856.461	20921
856.595	20975
856.729	20933
856.862	21066
856.996	20944
857.13	21028
857.263	20994
857.397	21017
857.53	20994
857.664	21173
857.797	21039
857.931	21089
858.064	21093
858.197	21157
858.331	21017
858.464	20971
858.597	20880
858.731	20982
858.864	20956
858.997	21058
859.13	20929
859.263	21058
859.396	21062
859.529	21020
859.662	20902
859.795	20933
859.928	21036
860.061	21161
860.194	21119
860.327	20975
860.46	21096
860.592	21066
860.725	21074
860.858	21024
860.99	21013
861.123	20872
861.256	20838
861.388	21036
861.521	21690
861.653	20807
861.786	20845
861.918	20762
862.05	20925
862.183	20998
862.315	20868
862.447	20925
862.58	20796
862.712	20701
862.844	20579
862.976	20785
863.108	20693
863.24	21074
863.372	20678
863.504	20644
863.636	20659
863.768	20777
863.9	20655
864.032	20636
864.164	20663
864.296	20754
864.428	20735
864.559	20731
864.691	20792
864.823	20682
864.954	20644
865.086	20811
865.217	20629
865.349	20518
865.48	20579
865.612	20598
865.743	20773
865.875	20564
866.006	20587
866.137	20450
866.269	20636
866.4	20537
866.531	20560
866.662	20526
866.793	20541
866.924	20454
867.055	20560
867.186	20533
867.317	20549
867.448	20336
867.579	20499
867.71	20343
867.841	20415
867.972	20514
868.103	20469
868.233	20590
868.364	20495
868.495	20473
868.625	20701
868.756	20902
868.886	20724
869.017	20781
869.147	20815
869.278	20823
869.408	20887
869.539	20769
869.669	20876
869.799	20743
869.929	20918
870.06	20910
870.19	21093
870.32	21112
870.45	21013
870.58	21180
870.71	21165
870.84	21226
870.97	21142
871.1	21157
871.23	21332
871.36	21302
871.489	21249
871.619	21279
871.749	21359
871.879	21420
872.008	21401
872.138	21378
872.267	21405
872.397	21207
872.526	21169
872.656	21279
872.785	21233
872.915	21439
873.044	21473
873.173	21416
873.303	21412
873.432	21542
873.561	21416
873.69	21332
873.819	21336
873.948	21386
874.077	21367
874.206	21317
874.335	21447
874.464	21469
874.593	21572
874.722	21679
874.851	21603
874.979	21732
875.108	21599
875.237	21622
875.365	21519
875.494	21515
875.623	21739
875.751	21625
875.88	21701
876.008	21739
876.136	21960
876.265	22051
876.393	22131
876.521	21979
876.65	22063
876.778	21994
876.906	21983
877.034	21953
877.162	22013
877.29	21934
877.418	22006
877.546	21979
877.674	21934
877.802	21941
877.93	22074
878.058	21911
878.185	21854
878.313	21816
878.441	21934
878.568	21701
878.696	21903
878.824	22063
878.951	22093
879.079	22177
879.206	22318
879.333	22109
879.461	22032
879.588	22017
879.715	22223
879.842	22219
879.97	22040
880.097	21850
880.224	21747
880.351	21785
880.478	21816
880.605	21838
880.732	21842
880.859	22063
880.986	21857
881.112	21759
881.239	21743
881.366	21557
881.493	21466
881.619	21466
881.746	21431
881.872	21241
881.999	21306
882.125	21321
882.252	21313
882.378	21454
882.505	21439
882.631	21317
882.757	21093
882.883	21214
883.01	21119
883.136	21093
883.262	20933
883.388	21001
883.514	21093
883.64	21104
883.766	20948
883.892	20899
884.018	20948
884.143	21085
884.269	21127
884.395	20800
884.52	20743
884.646	20651
884.772	20659
884.897	20609
885.023	20819
885.148	20800
885.274	20792
885.399	20857
885.524	20746
885.65	20697
885.775	20743
885.9	20754
886.025	20735
886.15	20739
886.275	20648
886.4	20743
886.525	20640
886.65	20640
886.775	20560
886.9	20800
887.025	20883
887.149	20632
887.274	20476
887.399	20518
887.523	20560
887.648	20393
887.773	20446
887.897	20636
888.021	20522
888.146	20446
888.27	20613
888.395	20579
888.519	20533
888.643	20556
888.767	20377
888.891	20571
889.015	20400
889.139	20446
889.263	20313
889.387	20423
889.511	20415
889.635	20469
889.759	20157
889.883	20206
890.006	20328
890.13	20362
890.254	20210
890.377	20161
890.501	20111
890.624	19970
890.748	20103
890.871	19959
890.995	19803
891.118	19727
891.241	19894
891.364	19875
891.488	19978
891.611	19898
891.734	19921
891.857	19978
891.98	19757
892.103	19879
892.226	19917
892.349	19875
892.471	19704
892.594	19928
892.717	19833
892.839	19753
892.962	19852
893.085	19902
893.207	19871
893.33	19696
893.452	19662
893.575	19864
893.697	19841
893.819	19951
893.941	19890
894.064	20024
894.186	19761
894.308	19750
894.43	19830
894.552	19928
894.674	19784
894.796	19674
894.918	19750
895.04	19708
895.161	19753
895.283	19913
895.405	19830
895.526	19742
895.648	19822
895.769	19803
895.891	19814
896.012	19913
896.134	19750
896.255	19818
896.376	19772
896.498	19734
896.619	19932
896.74	19738
896.861	19727
896.982	20119
897.103	20119
897.224	20084
897.345	20008
897.466	19841
897.587	20039
897.708	20065
897.828	20126
897.949	19959
898.07	19837
898.19	19959
898.311	20065
898.431	20039
898.552	19986
898.672	20054
898.792	20096
898.913	20027
899.033	19925
899.153	19689
899.273	19670
899.393	19757
899.513	19822
899.633	19898
899.753	19852
899.873	19734
899.993	19830
900.113	19750
900.232	19807
900.352	19750
900.472	19776
900.591	19559
900.711	19586
900.83	19472
900.95	19681
901.069	19639
901.189	19544
901.308	19198
901.427	19099
901.546	19099
901.665	19183
901.784	19038
901.904	19046
902.023	18890
902.141	18749
902.26	18825
902.379	18810
902.498	18730
902.617	18513
902.735	18711
902.854	18642
902.973	18604
903.091	18213
903.21	18350
903.328	18228
903.446	18167
903.565	18243
903.683	18136
903.801	18049
903.919	18072
904.038	18049
904.156	17855
904.274	17992
904.392	17901
904.51	17897
904.627	17923
904.745	17969
904.863	17885
904.981	17687
905.098	17611
905.216	17646
905.334	17634
905.451	17596
905.569	17573
905.686	17592
905.803	17570
905.921	17322
906.038	17395
906.155	17448
906.272	17326
906.389	17265
906.506	17105
906.623	17193
906.74	17048
906.857	17010
906.974	16957
907.091	17216
907.208	17185
907.324	17197
907.441	17037
907.557	16839
907.674	16866
907.79	16778
907.907	16729
908.023	16774
908.139	16961
908.256	16881
908.372	16767
908.488	16755
908.604	16489
908.72	16478
908.836	16550
908.952	16641
909.068	16523
909.184	16637
909.3	16546
909.415	16603
909.531	16516
909.647	16287
909.762	16295
909.878	16188
909.993	16371
910.108	16204
910.224	16246
910.339	16291
910.454	16173
910.57	16097
910.685	16055
910.8	16287
910.915	16238
911.03	16185
911.145	15892
911.259	15804
911.374	15934
911.489	15755
911.604	15679
911.718	15637
911.833	15652
911.947	15584
912.062	15443
912.176	15637
912.291	15743
912.405	15622
912.519	15759
912.633	15785
912.748	15618
912.862	15526
912.976	15473
913.09	15374
913.204	15351
913.318	15367
913.431	15603
913.545	15462
913.659	15431
913.772	15363
913.886	15283
914	15195
914.113	15287
914.226	15344
914.34	15332
914.453	15176
914.566	15283
914.68	15066
914.793	15097
914.906	14876
915.019	14899
915.132	14826
915.245	14868
915.358	14895
915.47	14838
915.583	14891
915.696	14861
915.809	14941
915.921	14925
916.034	14762
916.146	14781
916.259	14727
916.371	14872
916.483	14701
916.595	14796
916.708	14708
916.82	14712
916.932	14705
917.044	14655
917.156	14598
917.268	14473
917.38	14598
917.491	14598
917.603	14526
917.715	14587
917.826	14678
917.938	14461
918.049	14377
918.161	14400
918.272	14560
918.384	14610
918.495	14530
918.606	14347
918.717	14263
918.828	14275
918.939	14358
919.05	14336
919.161	14225
919.272	14035
919.383	14164
919.494	14393
919.604	14465
919.715	14336
919.826	14225
919.936	14290
920.047	14248
920.157	14301
920.267	14377
920.378	14214
920.488	14157
920.598	14400
920.708	14503
920.818	14328
920.928	14450
921.038	14514
921.148	14575
921.258	14161
921.368	14111
921.477	13982
921.587	14020
921.697	13890
921.806	14088
921.916	13845
922.025	13700
922.134	13715
922.244	13624
922.353	13776
922.462	13514
922.571	13438
922.68	13285
922.789	13289
922.898	13297
923.007	13232
923.116	13327
923.224	13247
923.333	13217
923.442	13225
923.55	13118
923.659	13183
923.767	13156
923.876	13061
923.984	13080
924.092	13015
924.201	13027
924.309	13027
924.417	13088
924.525	12981
924.633	12954
924.741	13746
924.849	12791
924.956	12924
925.064	12669
925.172	12662
925.279	12730
925.387	12745
925.494	12719
925.602	12840
925.709	12741
925.816	12665
925.924	12608
926.031	12787
926.138	12601
926.245	12623
926.352	12608
926.459	12741
926.566	12726
926.673	12521
926.779	12452
926.886	12460
926.993	12296
927.099	12277
927.206	12243
927.312	12209
927.419	12330
927.525	12228
927.631	12350
927.737	12186
927.843	12159
927.95	12083
928.056	12083
928.162	12095
928.267	12194
928.373	12722
928.479	12190
928.585	11980
928.69	12041
928.796	12155
928.901	11946
929.007	11745
929.112	12064
929.218	11912
929.323	11939
929.428	11866
929.533	12041
929.638	11790
929.743	11790
929.848	11935
929.953	11813
930.058	11752
930.163	11551
930.267	11524
930.372	11634
930.477	11562
930.581	11729
930.685	11596
930.79	11455
930.894	11474
930.998	11406
931.103	11581
931.207	11181
931.311	11151
931.415	10995
931.519	10801
931.623	10710
