Data from test_V78500241_1074.txt Node
Date: Fri Mar 25 15:49:14 CST 2022
User: usil
Spectrometer: V785-0024
Trigger mode: 0
Integration Time (sec): 4.000000E-1
Scans to average: 1
Nonlinearity correction enabled: false
Boxcar width: 0
Storing dark spectrum: false
XAxis mode: Wavelengths
Number of Pixels in Spectrum: 1024
>>>>>Begin Spectral Data<<<<<
801.071	28447
801.214	28291
801.356	28044
801.499	27956
801.641	28101
801.783	27857
801.926	27968
802.068	27895
802.211	27899
802.353	27709
802.496	27720
802.638	27580
802.78	27564
802.923	27530
803.065	27481
803.208	27629
803.35	27572
803.492	27808
803.635	27846
803.777	27679
803.919	27842
804.061	28109
804.204	27774
804.346	27800
804.488	27774
804.63	27717
804.773	27759
804.915	27884
805.057	27876
805.199	27759
805.341	27865
805.483	27922
805.626	27899
805.768	27880
805.91	27838
806.052	27937
806.194	27816
806.336	28070
806.478	27937
806.62	27941
806.762	28101
806.904	28219
807.046	28542
807.188	28375
807.33	28462
807.472	28440
807.614	28390
807.756	28322
807.898	28139
808.04	28329
808.182	28188
808.324	28207
808.465	28306
808.607	28550
808.749	28664
808.891	28588
809.033	28778
809.174	28702
809.316	28588
809.458	28565
809.6	28474
809.741	28881
809.883	28725
810.025	28987
810.166	28934
810.308	28957
810.45	28930
810.591	28767
810.733	28649
810.875	28622
811.016	28508
811.158	28634
811.299	28721
811.441	28839
811.582	28744
811.724	28588
811.865	28656
812.007	28637
812.148	28710
812.29	28736
812.431	28908
812.573	29006
812.714	29090
812.855	29155
812.997	29197
813.138	29387
813.279	29303
813.421	29155
813.562	29269
813.703	28904
813.845	28873
813.986	28523
814.127	28519
814.268	28295
814.41	28253
814.551	28333
814.692	28424
814.833	28272
814.974	28409
815.115	28352
815.256	28249
815.397	28257
815.539	28181
815.68	28147
815.821	28010
815.962	28139
816.103	28040
816.244	28185
816.385	28006
816.526	27960
816.666	27675
816.807	27580
816.948	27743
817.089	27743
817.23	27549
817.371	27644
817.512	27755
817.653	27652
817.793	27511
817.934	27652
818.075	27831
818.216	27549
818.356	27545
818.497	27606
818.638	27500
818.778	27393
818.919	27530
819.06	27488
819.2	27427
819.341	27496
819.481	27511
819.622	27808
819.762	28044
819.903	27835
820.043	27880
820.184	27637
820.324	27701
820.465	27717
820.605	27770
820.746	27747
820.886	27709
821.026	27732
821.167	27720
821.307	27926
821.447	27587
821.588	27675
821.728	27515
821.868	27256
822.008	27272
822.149	26979
822.289	27180
822.429	26929
822.569	26811
822.709	26899
822.849	26773
822.99	26716
823.13	26788
823.27	26507
823.41	26511
823.55	26370
823.69	26381
823.83	26450
823.97	26465
824.11	26278
824.25	26183
824.389	26423
824.529	26476
824.669	26229
824.809	26328
824.949	26362
825.089	26457
825.228	26282
825.368	26199
825.508	26252
825.648	26248
825.787	26199
825.927	26415
826.067	26244
826.206	26103
826.346	26275
826.485	26267
826.625	26221
826.765	26161
826.904	26343
827.044	25928
827.183	25947
827.323	25890
827.462	26001
827.601	25944
827.741	25909
827.88	25871
828.02	25841
828.159	25879
828.298	25814
828.437	25978
828.577	25811
828.716	25978
828.855	25875
828.994	25548
829.134	25597
829.273	25647
829.412	25483
829.551	25502
829.69	25719
829.829	25609
829.968	25620
830.107	25613
830.246	25704
830.385	25609
830.524	25415
830.663	25293
830.802	25415
830.941	25331
831.08	25209
831.219	25175
831.357	25320
831.496	25339
831.635	25126
831.774	25103
831.913	24989
832.051	25012
832.19	24932
832.329	24837
832.467	24886
832.606	24962
832.744	24920
832.883	24962
833.022	24821
833.16	24932
833.299	24810
833.437	24856
833.576	24981
833.714	24882
833.852	24962
833.991	24833
834.129	25031
834.267	25008
834.406	24863
834.544	24924
834.682	24924
834.821	24894
834.959	24977
835.097	24764
835.235	24935
835.373	24909
835.511	24958
835.65	24772
835.788	24806
835.926	24658
836.064	24551
836.202	24574
836.34	24753
836.478	24859
836.615	24715
836.753	24623
836.891	24764
837.029	24734
837.167	24753
837.305	24658
837.443	24631
837.58	24559
837.718	24608
837.856	24528
837.993	24471
838.131	24521
838.269	24494
838.406	24388
838.544	24414
838.681	24296
838.819	24106
838.956	24064
839.094	24022
839.231	24125
839.369	24228
839.506	24433
839.643	24403
839.781	24163
839.918	24060
840.055	23977
840.193	23984
840.33	23893
840.467	24068
840.604	24030
840.742	24247
840.879	23893
841.016	23965
841.153	23767
841.29	24140
841.427	23889
841.564	24041
841.701	23870
841.838	23920
841.975	23817
842.112	23885
842.249	23813
842.385	23554
842.522	23897
842.659	23748
842.796	23668
842.933	23691
843.069	23684
843.206	23733
843.343	23798
843.479	23790
843.616	23684
843.752	23566
843.889	23467
844.025	23604
844.162	23478
844.298	23505
844.435	23398
844.571	23482
844.708	23414
844.844	23623
844.98	23630
845.117	23531
845.253	23360
845.389	23356
845.525	23402
845.661	23356
845.798	23109
845.934	23292
846.07	23250
846.206	23303
846.342	23311
846.478	23094
846.614	22961
846.75	22919
846.886	22927
847.022	22900
847.158	22949
847.294	22877
847.429	22915
847.565	22972
847.701	23124
847.837	22588
847.972	22626
848.108	22706
848.244	22687
848.379	22603
848.515	22565
848.65	22531
848.786	22554
848.921	22519
849.057	22656
849.192	22706
849.328	22542
849.463	22565
849.598	22489
849.734	22348
849.869	22341
850.004	22280
850.14	22352
850.275	22242
850.41	22196
850.545	22215
850.68	22226
850.815	22398
850.95	22154
851.085	22386
851.22	22409
851.355	22211
851.49	22402
851.625	22169
851.76	22215
851.895	22219
852.03	22280
852.165	22310
852.299	22318
852.434	22421
852.569	22417
852.703	22230
852.838	22360
852.973	22413
853.107	22398
853.242	22246
853.376	22177
853.511	22078
853.645	22093
853.78	22261
853.914	22154
854.048	22059
854.183	22109
854.317	22093
854.451	22287
854.585	22257
854.72	22128
854.854	22215
854.988	22002
855.122	22059
855.256	21895
855.39	22017
855.524	22173
855.658	22219
855.792	22021
855.926	22116
856.06	22147
856.194	22257
856.327	22173
856.461	22086
856.595	21994
856.729	22097
856.862	22162
856.996	22139
857.13	22299
857.263	22295
857.397	22253
857.53	22078
857.664	22154
857.797	22074
857.931	22238
858.064	22139
858.197	22211
858.331	22051
858.464	22181
858.597	21873
858.731	22017
858.864	21949
858.997	21983
859.13	22036
859.263	22173
859.396	22192
859.529	22021
859.662	22067
859.795	22010
859.928	22070
860.061	22204
860.194	22329
860.327	22192
860.46	22055
860.592	22177
860.725	22333
860.858	22215
860.99	22078
861.123	22029
861.256	22029
861.388	22147
861.521	22805
861.653	21994
861.786	21865
861.918	21918
862.05	21941
862.183	22078
862.315	22063
862.447	22162
862.58	21964
862.712	21819
862.844	21751
862.976	22002
863.108	21934
863.24	22192
863.372	21781
863.504	21778
863.636	21789
863.768	21770
863.9	21854
864.032	21724
864.164	21698
864.296	21892
864.428	21842
864.559	21831
864.691	21895
864.823	21827
864.954	21774
865.086	21778
865.217	21743
865.349	21614
865.48	21690
865.612	21553
865.743	21793
865.875	21789
866.006	21667
866.137	21614
866.269	21622
866.4	21603
866.531	21652
866.662	21545
866.793	21538
866.924	21591
867.055	21606
867.186	21599
867.317	21618
867.448	21435
867.579	21576
867.71	21530
867.841	21424
867.972	21709
868.103	21622
868.233	21553
868.364	21606
868.495	21652
868.625	21823
868.756	21888
868.886	21751
869.017	21766
869.147	22013
869.278	22025
869.408	21861
869.539	21827
869.669	21907
869.799	22032
869.929	22002
870.06	22010
870.19	22112
870.32	22242
870.45	22181
870.58	22188
870.71	22325
870.84	22261
870.97	22166
871.1	22295
871.23	22474
871.36	22390
871.489	22211
871.619	22398
871.749	22352
871.879	22554
872.008	22485
872.138	22497
872.267	22382
872.397	22299
872.526	22314
872.656	22344
872.785	22325
872.915	22459
873.044	22611
873.173	22474
873.303	22565
873.432	22512
873.561	22550
873.69	22485
873.819	22436
873.948	22634
874.077	22474
874.206	22333
874.335	22413
874.464	22512
874.593	22702
874.722	22710
874.851	22786
874.979	22721
875.108	22660
875.237	22710
875.365	22611
875.494	22653
875.623	22755
875.751	22691
875.88	22801
876.008	22919
876.136	22824
876.265	22999
876.393	23239
876.521	23254
876.65	23151
876.778	23117
876.906	22961
877.034	23143
877.162	23162
877.29	22946
877.418	23105
877.546	22885
877.674	23060
877.802	23029
877.93	22968
878.058	23102
878.185	22919
878.313	22946
878.441	22976
878.568	22820
878.696	22828
878.824	23094
878.951	23117
879.079	23200
879.206	23307
879.333	23200
879.461	23029
879.588	23261
879.715	23132
879.842	23345
879.97	23094
880.097	22968
880.224	22873
880.351	22828
880.478	22866
880.605	22694
880.732	22809
880.859	23067
880.986	22854
881.112	22725
881.239	22713
881.366	22569
881.493	22489
881.619	22375
881.746	22481
881.872	22485
881.999	22424
882.125	22253
882.252	22527
882.378	22337
882.505	22489
882.631	22215
882.757	22090
882.883	22310
883.01	21945
883.136	22032
883.262	21915
883.388	21945
883.514	22101
883.64	22185
883.766	21964
883.892	21838
884.018	21899
884.143	22116
884.269	22109
884.395	21751
884.52	21724
884.646	21724
884.772	21667
884.897	21648
885.023	21884
885.148	21892
885.274	21873
885.399	21854
885.524	21732
885.65	21778
885.775	21762
885.9	21739
886.025	21778
886.15	21835
886.275	21682
886.4	21663
886.525	21789
886.65	21580
886.775	21648
886.9	21842
887.025	21876
887.149	21736
887.274	21469
887.399	21519
887.523	21519
887.648	21416
887.773	21431
887.897	21576
888.021	21591
888.146	21370
888.27	21504
888.395	21583
888.519	21519
888.643	21500
888.767	21386
888.891	21389
889.015	21336
889.139	21367
889.263	21420
889.387	21332
889.511	21458
889.635	21325
889.759	21378
889.883	21306
890.006	21291
890.13	21443
890.254	21241
890.377	21180
890.501	21013
890.624	20994
890.748	21135
890.871	20937
890.995	20853
891.118	20826
891.241	20842
891.364	20830
891.488	20887
891.611	20811
891.734	20883
891.857	20819
891.98	20960
892.103	20876
892.226	20785
892.349	20811
892.471	20651
892.594	20705
892.717	20731
892.839	20823
892.962	20746
893.085	20823
893.207	20735
893.33	20617
893.452	20777
893.575	20785
893.697	20769
893.819	20880
893.941	21013
894.064	20861
894.186	20705
894.308	20617
894.43	20758
894.552	20887
894.674	20796
894.796	20686
894.918	20667
895.04	20731
895.161	20735
895.283	20682
895.405	20644
895.526	20743
895.648	20739
895.769	20663
895.891	20743
896.012	20849
896.134	20716
896.255	20811
896.376	20621
896.498	20708
896.619	20788
896.74	20727
896.861	20674
896.982	20990
897.103	21089
897.224	20872
897.345	20853
897.466	20758
897.587	20937
897.708	21142
897.828	20982
897.949	20826
898.07	20754
898.19	20731
898.311	20956
898.431	20891
898.552	20956
898.672	20887
898.792	20998
898.913	20948
899.033	20902
899.153	20693
899.273	20602
899.393	20716
899.513	20800
899.633	20724
899.753	20670
899.873	20564
899.993	20602
900.113	20560
900.232	20598
900.352	20655
900.472	20370
900.591	20381
900.711	20419
900.83	20469
900.95	20438
901.069	20579
901.189	20259
901.308	20164
901.427	19993
901.546	20073
901.665	19997
901.784	20103
901.904	19947
902.023	19685
902.141	19643
902.26	19510
902.379	19658
902.498	19594
902.617	19464
902.735	19533
902.854	19514
902.973	19350
903.091	19122
903.21	19114
903.328	19164
903.446	19107
903.565	19038
903.683	19004
903.801	18852
903.919	19000
904.038	18962
904.156	18757
904.274	18814
904.392	18677
904.51	18711
904.627	18673
904.745	18810
904.863	18779
904.981	18517
905.098	18456
905.216	18403
905.334	18494
905.451	18372
905.569	18395
905.686	18456
905.803	18338
905.921	18133
906.038	18376
906.155	18243
906.272	18159
906.389	18076
906.506	17912
906.623	17920
906.74	17878
906.857	17874
906.974	17897
907.091	17965
907.208	18087
907.324	17931
907.441	17889
907.557	17600
907.674	17767
907.79	17604
907.907	17649
908.023	17661
908.139	17680
908.256	17691
908.372	17551
908.488	17543
908.604	17414
908.72	17360
908.836	17353
908.952	17326
909.068	17474
909.184	17436
909.3	17315
909.415	17410
909.531	17284
909.647	17037
909.762	17052
909.878	16976
909.993	17105
910.108	17018
910.224	16965
910.339	17018
910.454	17056
910.57	16839
910.685	16850
910.8	17029
910.915	17018
911.03	16949
911.145	16637
911.259	16637
911.374	16596
911.489	16653
911.604	16459
911.718	16390
911.833	16485
911.947	16242
912.062	16234
912.176	16436
912.291	16329
912.405	16371
912.519	16500
912.633	16618
912.748	16382
912.862	16375
912.976	16249
913.09	16158
913.204	16162
913.318	16204
913.431	16291
913.545	16291
913.659	16421
913.772	16128
913.886	16006
914	16055
914.113	16067
914.226	16150
914.34	16029
914.453	15797
914.566	16078
914.68	15922
914.793	15831
914.906	15656
915.019	15644
915.132	15534
915.245	15599
915.358	15587
915.47	15568
915.583	15603
915.696	15568
915.809	15564
915.921	15614
916.034	15549
916.146	15378
916.259	15416
916.371	15492
916.483	15542
916.595	15428
916.708	15485
916.82	15507
916.932	15298
917.044	15294
917.156	15275
917.268	15321
917.38	15135
917.491	15199
917.603	15184
917.715	15321
917.826	15374
917.938	15150
918.049	14982
918.161	15074
918.272	15279
918.384	15287
918.495	15249
918.606	14998
918.717	14979
918.828	15036
918.939	15020
919.05	14895
919.161	14986
919.272	14785
919.383	14937
919.494	14960
919.604	15135
919.715	14967
919.826	14891
919.936	14925
920.047	15070
920.157	14937
920.267	15138
920.378	14941
920.488	14849
920.598	15024
920.708	15252
920.818	15100
920.928	15104
921.038	15268
921.148	15241
921.258	14838
921.368	14796
921.477	14693
921.587	14663
921.697	14522
921.806	14678
921.916	14522
922.025	14328
922.134	14309
922.244	14218
922.353	14275
922.462	14157
922.571	14084
922.68	14058
922.789	13921
922.898	13879
923.007	13864
923.116	13997
923.224	13852
923.333	13963
923.442	13734
923.55	13791
923.659	13833
923.767	13814
923.876	13753
923.984	13719
924.092	13601
924.201	13674
924.309	13639
924.417	13658
924.525	13578
924.633	13525
924.741	14275
924.849	13445
924.956	13521
925.064	13346
925.172	13244
925.279	13316
925.387	13301
925.494	13320
925.602	13540
925.709	13369
925.816	13244
925.924	13270
926.031	13365
926.138	13225
926.245	13350
926.352	13145
926.459	13285
926.566	13388
926.673	13221
926.779	13042
926.886	13034
926.993	12867
927.099	12859
927.206	12806
927.312	12833
927.419	12882
927.525	12928
927.631	12901
927.737	12795
927.843	12730
927.95	12650
928.056	12669
928.162	12684
928.267	12677
928.373	13270
928.479	12692
928.585	12506
928.69	12642
928.796	12665
928.901	12566
929.007	12525
929.112	12494
929.218	12486
929.323	12471
929.428	12414
929.533	12422
929.638	12391
929.743	12429
929.848	12311
929.953	12251
930.058	12243
930.163	12072
930.267	12213
930.372	12277
930.477	12030
930.581	12209
930.685	12125
930.79	11958
930.894	11969
930.998	12034
931.103	12041
931.207	11665
931.311	11668
931.415	11554
931.519	11444
931.623	11345
