Data from test_V78500241_3144.txt Node
Date: Fri Mar 25 16:03:34 CST 2022
User: usil
Spectrometer: V785-0024
Trigger mode: 0
Integration Time (sec): 4.000000E-1
Scans to average: 1
Nonlinearity correction enabled: false
Boxcar width: 0
Storing dark spectrum: false
XAxis mode: Wavelengths
Number of Pixels in Spectrum: 1024
>>>>>Begin Spectral Data<<<<<
801.071	28892
801.214	28702
801.356	28485
801.499	28443
801.641	28344
801.783	28405
801.926	28481
802.068	28249
802.211	28481
802.353	28207
802.496	28059
802.638	27895
802.78	28006
802.923	27972
803.065	27850
803.208	27873
803.35	28040
803.492	28234
803.635	28246
803.777	28166
803.919	28303
804.061	28603
804.204	28333
804.346	28242
804.488	28177
804.63	28257
804.773	28234
804.915	28375
805.057	28348
805.199	28230
805.341	28398
805.483	28440
805.626	28398
805.768	28447
805.91	28523
806.052	28428
806.194	28497
806.336	28611
806.478	28538
806.62	28656
806.762	28478
806.904	28771
807.046	28839
807.188	28824
807.33	28892
807.472	28934
807.614	28782
807.756	28847
807.898	28866
808.04	28672
808.182	28748
808.324	28736
808.465	28854
808.607	28968
808.749	29132
808.891	29166
809.033	29258
809.174	29147
809.316	29121
809.458	29227
809.6	29102
809.741	29162
809.883	29273
810.025	29383
810.166	29493
810.308	29581
810.45	29398
810.591	29288
810.733	29261
810.875	29284
811.016	29121
811.158	29086
811.299	29223
811.441	29284
811.582	29364
811.724	29223
811.865	29239
812.007	29014
812.148	29102
812.29	29212
812.431	29349
812.573	29585
812.714	29516
812.855	29642
812.997	29779
813.138	29901
813.279	29870
813.421	29687
813.562	29615
813.703	29482
813.845	29452
813.986	29136
814.127	28942
814.268	28748
814.41	28930
814.551	28774
814.692	28972
814.833	28733
814.974	28831
815.115	28873
815.256	28850
815.397	28721
815.539	28881
815.68	28603
815.821	28554
815.962	28698
816.103	28622
816.244	28607
816.385	28356
816.526	28375
816.666	28390
816.807	28188
816.948	28078
817.089	28226
817.23	28200
817.371	28177
817.512	28097
817.653	28147
817.793	28105
817.934	28086
818.075	28226
818.216	28128
818.356	28150
818.497	28101
818.638	28036
818.778	27979
818.919	27975
819.06	27945
819.2	28135
819.341	28101
819.481	28230
819.622	28318
819.762	28557
819.903	28379
820.043	28348
820.184	28322
820.324	28276
820.465	28306
820.605	28329
820.746	28276
820.886	28291
821.026	28162
821.167	28257
821.307	28215
821.447	28276
821.588	28006
821.728	28010
821.868	27774
822.008	27785
822.149	27713
822.289	27534
822.429	27454
822.569	27386
822.709	27211
822.849	27302
822.99	27138
823.13	27237
823.27	27199
823.41	27024
823.55	26826
823.69	26998
823.83	27146
823.97	26963
824.11	26735
824.25	26792
824.389	26765
824.529	26857
824.669	26872
824.809	26921
824.949	26899
825.089	26979
825.228	26819
825.368	26564
825.508	26701
825.648	26781
825.787	26746
825.927	26765
826.067	26739
826.206	26716
826.346	26670
826.485	26921
826.625	26857
826.765	26948
826.904	26804
827.044	26499
827.183	26438
827.323	26427
827.462	26503
827.601	26453
827.741	26446
827.88	26484
828.02	26309
828.159	26461
828.298	26469
828.437	26473
828.577	26450
828.716	26617
828.855	26313
828.994	26081
829.134	26073
829.273	26206
829.412	25963
829.551	26130
829.69	26142
829.829	26237
829.968	26122
830.107	26145
830.246	26142
830.385	26008
830.524	26107
830.663	25963
830.802	25887
830.941	25693
831.08	25784
831.219	25883
831.357	25822
831.496	26001
831.635	25540
831.774	25674
831.913	25632
832.051	25518
832.19	25575
832.329	25422
832.467	25426
832.606	25362
832.744	25308
832.883	25339
833.022	25297
833.16	25438
833.299	25381
833.437	25365
833.576	25529
833.714	25358
833.852	25533
833.991	25552
834.129	25620
834.267	25594
834.406	25377
834.544	25449
834.682	25297
834.821	25449
834.959	25639
835.097	25247
835.235	25533
835.373	25365
835.511	25521
835.65	25354
835.788	25312
835.926	25152
836.064	25118
836.202	25095
836.34	25297
836.478	25285
836.615	25183
836.753	25228
836.891	25285
837.029	25206
837.167	25145
837.305	25171
837.443	25213
837.58	24985
837.718	25148
837.856	25046
837.993	25069
838.131	25148
838.269	24943
838.406	25019
838.544	24886
838.681	24730
838.819	24722
838.956	24547
839.094	24475
839.231	24547
839.369	24840
839.506	24951
839.643	24745
839.781	24604
839.918	24498
840.055	24589
840.193	24521
840.33	24407
840.467	24467
840.604	24555
840.742	24806
840.879	24323
841.016	24494
841.153	24384
841.29	24544
841.427	24464
841.564	24509
841.701	24372
841.838	24353
841.975	24273
842.112	24407
842.249	24216
842.385	24197
842.522	24467
842.659	24391
842.796	24220
842.933	24228
843.069	24239
843.206	24182
843.343	24357
843.479	24155
843.616	24053
843.752	24022
843.889	23958
844.025	24057
844.162	23965
844.298	24087
844.435	24106
844.571	24041
844.708	23942
844.844	24129
844.98	24053
845.117	24087
845.253	23901
845.389	23946
845.525	23817
845.661	23965
845.798	23703
845.934	23855
846.07	23817
846.206	23646
846.342	23920
846.478	23771
846.614	23471
846.75	23250
846.886	23455
847.022	23372
847.158	23383
847.294	23493
847.429	23554
847.565	23448
847.701	23493
847.837	23284
847.972	23288
848.108	23341
848.244	23235
848.379	23071
848.515	23018
848.65	22934
848.786	23052
848.921	22991
849.057	23151
849.192	23162
849.328	23075
849.463	22984
849.598	23056
849.734	22976
849.869	22866
850.004	22881
850.14	22797
850.275	22938
850.41	22725
850.545	22835
850.68	22679
850.815	22812
850.95	22698
851.085	22968
851.22	22824
851.355	22858
851.49	22740
851.625	22740
851.76	22843
851.895	22831
852.03	22660
852.165	22759
852.299	22869
852.434	22911
852.569	22889
852.703	22778
852.838	22881
852.973	22911
853.107	22908
853.242	22820
853.376	22668
853.511	22577
853.645	22573
853.78	22763
853.914	22622
854.048	22580
854.183	22725
854.317	22645
854.451	22691
854.585	22565
854.72	22584
854.854	22687
854.988	22577
855.122	22550
855.256	22546
855.39	22637
855.524	22759
855.658	22691
855.792	22569
855.926	22694
856.06	22687
856.194	22710
856.327	22516
856.461	22588
856.595	22497
856.729	22736
856.862	22706
856.996	22584
857.13	22649
857.263	22713
857.397	22721
857.53	22599
857.664	22679
857.797	22713
857.931	22717
858.064	22573
858.197	22733
858.331	22451
858.464	22546
858.597	22500
858.731	22588
858.864	22596
858.997	22634
859.13	22668
859.263	22713
859.396	22580
859.529	22679
859.662	22672
859.795	22538
859.928	22569
860.061	22706
860.194	22892
860.327	22630
860.46	22615
860.592	22664
860.725	22782
860.858	22797
860.99	22466
861.123	22603
861.256	22565
861.388	22691
861.521	23151
861.653	22497
861.786	22363
861.918	22497
862.05	22519
862.183	22577
862.315	22546
862.447	22588
862.58	22519
862.712	22405
862.844	22306
862.976	22322
863.108	22398
863.24	22683
863.372	22169
863.504	22341
863.636	22246
863.768	22200
863.9	22291
864.032	22284
864.164	22360
864.296	22287
864.428	22455
864.559	22421
864.691	22329
864.823	22124
864.954	22402
865.086	22173
865.217	22200
865.349	22086
865.48	22242
865.612	22181
865.743	22379
865.875	22093
866.006	22143
866.137	22230
866.269	22097
866.4	22147
866.531	21972
866.662	22131
866.793	22124
866.924	22017
867.055	22128
867.186	22063
867.317	22124
867.448	22044
867.579	22070
867.71	22013
867.841	22150
867.972	22109
868.103	22139
868.233	22154
868.364	22143
868.495	22230
868.625	22284
868.756	22474
868.886	22276
869.017	22367
869.147	22405
869.278	22363
869.408	22329
869.539	22272
869.669	22306
869.799	22367
869.929	22580
870.06	22538
870.19	22596
870.32	22653
870.45	22687
870.58	22797
870.71	22889
870.84	22782
870.97	22672
871.1	22668
871.23	22919
871.36	22968
871.489	22854
871.619	22942
871.749	23010
871.879	22930
872.008	23064
872.138	22991
872.267	22896
872.397	22812
872.526	22786
872.656	22831
872.785	22793
872.915	22972
873.044	22965
873.173	23003
873.303	23006
873.432	23075
873.561	23098
873.69	22934
873.819	23018
873.948	23071
874.077	23079
874.206	23025
874.335	22953
874.464	23132
874.593	23299
874.722	23197
874.851	23231
874.979	23292
875.108	23303
875.237	23147
875.365	23189
875.494	23128
875.623	23284
875.751	23132
875.88	23212
876.008	23273
876.136	23421
876.265	23634
876.393	23676
876.521	23661
876.65	23619
876.778	23600
876.906	23543
877.034	23455
877.162	23608
877.29	23543
877.418	23524
877.546	23646
877.674	23463
877.802	23505
877.93	23551
878.058	23463
878.185	23303
878.313	23551
878.441	23642
878.568	23353
878.696	23577
878.824	23638
878.951	23680
879.079	23714
879.206	23863
879.333	23767
879.461	23566
879.588	23646
879.715	23707
879.842	23741
879.97	23592
880.097	23292
880.224	23356
880.351	23471
880.478	23414
880.605	23242
880.732	23360
880.859	23630
880.986	23311
881.112	23360
881.239	23258
881.366	22949
881.493	23117
881.619	22885
881.746	22938
881.872	22995
881.999	22873
882.125	22820
882.252	22915
882.378	22984
882.505	22965
882.631	22797
882.757	22618
882.883	22599
883.01	22740
883.136	22588
883.262	22462
883.388	22432
883.514	22580
883.64	22592
883.766	22481
883.892	22325
884.018	22276
884.143	22455
884.269	22561
884.395	22261
884.52	22242
884.646	22223
884.772	22158
884.897	22112
885.023	22325
885.148	22310
885.274	22424
885.399	22314
885.524	22200
885.65	22261
885.775	22158
885.9	22131
886.025	22287
886.15	22211
886.275	22188
886.4	22200
886.525	22173
886.65	22131
886.775	22082
886.9	22249
887.025	22440
887.149	22246
887.274	22036
887.399	22124
887.523	21956
887.648	22017
887.773	21861
887.897	22105
888.021	21930
888.146	21888
888.27	22025
888.395	22032
888.519	21949
888.643	22006
888.767	21998
888.891	21831
889.015	21766
889.139	21789
889.263	21865
889.387	21770
889.511	22025
889.635	21903
889.759	21736
889.883	21728
890.006	21842
890.13	21884
890.254	21660
890.377	21675
890.501	21500
890.624	21477
890.748	21481
890.871	21412
890.995	21302
891.118	21226
891.241	21363
891.364	21344
891.488	21477
891.611	21397
891.734	21401
891.857	21439
891.98	21344
892.103	21336
892.226	21363
892.349	21237
892.471	21180
892.594	21176
892.717	21291
892.839	21188
892.962	21157
893.085	21325
893.207	21325
893.33	21176
893.452	21211
893.575	21245
893.697	21180
893.819	21374
893.941	21439
894.064	21279
894.186	21211
894.308	20986
894.43	21252
894.552	21313
894.674	21336
894.796	21112
894.918	21154
895.04	21165
895.161	21195
895.283	21310
895.405	21100
895.526	21226
895.648	21104
895.769	21302
895.891	21207
896.012	21214
896.134	21241
896.255	21332
896.376	21085
896.498	21085
896.619	21302
896.74	21237
896.861	21317
896.982	21523
897.103	21671
897.224	21469
897.345	21370
897.466	21469
897.587	21272
897.708	21519
897.828	21545
897.949	21355
898.07	21192
898.19	21287
898.311	21408
898.431	21469
898.552	21374
898.672	21378
898.792	21469
898.913	21386
899.033	21408
899.153	21100
899.273	21062
899.393	21195
899.513	21108
899.633	21161
899.753	21112
899.873	21001
899.993	21154
900.113	21116
900.232	20998
900.352	20880
900.472	20891
900.591	20826
900.711	20956
900.83	20807
900.95	20910
901.069	20952
901.189	20773
901.308	20594
901.427	20549
901.546	20412
901.665	20450
901.784	20423
901.904	20294
902.023	20240
902.141	20012
902.26	19997
902.379	19967
902.498	19940
902.617	19894
902.735	20046
902.854	19993
902.973	19814
903.091	19677
903.21	19696
903.328	19586
903.446	19392
903.565	19308
903.683	19514
903.801	19232
903.919	19396
904.038	19320
904.156	19145
904.274	19255
904.392	19141
904.51	19179
904.627	19019
904.745	19171
904.863	19137
904.981	18947
905.098	18871
905.216	18802
905.334	18821
905.451	18764
905.569	18741
905.686	18932
905.803	18821
905.921	18536
906.038	18715
906.155	18574
906.272	18521
906.389	18506
906.506	18353
906.623	18338
906.74	18361
906.857	18133
906.974	18220
907.091	18357
907.208	18467
907.324	18369
907.441	18155
907.557	18243
907.674	18125
907.79	18034
907.907	18019
908.023	18129
908.139	18091
908.256	17870
908.372	17961
908.488	17893
908.604	17897
908.72	17775
908.836	17847
908.952	17649
909.068	17699
909.184	17714
909.3	17741
909.415	17745
909.531	17794
909.647	17573
909.762	17600
909.878	17463
909.993	17486
910.108	17581
910.224	17512
910.339	17402
910.454	17376
910.57	17315
910.685	17216
910.8	17486
910.915	17490
911.03	17231
911.145	16999
911.259	17090
911.374	17067
911.489	16946
911.604	16831
911.718	16744
911.833	16801
911.947	16687
912.062	16580
912.176	16759
912.291	16748
912.405	16710
912.519	16991
912.633	16949
912.748	16843
912.862	16744
912.976	16447
913.09	16519
913.204	16615
913.318	16561
913.431	16679
913.545	16675
913.659	16812
913.772	16554
913.886	16413
914	16318
914.113	16440
914.226	16413
914.34	16436
914.453	16196
914.566	16546
914.68	16238
914.793	16230
914.906	16116
915.019	15922
915.132	15899
915.245	15979
915.358	16040
915.47	15956
915.583	16021
915.696	15937
915.809	16112
915.921	16124
916.034	15895
916.146	15831
916.259	15728
916.371	15930
916.483	15934
916.595	15774
916.708	15747
916.82	15808
916.932	15709
917.044	15797
917.156	15766
917.268	15603
917.38	15587
917.491	15545
917.603	15644
917.715	15633
917.826	15622
917.938	15561
918.049	15355
918.161	15492
918.272	15572
918.384	15584
918.495	15473
918.606	15393
918.717	15241
918.828	15329
918.939	15317
919.05	15180
919.161	15294
919.272	15066
919.383	15169
919.494	15412
919.604	15477
919.715	15218
919.826	15230
919.936	15237
920.047	15268
920.157	15313
920.267	15481
920.378	15188
920.488	15279
920.598	15492
920.708	15572
920.818	15340
920.928	15348
921.038	15523
921.148	15504
921.258	15211
921.368	15214
921.477	15032
921.587	14937
921.697	14842
921.806	15005
921.916	14861
922.025	14686
922.134	14621
922.244	14503
922.353	14575
922.462	14549
922.571	14400
922.68	14320
922.789	14221
922.898	14286
923.007	14256
923.116	14309
923.224	14286
923.333	14183
923.442	14103
923.55	14035
923.659	14199
923.767	14161
923.876	14046
923.984	14142
924.092	13978
924.201	13955
924.309	14050
924.417	13963
924.525	13841
924.633	13982
924.741	14663
924.849	13811
924.956	13814
925.064	13753
925.172	13601
925.279	13655
925.387	13677
925.494	13632
925.602	13712
925.709	13731
925.816	13495
925.924	13529
926.031	13575
926.138	13514
926.245	13601
926.352	13434
926.459	13620
926.566	13601
926.673	13510
926.779	13388
926.886	13346
926.993	13194
927.099	13164
927.206	13080
927.312	13031
927.419	13232
927.525	13187
927.631	13175
927.737	13103
927.843	13008
927.95	12924
928.056	13000
928.162	12943
928.267	12993
928.373	13658
928.479	13023
928.585	12787
928.69	12901
928.796	12947
928.901	12768
929.007	12681
929.112	12798
929.218	12779
929.323	12730
929.428	12684
929.533	12798
929.638	12612
929.743	12654
929.848	12677
929.953	12696
930.058	12547
930.163	12304
930.267	12285
930.372	12483
930.477	12334
930.581	12498
930.685	12361
930.79	12224
930.894	12277
930.998	12205
931.103	12289
931.207	11939
931.311	11855
931.415	11821
931.519	11623
931.623	11585
