Data from test_V78500241_3513.txt Node
Date: Fri Mar 25 16:06:08 CST 2022
User: usil
Spectrometer: V785-0024
Trigger mode: 0
Integration Time (sec): 4.000000E-1
Scans to average: 1
Nonlinearity correction enabled: false
Boxcar width: 0
Storing dark spectrum: false
XAxis mode: Wavelengths
Number of Pixels in Spectrum: 1024
>>>>>Begin Spectral Data<<<<<
801.071	28847
801.214	28698
801.356	28588
801.499	28447
801.641	28398
801.783	28440
801.926	28478
802.068	28459
802.211	28352
802.353	28363
802.496	28162
802.638	28173
802.78	28101
802.923	28074
803.065	28097
803.208	28070
803.35	28158
803.492	28341
803.635	28382
803.777	28196
803.919	28405
804.061	28656
804.204	28489
804.346	28257
804.488	28143
804.63	28550
804.773	28310
804.915	28413
805.057	28508
805.199	28481
805.341	28527
805.483	28546
805.626	28512
805.768	28489
805.91	28588
806.052	28550
806.194	28341
806.336	28683
806.478	28691
806.62	28485
806.762	28793
806.904	28812
807.046	29212
807.188	28957
807.33	29060
807.472	29006
807.614	29033
807.756	28908
807.898	28885
808.04	28858
808.182	28816
808.324	28942
808.465	28774
808.607	29216
808.749	29284
808.891	29440
809.033	29436
809.174	29368
809.316	29151
809.458	29277
809.6	29284
809.741	29398
809.883	29212
810.025	29619
810.166	29596
810.308	29505
810.45	29436
810.591	29509
810.733	29246
810.875	29414
811.016	29223
811.158	29235
811.299	29296
811.441	29543
811.582	29288
811.724	29258
811.865	29299
812.007	29204
812.148	29307
812.29	29368
812.431	29482
812.573	29756
812.714	29512
812.855	29859
812.997	29927
813.138	29912
813.279	29946
813.421	29870
813.562	29707
813.703	29611
813.845	29505
813.986	29185
814.127	29185
814.268	28908
814.41	29025
814.551	28957
814.692	29044
814.833	28930
814.974	28873
815.115	29079
815.256	28904
815.397	28927
815.539	28820
815.68	28755
815.821	28694
815.962	28771
816.103	28843
816.244	28774
816.385	28516
816.526	28618
816.666	28295
816.807	28344
816.948	28409
817.089	28481
817.23	28261
817.371	28348
817.512	28314
817.653	28242
817.793	28219
817.934	28162
818.075	28344
818.216	28344
818.356	28352
818.497	28131
818.638	28090
818.778	27987
818.919	28173
819.06	28272
819.2	28177
819.341	28188
819.481	28276
819.622	28322
819.762	28512
819.903	28626
820.043	28478
820.184	28466
820.324	28478
820.465	28478
820.605	28489
820.746	28413
820.886	28344
821.026	28413
821.167	28443
821.307	28516
821.447	28390
821.588	28223
821.728	28154
821.868	27972
822.008	27888
822.149	27755
822.289	27781
822.429	27629
822.569	27511
822.709	27485
822.849	27291
822.99	27454
823.13	27245
823.27	27321
823.41	27256
823.55	26880
823.69	27283
823.83	27070
823.97	27108
824.11	26956
824.25	26975
824.389	26929
824.529	26982
824.669	27047
824.809	27070
824.949	27108
825.089	27081
825.228	26910
825.368	26788
825.508	26830
825.648	26937
825.787	26971
825.927	26796
826.067	26815
826.206	26754
826.346	26899
826.485	26883
826.625	26849
826.765	27017
826.904	26986
827.044	26587
827.183	26571
827.323	26556
827.462	26686
827.601	26625
827.741	26450
827.88	26674
828.02	26442
828.159	26530
828.298	26571
828.437	26556
828.577	26571
828.716	26701
828.855	26621
828.994	26309
829.134	26252
829.273	26419
829.412	26214
829.551	26092
829.69	26256
829.829	26229
829.968	26347
830.107	26233
830.246	26244
830.385	26218
830.524	26259
830.663	26035
830.802	26027
830.941	25966
831.08	25868
831.219	26005
831.357	25830
831.496	26024
831.635	25780
831.774	25647
831.913	25746
832.051	25594
832.19	25487
832.329	25613
832.467	25651
832.606	25548
832.744	25464
832.883	25499
833.022	25460
833.16	25445
833.299	25556
833.437	25613
833.576	25582
833.714	25548
833.852	25628
833.991	25666
834.129	25666
834.267	25734
834.406	25571
834.544	25712
834.682	25597
834.821	25567
834.959	25696
835.097	25548
835.235	25605
835.373	25502
835.511	25476
835.65	25464
835.788	25506
835.926	25221
836.064	25141
836.202	25343
836.34	25540
836.478	25400
836.615	25312
836.753	25384
836.891	25339
837.029	25533
837.167	25301
837.305	25324
837.443	25301
837.58	25164
837.718	25289
837.856	25339
837.993	25187
838.131	25194
838.269	25164
838.406	25099
838.544	25000
838.681	24973
838.819	24837
838.956	24700
839.094	24502
839.231	24783
839.369	24837
839.506	25084
839.643	24905
839.781	24658
839.918	24726
840.055	24760
840.193	24620
840.33	24601
840.467	24642
840.604	24642
840.742	24943
840.879	24460
841.016	24597
841.153	24521
841.29	24764
841.427	24608
841.564	24673
841.701	24601
841.838	24441
841.975	24388
842.112	24452
842.249	24426
842.385	24311
842.522	24612
842.659	24410
842.796	24270
842.933	24251
843.069	24323
843.206	24315
843.343	24395
843.479	24490
843.616	24407
843.752	24072
843.889	24087
844.025	24277
844.162	24095
844.298	24266
844.435	24152
844.571	24102
844.708	24247
844.844	24296
844.98	24209
845.117	24144
845.253	24106
845.389	24091
845.525	24015
845.661	23923
845.798	23737
845.934	23885
846.07	23847
846.206	23889
846.342	24125
846.478	23843
846.614	23707
846.75	23535
846.886	23611
847.022	23634
847.158	23630
847.294	23661
847.429	23665
847.565	23680
847.701	23809
847.837	23269
847.972	23265
848.108	23212
848.244	23368
848.379	23197
848.515	23193
848.65	23162
848.786	23075
848.921	23200
849.057	23376
849.192	23303
849.328	23155
849.463	23143
849.598	23044
849.734	23159
849.869	23029
850.004	22987
850.14	22976
850.275	22908
850.41	22869
850.545	22820
850.68	22896
850.815	22984
850.95	22961
851.085	23170
851.22	23098
851.355	22896
851.49	22999
851.625	23003
851.76	22873
851.895	22946
852.03	22908
852.165	22869
852.299	22972
852.434	23098
852.569	22961
852.703	22953
852.838	22881
852.973	22999
853.107	23018
853.242	22850
853.376	22618
853.511	22596
853.645	22679
853.78	22919
853.914	22748
854.048	22778
854.183	22767
854.317	22812
854.451	22980
854.585	22649
854.72	22755
854.854	22839
854.988	22759
855.122	22752
855.256	22774
855.39	22771
855.524	22915
855.658	22820
855.792	22790
855.926	22820
856.06	22843
856.194	22854
856.327	22801
856.461	22679
856.595	22656
856.729	22656
856.862	22896
856.996	22691
857.13	22767
857.263	22812
857.397	22748
857.53	22812
857.664	22801
857.797	22752
857.931	22805
858.064	22824
858.197	22828
858.331	22790
858.464	22736
858.597	22656
858.731	22706
858.864	22649
858.997	22733
859.13	22805
859.263	22869
859.396	22881
859.529	22656
859.662	22588
859.795	22706
859.928	22824
860.061	22835
860.194	22968
860.327	22675
860.46	22786
860.592	22923
860.725	22889
860.858	22847
860.99	22733
861.123	22725
861.256	22672
861.388	22763
861.521	23288
861.653	22607
861.786	22592
861.918	22550
862.05	22603
862.183	22668
862.315	22641
862.447	22759
862.58	22653
862.712	22565
862.844	22375
862.976	22634
863.108	22523
863.24	22927
863.372	22402
863.504	22497
863.636	22447
863.768	22596
863.9	22436
864.032	22386
864.164	22447
864.296	22500
864.428	22447
864.559	22436
864.691	22592
864.823	22493
864.954	22421
865.086	22360
865.217	22428
865.349	22234
865.48	22398
865.612	22280
865.743	22459
865.875	22390
866.006	22268
866.137	22325
866.269	22265
866.4	22318
866.531	22173
866.662	22226
866.793	22310
866.924	22204
867.055	22257
867.186	22291
867.317	22211
867.448	22109
867.579	22276
867.71	22124
867.841	22268
867.972	22325
868.103	22219
868.233	22303
868.364	22291
868.495	22409
868.625	22485
868.756	22565
868.886	22398
869.017	22436
869.147	22634
869.278	22634
869.408	22691
869.539	22409
869.669	22630
869.799	22504
869.929	22748
870.06	22683
870.19	22767
870.32	22733
870.45	22835
870.58	22908
870.71	22930
870.84	22995
870.97	22869
871.1	22915
871.23	23056
871.36	22949
871.489	22991
871.619	23029
871.749	23090
871.879	23155
872.008	23155
872.138	23185
872.267	23033
872.397	22953
872.526	22934
872.656	22847
872.785	22946
872.915	23033
873.044	23223
873.173	23159
873.303	23284
873.432	23067
873.561	23178
873.69	23155
873.819	23048
873.948	23121
874.077	23086
874.206	23060
874.335	23128
874.464	23212
874.593	23383
874.722	23258
874.851	23398
874.979	23459
875.108	23425
875.237	23246
875.365	23128
875.494	23315
875.623	23414
875.751	23296
875.88	23402
876.008	23444
876.136	23528
876.265	23767
876.393	23760
876.521	23851
876.65	23790
876.778	23874
876.906	23733
877.034	23684
877.162	23577
877.29	23478
877.418	23710
877.546	23748
877.674	23642
877.802	23767
877.93	23748
878.058	23573
878.185	23520
878.313	23581
878.441	23535
878.568	23360
878.696	23627
878.824	23718
878.951	23764
879.079	23745
879.206	23996
879.333	23813
879.461	23581
879.588	23752
879.715	23779
879.842	23916
879.97	23699
880.097	23395
880.224	23554
880.351	23406
880.478	23509
880.605	23512
880.732	23512
880.859	23733
880.986	23452
881.112	23509
881.239	23391
881.366	23181
881.493	23086
881.619	23006
881.746	23147
881.872	23037
881.999	22919
882.125	22957
882.252	23056
882.378	22965
882.505	23140
882.631	22873
882.757	22835
882.883	22771
883.01	22691
883.136	22653
883.262	22615
883.388	22554
883.514	22748
883.64	22786
883.766	22679
883.892	22485
884.018	22535
884.143	22736
884.269	22812
884.395	22443
884.52	22386
884.646	22405
884.772	22268
884.897	22116
885.023	22341
885.148	22333
885.274	22538
885.399	22497
885.524	22360
885.65	22447
885.775	22299
885.9	22459
886.025	22371
886.15	22409
886.275	22314
886.4	22223
886.525	22382
886.65	22341
886.775	22276
886.9	22493
887.025	22527
887.149	22242
887.274	22055
887.399	22154
887.523	22162
887.648	22067
887.773	22055
887.897	22158
888.021	22101
888.146	22032
888.27	22150
888.395	22226
888.519	22204
888.643	22139
888.767	22158
888.891	22112
889.015	21827
889.139	21998
889.263	21873
889.387	21987
889.511	22223
889.635	21918
889.759	21789
889.883	21861
890.006	21873
890.13	21953
890.254	21793
890.377	21747
890.501	21641
890.624	21705
890.748	21603
890.871	21564
890.995	21435
891.118	21378
891.241	21462
891.364	21424
891.488	21526
891.611	21443
891.734	21466
891.857	21564
891.98	21420
892.103	21401
892.226	21534
892.349	21401
892.471	21154
892.594	21252
892.717	21294
892.839	21351
892.962	21367
893.085	21389
893.207	21207
893.33	21173
893.452	21393
893.575	21420
893.697	21264
893.819	21500
893.941	21485
894.064	21553
894.186	21272
894.308	21211
894.43	21397
894.552	21549
894.674	21435
894.796	21245
894.918	21272
895.04	21287
895.161	21530
895.283	21466
895.405	21157
895.526	21325
895.648	21241
895.769	21370
895.891	21272
896.012	21382
896.134	21355
896.255	21184
896.376	21310
896.498	21230
896.619	21374
896.74	21188
896.861	21230
896.982	21660
897.103	21694
897.224	21485
897.345	21408
897.466	21340
897.587	21473
897.708	21610
897.828	21462
897.949	21515
898.07	21325
898.19	21443
898.311	21534
898.431	21408
898.552	21443
898.672	21526
898.792	21500
898.913	21435
899.033	21355
899.153	21275
899.273	21176
899.393	21249
899.513	21264
899.633	21252
899.753	21351
899.873	21138
899.993	21154
900.113	21169
900.232	21226
900.352	21009
900.472	20982
900.591	20979
900.711	20994
900.83	20937
900.95	21074
901.069	20910
901.189	20796
901.308	20617
901.427	20488
901.546	20587
901.665	20579
901.784	20579
901.904	20366
902.023	20374
902.141	20077
902.26	20043
902.379	20134
902.498	19951
902.617	20039
902.735	20100
902.854	19883
902.973	19913
903.091	19814
903.21	19689
903.328	19719
903.446	19552
903.565	19480
903.683	19476
903.801	19400
903.919	19514
904.038	19605
904.156	19320
904.274	19343
904.392	19190
904.51	19301
904.627	19225
904.745	19255
904.863	19236
904.981	19008
905.098	18837
905.216	18973
905.334	18859
905.451	18943
905.569	19008
905.686	19042
905.803	18833
905.921	18642
906.038	18772
906.155	18783
906.272	18589
906.389	18684
906.506	18608
906.623	18486
906.74	18471
906.857	18247
906.974	18353
907.091	18509
907.208	18608
907.324	18467
907.441	18350
907.557	18197
907.674	18178
907.79	18159
907.907	18155
908.023	18289
908.139	18125
908.256	18110
908.372	18030
908.488	17980
908.604	17935
908.72	17878
908.836	17824
908.952	17920
909.068	17889
909.184	17973
909.3	17866
909.415	17931
909.531	17821
909.647	17600
909.762	17661
909.878	17596
909.993	17710
910.108	17608
910.224	17566
910.339	17585
910.454	17414
910.57	17372
910.685	17334
910.8	17627
910.915	17524
911.03	17292
911.145	17208
911.259	17052
911.374	17147
911.489	17159
911.604	17029
911.718	16995
911.833	16900
911.947	16824
912.062	16786
912.176	16980
912.291	16961
912.405	16877
912.519	17086
912.633	17090
912.748	16938
912.862	16927
912.976	16702
913.09	16615
913.204	16641
913.318	16702
913.431	16908
913.545	16702
913.659	16862
913.772	16736
913.886	16516
914	16626
914.113	16599
914.226	16725
914.34	16493
914.453	16398
914.566	16592
914.68	16459
914.793	16341
914.906	16204
915.019	16078
915.132	15975
915.245	16177
915.358	16071
915.47	16135
915.583	16097
915.696	16055
915.809	16204
915.921	16109
916.034	16029
916.146	16036
916.259	15987
916.371	16082
916.483	15918
916.595	15934
916.708	15880
916.82	15854
916.932	15934
917.044	15964
917.156	15831
917.268	15705
917.38	15713
917.491	15629
917.603	15671
917.715	15778
917.826	15812
917.938	15618
918.049	15515
918.161	15618
918.272	15785
918.384	15713
918.495	15564
918.606	15378
918.717	15389
918.828	15431
918.939	15477
919.05	15355
919.161	15412
919.272	15264
919.383	15237
919.494	15393
919.604	15641
919.715	15443
919.826	15340
919.936	15447
920.047	15401
920.157	15439
920.267	15538
920.378	15439
920.488	15298
920.598	15549
920.708	15778
920.818	15545
920.928	15542
921.038	15648
921.148	15648
921.258	15218
921.368	15230
921.477	15112
921.587	15055
921.697	14979
921.806	15127
921.916	14914
922.025	14750
922.134	14712
922.244	14674
922.353	14849
922.462	14583
922.571	14522
922.68	14427
922.789	14317
922.898	14370
923.007	14298
923.116	14347
923.224	14393
923.333	14336
923.442	14062
923.55	14149
923.659	14317
923.767	14263
923.876	14077
923.984	14168
924.092	14069
924.201	14237
924.309	14031
924.417	14054
924.525	13963
924.633	13986
924.741	14948
924.849	13860
924.956	13932
925.064	13799
925.172	13643
925.279	13715
925.387	13803
925.494	13734
925.602	13951
925.709	13761
925.816	13643
925.924	13662
926.031	13727
926.138	13647
926.245	13696
926.352	13544
926.459	13696
926.566	13750
926.673	13643
926.779	13396
926.886	13354
926.993	13384
927.099	13236
927.206	13247
927.312	13168
927.419	13335
927.525	13285
927.631	13324
927.737	13179
927.843	13061
927.95	13122
928.056	13099
928.162	13110
928.267	13160
928.373	13738
928.479	13091
928.585	12871
928.69	12954
928.796	13053
928.901	12924
929.007	12817
929.112	12882
929.218	12837
929.323	12757
929.428	12749
929.533	12913
929.638	12722
929.743	12734
929.848	12798
929.953	12734
930.058	12677
930.163	12479
930.267	12479
930.372	12612
930.477	12414
930.581	12627
930.685	12540
930.79	12410
930.894	12365
930.998	12243
931.103	12448
931.207	12079
931.311	12034
931.415	11794
931.519	11657
931.623	11756
