Data from test_V78500241_2083.txt Node
Date: Fri Mar 25 15:56:13 CST 2022
User: usil
Spectrometer: V785-0024
Trigger mode: 0
Integration Time (sec): 4.000000E-1
Scans to average: 1
Nonlinearity correction enabled: false
Boxcar width: 0
Storing dark spectrum: false
XAxis mode: Wavelengths
Number of Pixels in Spectrum: 1024
>>>>>Begin Spectral Data<<<<<
801.071	29307
801.214	29284
801.356	28980
801.499	29044
801.641	28991
801.783	28793
801.926	28869
802.068	28980
802.211	28797
802.353	28759
802.496	28706
802.638	28599
802.78	28386
802.923	28447
803.065	28504
803.208	28573
803.35	28664
803.492	28683
803.635	28843
803.777	28687
803.919	28824
804.061	29136
804.204	28991
804.346	28850
804.488	28828
804.63	28847
804.773	28778
804.915	28957
805.057	29079
805.199	28835
805.341	28999
805.483	28946
805.626	29056
805.768	28831
805.91	28949
806.052	28946
806.194	28854
806.336	29086
806.478	29124
806.62	29102
806.762	29178
806.904	29341
807.046	29573
807.188	29535
807.33	29512
807.472	29482
807.614	29486
807.756	29528
807.898	29410
808.04	29284
808.182	29349
808.324	29337
808.465	29330
808.607	29661
808.749	29794
808.891	29874
809.033	29756
809.174	29874
809.316	29767
809.458	29737
809.6	29672
809.741	29745
809.883	30060
810.025	30072
810.166	30049
810.308	30148
810.45	29969
810.591	29851
810.733	29729
810.875	29783
811.016	29798
811.158	29695
811.299	29794
811.441	29992
811.582	29893
811.724	29623
811.865	29649
812.007	29718
812.148	29794
812.29	29893
812.431	29954
812.573	30045
812.714	30247
812.855	30163
812.997	30399
813.138	30540
813.279	30349
813.421	30456
813.562	30243
813.703	30015
813.845	29980
813.986	29668
814.127	29436
814.268	29493
814.41	29589
814.551	29383
814.692	29608
814.833	29337
814.974	29334
815.115	29398
815.256	29349
815.397	29349
815.539	29334
815.68	29368
815.821	29303
815.962	29326
816.103	29318
816.244	29200
816.385	29155
816.526	29086
816.666	28892
816.807	28782
816.948	28911
817.089	28991
817.23	28919
817.371	28809
817.512	28938
817.653	28706
817.793	28733
817.934	28835
818.075	28896
818.216	28831
818.356	28847
818.497	28694
818.638	28557
818.778	28500
818.919	28725
819.06	28691
819.2	28729
819.341	28850
819.481	28854
819.622	28957
819.762	29292
819.903	29029
820.043	29060
820.184	29037
820.324	28995
820.465	29147
820.605	28949
820.746	28911
820.886	28812
821.026	28877
821.167	28934
821.307	28946
821.447	28869
821.588	28843
821.728	28694
821.868	28557
822.008	28394
822.149	28508
822.289	28299
822.429	28063
822.569	27968
822.709	28029
822.849	27953
822.99	27926
823.13	27686
823.27	27895
823.41	27637
823.55	27488
823.69	27629
823.83	27698
823.97	27652
824.11	27542
824.25	27450
824.389	27485
824.529	27424
824.669	27397
824.809	27545
824.949	27724
825.089	27477
825.228	27538
825.368	27294
825.508	27374
825.648	27504
825.787	27336
825.927	27534
826.067	27393
826.206	27298
826.346	27439
826.485	27431
826.625	27439
826.765	27618
826.904	27397
827.044	27184
827.183	27077
827.323	27112
827.462	27214
827.601	27138
827.741	27119
827.88	27100
828.02	26956
828.159	27009
828.298	27074
828.437	27127
828.577	27005
828.716	27036
828.855	27032
828.994	26754
829.134	26743
829.273	26781
829.412	26678
829.551	26724
829.69	26819
829.829	26868
829.968	26811
830.107	26762
830.246	26796
830.385	26674
830.524	26735
830.663	26541
830.802	26461
830.941	26347
831.08	26263
831.219	26305
831.357	26324
831.496	26571
831.635	26366
831.774	26309
831.913	26210
832.051	26301
832.19	26237
832.329	26126
832.467	26024
832.606	25955
832.744	25989
832.883	25947
833.022	25898
833.16	25986
833.299	26183
833.437	25986
833.576	26039
833.714	26046
833.852	26130
833.991	26054
834.129	26282
834.267	26172
834.406	26107
834.544	26202
834.682	26103
834.821	26115
834.959	26248
835.097	26130
835.235	26142
835.373	26115
835.511	26050
835.65	25951
835.788	25909
835.926	25814
836.064	25742
836.202	25780
836.34	25890
836.478	25963
836.615	25913
836.753	25997
836.891	25906
837.029	25902
837.167	25966
837.305	25822
837.443	25772
837.58	25628
837.718	25845
837.856	25837
837.993	25708
838.131	25761
838.269	25609
838.406	25567
838.544	25647
838.681	25422
838.819	25278
838.956	25194
839.094	25236
839.231	25285
839.369	25343
839.506	25575
839.643	25415
839.781	25274
839.918	25095
840.055	25232
840.193	25084
840.33	25023
840.467	25221
840.604	25053
840.742	25457
840.879	24992
841.016	24973
841.153	24916
841.29	25164
841.427	25126
841.564	25103
841.701	25091
841.838	25061
841.975	25145
842.112	25069
842.249	24840
842.385	24821
842.522	25038
842.659	24996
842.796	24795
842.933	24741
843.069	24814
843.206	24806
843.343	24806
843.479	24928
843.616	24924
843.752	24760
843.889	24559
844.025	24806
844.162	24498
844.298	24745
844.435	24639
844.571	24597
844.708	24612
844.844	24810
844.98	24604
845.117	24711
845.253	24544
845.389	24372
845.525	24441
845.661	24498
845.798	24224
845.934	24395
846.07	24365
846.206	24407
846.342	24369
846.478	24285
846.614	24285
846.75	24060
846.886	24136
847.022	24015
847.158	24159
847.294	24102
847.429	24201
847.565	24106
847.701	24174
847.837	23790
847.972	23802
848.108	23790
848.244	23802
848.379	23843
848.515	23733
848.65	23634
848.786	23695
848.921	23482
849.057	23665
849.192	23646
849.328	23684
849.463	23657
849.598	23535
849.734	23562
849.869	23463
850.004	23326
850.14	23429
850.275	23436
850.41	23372
850.545	23372
850.68	23326
850.815	23474
850.95	23395
851.085	23623
851.22	23490
851.355	23425
851.49	23376
851.625	23402
851.76	23433
851.895	23349
852.03	23391
852.165	23429
852.299	23543
852.434	23524
852.569	23528
852.703	23387
852.838	23531
852.973	23558
853.107	23497
853.242	23326
853.376	23288
853.511	23166
853.645	23216
853.78	23337
853.914	23250
854.048	23113
854.183	23174
854.317	23166
854.451	23501
854.585	23170
854.72	23197
854.854	23216
854.988	23155
855.122	23166
855.256	23151
855.39	23254
855.524	23269
855.658	23322
855.792	23189
855.926	23162
856.06	23284
856.194	23261
856.327	23162
856.461	23048
856.595	23208
856.729	23193
856.862	23292
856.996	23326
857.13	23410
857.263	23326
857.397	23364
857.53	23216
857.664	23155
857.797	23315
857.931	23376
858.064	23231
858.197	23406
858.331	23193
858.464	23288
858.597	23147
858.731	23128
858.864	23170
858.997	23136
859.13	23174
859.263	23288
859.396	23292
859.529	23124
859.662	23136
859.795	23189
859.928	23254
860.061	23296
860.194	23360
860.327	23284
860.46	23166
860.592	23318
860.725	23440
860.858	23387
860.99	23242
861.123	23155
861.256	23109
861.388	23166
861.521	23920
861.653	23178
861.786	22980
861.918	23204
862.05	23006
862.183	23212
862.315	23166
862.447	23181
862.58	23105
862.712	22927
862.844	22873
862.976	22942
863.108	22942
863.24	23376
863.372	22850
863.504	23048
863.636	22824
863.768	23071
863.9	22957
864.032	22965
864.164	22953
864.296	22892
864.428	22984
864.559	22953
864.691	22957
864.823	22919
864.954	22896
865.086	22968
865.217	22801
865.349	22641
865.48	22793
865.612	22748
865.743	23014
865.875	22805
866.006	22782
866.137	22767
866.269	22816
866.4	22763
866.531	22698
866.662	22755
866.793	22637
866.924	22668
867.055	22710
867.186	22706
867.317	22660
867.448	22573
867.579	22744
867.71	22694
867.841	22550
867.972	22786
868.103	22664
868.233	22717
868.364	22691
868.495	22759
868.625	22911
868.756	23037
868.886	22953
869.017	22980
869.147	23086
869.278	23090
869.408	22957
869.539	22942
869.669	23071
869.799	22995
869.929	23128
870.06	23025
870.19	23353
870.32	23326
870.45	23212
870.58	23280
870.71	23543
870.84	23398
870.97	23277
871.1	23315
871.23	23570
871.36	23535
871.489	23368
871.619	23429
871.749	23376
871.879	23467
872.008	23684
872.138	23570
872.267	23459
872.397	23516
872.526	23356
872.656	23307
872.785	23406
872.915	23474
873.044	23665
873.173	23520
873.303	23505
873.432	23672
873.561	23596
873.69	23676
873.819	23566
873.948	23710
874.077	23467
874.206	23509
874.335	23619
874.464	23539
874.593	23828
874.722	23779
874.851	23798
874.979	23767
875.108	23805
875.237	23634
875.365	23722
875.494	23745
875.623	23828
875.751	23745
875.88	23870
876.008	23798
876.136	23866
876.265	24133
876.393	24292
876.521	24266
876.65	24174
876.778	24102
876.906	24038
877.034	24076
877.162	24018
877.29	23961
877.418	24148
877.546	23965
877.674	24030
877.802	24087
877.93	24163
878.058	23992
878.185	23946
878.313	23980
878.441	24045
878.568	23885
878.696	24121
878.824	24114
878.951	24171
879.079	24277
879.206	24505
879.333	24361
879.461	24254
879.588	24247
879.715	24243
879.842	24327
879.97	24186
880.097	23840
880.224	23946
880.351	24007
880.478	23889
880.605	23813
880.732	24003
880.859	24060
880.986	23988
881.112	23851
881.239	23756
881.366	23649
881.493	23467
881.619	23444
881.746	23387
881.872	23433
881.999	23376
882.125	23372
882.252	23402
882.378	23516
882.505	23493
882.631	23292
882.757	23178
882.883	23273
883.01	23220
883.136	23189
883.262	23018
883.388	22942
883.514	23102
883.64	23147
883.766	22942
883.892	22847
884.018	23029
884.143	23006
884.269	23071
884.395	22771
884.52	22790
884.646	22767
884.772	22721
884.897	22687
885.023	22752
885.148	22748
885.274	22839
885.399	22904
885.524	22725
885.65	22755
885.775	22748
885.9	22725
886.025	22847
886.15	22831
886.275	22706
886.4	22615
886.525	22656
886.65	22603
886.775	22660
886.9	22915
887.025	22949
887.149	22771
887.274	22466
887.399	22440
887.523	22462
887.648	22485
887.773	22523
887.897	22607
888.021	22554
888.146	22428
888.27	22474
888.395	22656
888.519	22554
888.643	22622
888.767	22557
888.891	22318
889.015	22276
889.139	22306
889.263	22299
889.387	22405
889.511	22504
889.635	22398
889.759	22257
889.883	22200
890.006	22234
890.13	22493
890.254	22265
890.377	22162
890.501	22040
890.624	21903
890.748	22013
890.871	21903
890.995	21766
891.118	21789
891.241	21800
891.364	21854
891.488	21953
891.611	21812
891.734	21804
891.857	21831
891.98	21827
892.103	21865
892.226	21747
892.349	21743
892.471	21534
892.594	21675
892.717	21618
892.839	21599
892.962	21682
893.085	21736
893.207	21660
893.33	21515
893.452	21576
893.575	21622
893.697	21652
893.819	21816
893.941	21812
894.064	21835
894.186	21538
894.308	21580
894.43	21679
894.552	21667
894.674	21785
894.796	21583
894.918	21724
895.04	21648
895.161	21743
895.283	21724
895.405	21671
895.526	21701
895.648	21652
895.769	21694
895.891	21595
896.012	21709
896.134	21709
896.255	21732
896.376	21572
896.498	21660
896.619	21633
896.74	21557
896.861	21679
896.982	21964
897.103	22025
897.224	21998
897.345	21968
897.466	21827
897.587	21949
897.708	21998
897.828	21869
897.949	21739
898.07	21728
898.19	21766
898.311	21903
898.431	21808
898.552	21945
898.672	21994
898.792	21854
898.913	21778
899.033	21724
899.153	21614
899.273	21561
899.393	21610
899.513	21587
899.633	21641
899.753	21671
899.873	21519
899.993	21599
900.113	21485
900.232	21534
900.352	21469
900.472	21313
900.591	21363
900.711	21393
900.83	21344
900.95	21389
901.069	21443
901.189	21176
901.308	21013
901.427	20933
901.546	20857
901.665	20838
901.784	20872
901.904	20663
902.023	20674
902.141	20396
902.26	20343
902.379	20473
902.498	20343
902.617	20446
902.735	20507
902.854	20214
902.973	20343
903.091	20046
903.21	20130
903.328	20077
903.446	20073
903.565	19887
903.683	19761
903.801	19708
903.919	19731
904.038	19746
904.156	19552
904.274	19643
904.392	19521
904.51	19552
904.627	19544
904.745	19533
904.863	19518
904.981	19438
905.098	19179
905.216	19304
905.334	19244
905.451	19228
905.569	19198
905.686	19308
905.803	19107
905.921	18970
906.038	19126
906.155	18958
906.272	19012
906.389	18913
906.506	18753
906.623	18726
906.74	18715
906.857	18570
906.974	18722
907.091	18844
907.208	18730
907.324	18772
907.441	18673
907.557	18528
907.674	18403
907.79	18380
907.907	18475
908.023	18494
908.139	18456
908.256	18460
908.372	18380
908.488	18365
908.604	18178
908.72	18167
908.836	18224
908.952	18155
909.068	18182
909.184	18270
909.3	18110
909.415	18152
909.531	18178
909.647	17824
909.762	17927
909.878	17798
909.993	17863
910.108	17847
910.224	17764
910.339	17836
910.454	17745
910.57	17729
910.685	17516
910.8	17843
910.915	17718
911.03	17733
911.145	17376
911.259	17337
911.374	17444
911.489	17421
911.604	17216
911.718	17109
911.833	17094
911.947	17083
912.062	17132
912.176	17231
912.291	17223
912.405	17204
912.519	17284
912.633	17299
912.748	17239
912.862	17102
912.976	17048
913.09	16904
913.204	16968
913.318	17003
913.431	17166
913.545	16980
913.659	16999
913.772	16900
913.886	16812
914	16824
914.113	16774
914.226	16850
914.34	16717
914.453	16710
914.566	16866
914.68	16683
914.793	16641
914.906	16424
915.019	16436
915.132	16299
915.245	16299
915.358	16276
915.47	16310
915.583	16242
915.696	16253
915.809	16417
915.921	16379
916.034	16276
916.146	16204
916.259	16192
916.371	16295
916.483	16249
916.595	16211
916.708	16192
916.82	16131
916.932	16021
917.044	16044
917.156	16093
917.268	15895
917.38	15953
917.491	15903
917.603	15949
917.715	16025
917.826	16006
917.938	15762
918.049	15762
918.161	15869
918.272	15979
918.384	15899
918.495	15892
918.606	15698
918.717	15648
918.828	15770
918.939	15739
919.05	15492
919.161	15591
919.272	15500
919.383	15405
919.494	15709
919.604	15793
919.715	15553
919.826	15587
919.936	15538
920.047	15606
920.157	15614
920.267	15857
920.378	15644
920.488	15618
920.598	15781
920.708	15854
920.818	15717
920.928	15717
921.038	15903
921.148	15823
921.258	15576
921.368	15447
921.477	15401
921.587	15294
921.697	15241
921.806	15348
921.916	15184
922.025	14967
922.134	14979
922.244	14971
922.353	14918
922.462	14800
922.571	14788
922.68	14648
922.789	14545
922.898	14526
923.007	14514
923.116	14617
923.224	14511
923.333	14564
923.442	14434
923.55	14419
923.659	14385
923.767	14404
923.876	14415
923.984	14488
924.092	14290
924.201	14210
924.309	14313
924.417	14320
924.525	14278
924.633	14305
924.741	15161
924.849	14020
924.956	14069
925.064	13913
925.172	13883
925.279	13947
925.387	13932
925.494	13921
925.602	14119
925.709	14008
925.816	13871
925.924	13879
926.031	13963
926.138	13818
926.245	13822
926.352	13765
926.459	13887
926.566	13811
926.673	13772
926.779	13746
926.886	13609
926.993	13510
927.099	13483
927.206	13430
927.312	13335
927.419	13487
927.525	13491
927.631	13422
927.737	13419
927.843	13255
927.95	13247
928.056	13304
928.162	13263
928.267	13308
928.373	13932
928.479	13384
928.585	13122
928.69	13194
928.796	13369
928.901	13129
929.007	12973
929.112	13095
929.218	13107
929.323	13042
929.428	12951
929.533	13122
929.638	12901
929.743	12924
929.848	12951
929.953	12875
930.058	12806
930.163	12760
930.267	12677
930.372	12749
930.477	12578
930.581	12856
930.685	12684
930.79	12433
930.894	12506
930.998	12525
931.103	12627
931.207	12247
931.311	12201
931.415	12076
931.519	11802
931.623	11824
