Data from test_V78500241_1048.txt Node
Date: Fri Mar 25 15:49:03 CST 2022
User: usil
Spectrometer: V785-0024
Trigger mode: 0
Integration Time (sec): 4.000000E-1
Scans to average: 1
Nonlinearity correction enabled: false
Boxcar width: 0
Storing dark spectrum: false
XAxis mode: Wavelengths
Number of Pixels in Spectrum: 1024
>>>>>Begin Spectral Data<<<<<
801.071	28459
801.214	28386
801.356	28131
801.499	28150
801.641	27998
801.783	27922
801.926	28067
802.068	28059
802.211	28006
802.353	27876
802.496	27808
802.638	27481
802.78	27576
802.923	27675
803.065	27637
803.208	27701
803.35	27713
803.492	27698
803.635	27979
803.777	27781
803.919	27953
804.061	28131
804.204	27884
804.346	27895
804.488	27835
804.63	27937
804.773	27819
804.915	27934
805.057	28017
805.199	27892
805.341	28029
805.483	28105
805.626	28109
805.768	27979
805.91	28109
806.052	28036
806.194	27991
806.336	28276
806.478	28162
806.62	28116
806.762	28204
806.904	28352
807.046	28519
807.188	28485
807.33	28481
807.472	28519
807.614	28554
807.756	28466
807.898	28230
808.04	28352
808.182	28280
808.324	28413
808.465	28535
808.607	28554
808.749	28748
808.891	28881
809.033	28953
809.174	28656
809.316	28744
809.458	28786
809.6	28755
809.741	28888
809.883	28908
810.025	29143
810.166	29014
810.308	29071
810.45	29033
810.591	28980
810.733	28622
810.875	28767
811.016	28767
811.158	28679
811.299	28812
811.441	28873
811.582	29143
811.724	28809
811.865	28710
812.007	28767
812.148	28790
812.29	28759
812.431	28911
812.573	29079
812.714	29193
812.855	29398
812.997	29543
813.138	29539
813.279	29482
813.421	29277
813.562	29353
813.703	29102
813.845	29029
813.986	28911
814.127	28649
814.268	28546
814.41	28615
814.551	28550
814.692	28497
814.833	28470
814.974	28443
815.115	28527
815.256	28356
815.397	28158
815.539	28401
815.68	28424
815.821	28074
815.962	28375
816.103	28318
816.244	28181
816.385	28036
816.526	28067
816.666	27846
816.807	27755
816.948	27823
817.089	27865
817.23	27888
817.371	27873
817.512	27679
817.653	27797
817.793	27694
817.934	27762
818.075	27732
818.216	27781
818.356	27694
818.497	27637
818.638	27443
818.778	27705
818.919	27416
819.06	27713
819.2	27682
819.341	27625
819.481	27895
819.622	27903
819.762	28207
819.903	28074
820.043	28032
820.184	27930
820.324	28017
820.465	28070
820.605	27941
820.746	27949
820.886	27956
821.026	27869
821.167	27793
821.307	28021
821.447	27884
821.588	27720
821.728	27644
821.868	27435
822.008	27291
822.149	27298
822.289	27279
822.429	27047
822.569	26925
822.709	27070
822.849	26899
822.99	26674
823.13	26663
823.27	26750
823.41	26746
823.55	26480
823.69	26590
823.83	26743
823.97	26461
824.11	26503
824.25	26161
824.389	26473
824.529	26514
824.669	26526
824.809	26541
824.949	26583
825.089	26587
825.228	26461
825.368	26244
825.508	26214
825.648	26221
825.787	26476
825.927	26499
826.067	26275
826.206	26259
826.346	26240
826.485	26476
826.625	26282
826.765	26423
826.904	26415
827.044	26161
827.183	26195
827.323	26142
827.462	26084
827.601	26058
827.741	26062
827.88	26111
828.02	25875
828.159	25966
828.298	26096
828.437	26058
828.577	26039
828.716	26256
828.855	25871
828.994	25788
829.134	25750
829.273	25772
829.412	25658
829.551	25750
829.69	25761
829.829	25822
829.968	25788
830.107	25852
830.246	25731
830.385	25738
830.524	25605
830.663	25632
830.802	25460
830.941	25377
831.08	25422
831.219	25438
831.357	25529
831.496	25601
831.635	25316
831.774	25327
831.913	25244
832.051	25331
832.19	25156
832.329	25099
832.467	25084
832.606	25038
832.744	24935
832.883	25164
833.022	25084
833.16	25088
833.299	25133
833.437	25072
833.576	25187
833.714	25122
833.852	25110
833.991	25110
834.129	25240
834.267	25156
834.406	25050
834.544	25225
834.682	25156
834.821	24954
834.959	25202
835.097	25023
835.235	25057
835.373	25175
835.511	24989
835.65	24871
835.788	24996
835.926	24863
836.064	24844
836.202	24768
836.34	24951
836.478	24958
836.615	24924
836.753	24992
836.891	24951
837.029	24996
837.167	24856
837.305	24840
837.443	24844
837.58	24787
837.718	24932
837.856	24814
837.993	24757
838.131	24814
838.269	24597
838.406	24627
838.544	24574
838.681	24418
838.819	24433
838.956	24285
839.094	24182
839.231	24342
839.369	24445
839.506	24658
839.643	24384
839.781	24209
839.918	24102
840.055	24163
840.193	24136
840.33	24152
840.467	24205
840.604	24254
840.742	24483
840.879	24068
841.016	24140
841.153	24003
841.29	24228
841.427	24007
841.564	24167
841.701	24133
841.838	24087
841.975	24068
842.112	24102
842.249	23927
842.385	23954
842.522	24155
842.659	24049
842.796	23912
842.933	23950
843.069	23851
843.206	23840
843.343	23980
843.479	23999
843.616	23901
843.752	23710
843.889	23710
844.025	23745
844.162	23707
844.298	23668
844.435	23608
844.571	23551
844.708	23680
844.844	23802
844.98	23836
845.117	23756
845.253	23630
845.389	23497
845.525	23493
845.661	23558
845.798	23387
845.934	23471
846.07	23303
846.206	23535
846.342	23486
846.478	23307
846.614	23143
846.75	22953
846.886	23136
847.022	23132
847.158	23140
847.294	23071
847.429	23185
847.565	23079
847.701	23239
847.837	22828
847.972	22790
848.108	22889
848.244	22995
848.379	22721
848.515	22637
848.65	22675
848.786	22687
848.921	22596
849.057	22828
849.192	22862
849.328	22615
849.463	22706
849.598	22550
849.734	22569
849.869	22557
850.004	22375
850.14	22466
850.275	22523
850.41	22447
850.545	22386
850.68	22428
850.815	22474
850.95	22512
851.085	22679
851.22	22615
851.355	22478
851.49	22447
851.625	22516
851.76	22470
851.895	22344
852.03	22367
852.165	22584
852.299	22508
852.434	22561
852.569	22523
852.703	22306
852.838	22436
852.973	22599
853.107	22580
853.242	22443
853.376	22367
853.511	22200
853.645	22219
853.78	22432
853.914	22249
854.048	22188
854.183	22272
854.317	22337
854.451	22497
854.585	22363
854.72	22226
854.854	22325
854.988	22196
855.122	22310
855.256	22162
855.39	22284
855.524	22344
855.658	22329
855.792	22215
855.926	22386
856.06	22314
856.194	22371
856.327	22291
856.461	22253
856.595	22226
856.729	22188
856.862	22356
856.996	22402
857.13	22394
857.263	22436
857.397	22276
857.53	22249
857.664	22398
857.797	22325
857.931	22569
858.064	22284
858.197	22466
858.331	22265
858.464	22162
858.597	22124
858.731	22181
858.864	22200
858.997	22185
859.13	22204
859.263	22238
859.396	22466
859.529	22223
859.662	22246
859.795	22162
859.928	22291
860.061	22333
860.194	22481
860.327	22310
860.46	22276
860.592	22459
860.725	22443
860.858	22459
860.99	22303
861.123	22200
861.256	22200
861.388	22333
861.521	23083
861.653	22109
861.786	22078
861.918	22044
862.05	22154
862.183	22143
862.315	22124
862.447	22230
862.58	22147
862.712	21972
862.844	21979
862.976	22101
863.108	22048
863.24	22527
863.372	21956
863.504	21983
863.636	21991
863.768	21983
863.9	22010
864.032	21926
864.164	21918
864.296	21987
864.428	22090
864.559	21987
864.691	21934
864.823	21960
864.954	21941
865.086	21903
865.217	21930
865.349	21675
865.48	21743
865.612	21857
865.743	22063
865.875	21903
866.006	21861
866.137	21915
866.269	21869
866.4	21854
866.531	21835
866.662	21797
866.793	21907
866.924	21831
867.055	21857
867.186	21781
867.317	21717
867.448	21770
867.579	21831
867.71	21694
867.841	21675
867.972	21778
868.103	21705
868.233	21880
868.364	21797
868.495	21823
868.625	21979
868.756	22246
868.886	22006
869.017	22032
869.147	22101
869.278	22223
869.408	22185
869.539	22048
869.669	22291
869.799	22215
869.929	22082
870.06	22265
870.19	22379
870.32	22268
870.45	22398
870.58	22436
870.71	22500
870.84	22607
870.97	22337
871.1	22531
871.23	22721
871.36	22717
871.489	22462
871.619	22497
871.749	22694
871.879	22725
872.008	22740
872.138	22618
872.267	22740
872.397	22462
872.526	22478
872.656	22417
872.785	22466
872.915	22668
873.044	22736
873.173	22592
873.303	22786
873.432	22641
873.561	22778
873.69	22664
873.819	22698
873.948	22854
874.077	22580
874.206	22660
874.335	22733
874.464	22713
874.593	22965
874.722	22961
874.851	22957
874.979	22946
875.108	22854
875.237	22858
875.365	22771
875.494	22869
875.623	22923
875.751	22782
875.88	22847
876.008	22930
876.136	23079
876.265	23159
876.393	23372
876.521	23254
876.65	23410
876.778	23280
876.906	23284
877.034	23208
877.162	23246
877.29	23296
877.418	23322
877.546	23189
877.674	23220
877.802	23212
877.93	23128
878.058	23170
878.185	23018
878.313	23075
878.441	23227
878.568	22942
878.696	23117
878.824	23189
878.951	23174
879.079	23448
879.206	23395
879.333	23414
879.461	23239
879.588	23395
879.715	23265
879.842	23444
879.97	23315
880.097	23029
880.224	23083
880.351	22991
880.478	23064
880.605	22972
880.732	23003
880.859	23292
880.986	23010
881.112	23056
881.239	23037
881.366	22786
881.493	22645
881.619	22577
881.746	22561
881.872	22424
881.999	22519
882.125	22481
882.252	22668
882.378	22493
882.505	22615
882.631	22470
882.757	22390
882.883	22398
883.01	22356
883.136	22211
883.262	22032
883.388	22185
883.514	22223
883.64	22356
883.766	22177
883.892	22048
884.018	22101
884.143	22169
884.269	22303
884.395	22105
884.52	21899
884.646	21854
884.772	21823
884.897	21857
885.023	21869
885.148	22032
885.274	22070
885.399	22040
885.524	21880
885.65	21892
885.775	21911
885.9	21934
886.025	21979
886.15	22010
886.275	21800
886.4	21819
886.525	21892
886.65	21812
886.775	21720
886.9	21960
887.025	22051
887.149	21789
887.274	21671
887.399	21656
887.523	21679
887.648	21538
887.773	21515
887.897	21778
888.021	21618
888.146	21557
888.27	21679
888.395	21781
888.519	21610
888.643	21667
888.767	21580
888.891	21580
889.015	21272
889.139	21519
889.263	21370
889.387	21496
889.511	21686
889.635	21530
889.759	21389
889.883	21458
890.006	21492
890.13	21466
890.254	21382
890.377	21180
890.501	21237
890.624	21146
890.748	21226
890.871	21077
890.995	20963
891.118	20963
891.241	20948
891.364	21009
891.488	21066
891.611	21032
891.734	21074
891.857	21020
891.98	21062
892.103	20937
892.226	20864
892.349	20941
892.471	20830
892.594	20842
892.717	20921
892.839	20914
892.962	20967
893.085	20982
893.207	21005
893.33	20754
893.452	20921
893.575	20868
893.697	20849
893.819	20982
893.941	20975
894.064	21127
894.186	20807
894.308	20800
894.43	20994
894.552	21032
894.674	21070
894.796	20796
894.918	20921
895.04	20853
895.161	21032
895.283	20849
895.405	20769
895.526	20746
895.648	20819
895.769	20929
895.891	20804
896.012	21009
896.134	20861
896.255	20762
896.376	20838
896.498	20967
896.619	21043
896.74	20975
896.861	20906
896.982	21241
897.103	21321
897.224	21176
897.345	21211
897.466	20975
897.587	21093
897.708	21051
897.828	21165
897.949	21017
898.07	20830
898.19	20918
898.311	21077
898.431	20960
898.552	20921
898.672	21237
898.792	21108
898.913	21020
899.033	20944
899.153	20921
899.273	20712
899.393	20849
899.513	20826
899.633	20834
899.753	20861
899.873	20872
899.993	20739
900.113	20743
900.232	20758
900.352	20705
900.472	20625
900.591	20583
900.711	20727
900.83	20560
900.95	20716
901.069	20701
901.189	20556
901.308	20233
901.427	20157
901.546	20092
901.665	20183
901.784	20122
901.904	20092
902.023	19868
902.141	19693
902.26	19742
902.379	19746
902.498	19772
902.617	19567
902.735	19795
902.854	19685
902.973	19563
903.091	19354
903.21	19320
903.328	19312
903.446	19171
903.565	19088
903.683	19164
903.801	19084
903.919	19038
904.038	19076
904.156	18966
904.274	18981
904.392	18897
904.51	18863
904.627	18863
904.745	18935
904.863	18905
904.981	18608
905.098	18593
905.216	18525
905.334	18574
905.451	18654
905.569	18589
905.686	18604
905.803	18517
905.921	18281
906.038	18456
906.155	18464
906.272	18319
906.389	18300
906.506	18053
906.623	17931
906.74	18068
906.857	17939
906.974	17935
907.091	18155
907.208	18171
907.324	18136
907.441	17969
907.557	17859
907.674	17794
907.79	17699
907.907	17832
908.023	17874
908.139	17855
908.256	17783
908.372	17771
908.488	17691
908.604	17634
908.72	17410
908.836	17596
908.952	17471
909.068	17471
909.184	17684
909.3	17566
909.415	17444
909.531	17444
909.647	17307
909.762	17288
909.878	17162
909.993	17242
910.108	17174
910.224	17132
910.339	17124
910.454	17124
910.57	17037
910.685	16965
910.8	17094
910.915	17083
911.03	16946
911.145	16771
911.259	16820
911.374	16873
911.489	16721
911.604	16668
911.718	16474
911.833	16500
911.947	16436
912.062	16436
912.176	16489
912.291	16634
912.405	16535
912.519	16733
912.633	16759
912.748	16622
912.862	16504
912.976	16356
913.09	16314
913.204	16246
913.318	16276
913.431	16382
913.545	16371
913.659	16409
913.772	16238
913.886	16135
914	16185
914.113	16173
914.226	16185
914.34	16154
914.453	16032
914.566	16215
914.68	15949
914.793	15987
914.906	15797
915.019	15793
915.132	15629
915.245	15675
915.358	15663
915.47	15633
915.583	15724
915.696	15747
915.809	15899
915.921	15762
916.034	15557
916.146	15458
916.259	15561
916.371	15698
916.483	15622
916.595	15580
916.708	15568
916.82	15679
916.932	15519
917.044	15496
917.156	15450
917.268	15359
917.38	15351
917.491	15325
917.603	15374
917.715	15526
917.826	15496
917.938	15275
918.049	15135
918.161	15260
918.272	15359
918.384	15412
918.495	15241
918.606	15127
918.717	15116
918.828	15089
918.939	15233
919.05	14967
919.161	15058
919.272	14899
919.383	14975
919.494	15157
919.604	15207
919.715	15066
919.826	15047
919.936	15089
920.047	15142
920.157	15066
920.267	15249
920.378	15058
920.488	14960
920.598	15211
920.708	15310
920.818	15058
920.928	15241
921.038	15382
921.148	15283
921.258	15036
921.368	14918
921.477	14769
921.587	14842
921.697	14693
921.806	14674
921.916	14625
922.025	14469
922.134	14469
922.244	14309
922.353	14423
922.462	14248
922.571	14218
922.68	14149
922.789	14005
922.898	14039
923.007	13970
923.116	14035
923.224	14107
923.333	14092
923.442	13852
923.55	13902
923.659	13936
923.767	13909
923.876	13776
923.984	13944
924.092	13670
924.201	13830
924.309	13765
924.417	13795
924.525	13662
924.633	13677
924.741	14427
924.849	13514
924.956	13719
925.064	13460
925.172	13445
925.279	13384
925.387	13506
925.494	13487
925.602	13632
925.709	13403
925.816	13343
925.924	13282
926.031	13411
926.138	13400
926.245	13392
926.352	13194
926.459	13384
926.566	13426
926.673	13350
926.779	13221
926.886	13175
926.993	13046
927.099	12901
927.206	12897
927.312	12947
927.419	12973
927.525	12909
927.631	13000
927.737	12943
927.843	12878
927.95	12688
928.056	12741
928.162	12825
928.267	12848
928.373	13324
928.479	12897
928.585	12635
928.69	12760
928.796	12817
928.901	12616
929.007	12563
929.112	12662
929.218	12601
929.323	12559
929.428	12582
929.533	12639
929.638	12391
929.743	12422
929.848	12525
929.953	12456
930.058	12289
930.163	12182
930.267	12270
930.372	12315
930.477	12167
930.581	12407
930.685	12190
930.79	12060
930.894	12110
930.998	12079
931.103	12140
931.207	11863
931.311	11756
931.415	11707
931.519	11391
931.623	11417
