Data from test_V78500241_1876.txt Node
Date: Fri Mar 25 15:54:47 CST 2022
User: usil
Spectrometer: V785-0024
Trigger mode: 0
Integration Time (sec): 4.000000E-1
Scans to average: 1
Nonlinearity correction enabled: false
Boxcar width: 0
Storing dark spectrum: false
XAxis mode: Wavelengths
Number of Pixels in Spectrum: 1024
>>>>>Begin Spectral Data<<<<<
801.071	28580
801.214	28554
801.356	28303
801.499	28333
801.641	28166
801.783	28090
801.926	28166
802.068	28211
802.211	28120
802.353	28109
802.496	28055
802.638	27873
802.78	27880
802.923	27743
803.065	27648
803.208	27732
803.35	27884
803.492	28070
803.635	28067
803.777	27880
803.919	28017
804.061	28257
804.204	28200
804.346	28017
804.488	27979
804.63	28090
804.773	28082
804.915	28177
805.057	28363
805.199	28029
805.341	28192
805.483	28386
805.626	28211
805.768	28173
805.91	28333
806.052	28276
806.194	28291
806.336	28504
806.478	28265
806.62	28295
806.762	28405
806.904	28481
807.046	28843
807.188	28706
807.33	28611
807.472	28729
807.614	28660
807.756	28656
807.898	28379
808.04	28561
808.182	28672
808.324	28508
808.465	28634
808.607	28858
808.749	28965
808.891	29052
809.033	29075
809.174	29102
809.316	28965
809.458	29048
809.6	28843
809.741	28965
809.883	29151
810.025	29227
810.166	29109
810.308	29307
810.45	29166
810.591	29117
810.733	29022
810.875	28835
811.016	28881
811.158	28892
811.299	29075
811.441	29067
811.582	29246
811.724	28942
811.865	28858
812.007	28881
812.148	28957
812.29	29056
812.431	29003
812.573	29273
812.714	29421
812.855	29554
812.997	29524
813.138	29657
813.279	29714
813.421	29459
813.562	29440
813.703	29174
813.845	29155
813.986	28927
814.127	28664
814.268	28691
814.41	28592
814.551	28672
814.692	28729
814.833	28504
814.974	28561
815.115	28691
815.256	28550
815.397	28466
815.539	28424
815.68	28447
815.821	28325
815.962	28443
816.103	28303
816.244	28356
816.385	28128
816.526	28367
816.666	27918
816.807	27759
816.948	28131
817.089	28048
817.23	28051
817.371	27964
817.512	27994
817.653	27861
817.793	27850
817.934	27751
818.075	28010
818.216	27964
818.356	28021
818.497	27907
818.638	27717
818.778	27793
818.919	27842
819.06	27793
819.2	27797
819.341	27892
819.481	28131
819.622	28010
819.762	28291
819.903	28055
820.043	28143
820.184	28059
820.324	28139
820.465	28177
820.605	27914
820.746	27994
820.886	27854
821.026	28093
821.167	28040
821.307	28188
821.447	28010
821.588	27831
821.728	27789
821.868	27720
822.008	27401
822.149	27412
822.289	27389
822.429	27142
822.569	26975
822.709	27131
822.849	26979
822.99	26899
823.13	26864
823.27	26921
823.41	26777
823.55	26663
823.69	26788
823.83	26883
823.97	26735
824.11	26564
824.25	26583
824.389	26511
824.529	26811
824.669	26587
824.809	26632
824.949	26651
825.089	26720
825.228	26735
825.368	26442
825.508	26617
825.648	26469
825.787	26560
825.927	26545
826.067	26343
826.206	26526
826.346	26457
826.485	26530
826.625	26434
826.765	26636
826.904	26587
827.044	26366
827.183	26282
827.323	26111
827.462	26195
827.601	26256
827.741	26130
827.88	26081
828.02	26035
828.159	26229
828.298	26206
828.437	26195
828.577	26119
828.716	26248
828.855	26035
828.994	25845
829.134	25799
829.273	25925
829.412	25845
829.551	25864
829.69	25753
829.829	25738
829.968	25856
830.107	25841
830.246	25860
830.385	25799
830.524	25807
830.663	25731
830.802	25715
830.941	25392
831.08	25521
831.219	25567
831.357	25369
831.496	25693
831.635	25499
831.774	25304
831.913	25362
832.051	25327
832.19	25301
832.329	25320
832.467	25148
832.606	25122
832.744	25107
832.883	25221
833.022	25179
833.16	25069
833.299	25141
833.437	25091
833.576	25209
833.714	25236
833.852	25255
833.991	25160
834.129	25194
834.267	25304
834.406	25225
834.544	25122
834.682	25118
834.821	25141
834.959	25339
835.097	25164
835.235	25327
835.373	25175
835.511	24996
835.65	25160
835.788	25088
835.926	24966
836.064	24817
836.202	24954
836.34	25141
836.478	25164
836.615	25072
836.753	24954
836.891	25095
837.029	24985
837.167	24973
837.305	24840
837.443	24787
837.58	24875
837.718	24951
837.856	24825
837.993	24730
838.131	24852
838.269	24608
838.406	24711
838.544	24654
838.681	24505
838.819	24494
838.956	24388
839.094	24171
839.231	24380
839.369	24597
839.506	24681
839.643	24418
839.781	24323
839.918	24213
840.055	24285
840.193	24334
840.33	24239
840.467	24201
840.604	24270
840.742	24399
840.879	24163
841.016	24026
841.153	24057
841.29	24384
841.427	24091
841.564	24178
841.701	24121
841.838	24254
841.975	24110
842.112	24121
842.249	23996
842.385	23904
842.522	24182
842.659	24140
842.796	23980
842.933	23984
843.069	23893
843.206	24003
843.343	24129
843.479	23977
843.616	23912
843.752	23828
843.889	23832
844.025	23939
844.162	23737
844.298	23859
844.435	23687
844.571	23718
844.708	23756
844.844	23809
844.98	23718
845.117	23714
845.253	23661
845.389	23551
845.525	23630
845.661	23539
845.798	23497
845.934	23387
846.07	23417
846.206	23482
846.342	23596
846.478	23497
846.614	23155
846.75	23060
846.886	23124
847.022	23189
847.158	23204
847.294	23098
847.429	23162
847.565	23121
847.701	23364
847.837	22942
847.972	22862
848.108	23044
848.244	23109
848.379	22980
848.515	22828
848.65	22687
848.786	22771
848.921	22733
849.057	22854
849.192	22923
849.328	22847
849.463	22862
849.598	22740
849.734	22664
849.869	22599
850.004	22668
850.14	22554
850.275	22626
850.41	22573
850.545	22554
850.68	22512
850.815	22637
850.95	22535
851.085	22668
851.22	22653
851.355	22653
851.49	22679
851.625	22481
851.76	22592
851.895	22527
852.03	22405
852.165	22497
852.299	22428
852.434	22542
852.569	22603
852.703	22565
852.838	22656
852.973	22611
853.107	22740
853.242	22489
853.376	22352
853.511	22185
853.645	22386
853.78	22379
853.914	22428
854.048	22280
854.183	22280
854.317	22493
854.451	22500
854.585	22379
854.72	22417
854.854	22440
854.988	22310
855.122	22280
855.256	22348
855.39	22295
855.524	22508
855.658	22436
855.792	22466
855.926	22386
856.06	22512
856.194	22382
856.327	22402
856.461	22188
856.595	22325
856.729	22329
856.862	22599
856.996	22390
857.13	22409
857.263	22436
857.397	22474
857.53	22325
857.664	22386
857.797	22413
857.931	22398
858.064	22265
858.197	22527
858.331	22341
858.464	22337
858.597	22272
858.731	22284
858.864	22234
858.997	22363
859.13	22356
859.263	22291
859.396	22436
859.529	22466
859.662	22344
859.795	22272
859.928	22390
860.061	22466
860.194	22428
860.327	22493
860.46	22421
860.592	22428
860.725	22607
860.858	22421
860.99	22268
861.123	22303
861.256	22261
861.388	22363
861.521	23025
861.653	22299
861.786	22116
861.918	22234
862.05	22276
862.183	22253
862.315	22402
862.447	22287
862.58	22257
862.712	22150
862.844	22109
862.976	22150
863.108	22246
863.24	22470
863.372	22010
863.504	22116
863.636	22070
863.768	22090
863.9	21911
864.032	22086
864.164	22101
864.296	22097
864.428	22181
864.559	22181
864.691	22128
864.823	22048
864.954	22101
865.086	22074
865.217	21892
865.349	21922
865.48	21987
865.612	21915
865.743	22051
865.875	21823
866.006	21956
866.137	22036
866.269	22051
866.4	21934
866.531	21861
866.662	21937
866.793	21755
866.924	21922
867.055	21774
867.186	21781
867.317	21869
867.448	21675
867.579	21892
867.71	21774
867.841	21736
867.972	21968
868.103	21816
868.233	21865
868.364	21842
868.495	21949
868.625	22116
868.756	22185
868.886	21998
869.017	22067
869.147	22211
869.278	22169
869.408	22204
869.539	21979
869.669	22303
869.799	22150
869.929	22234
870.06	22287
870.19	22455
870.32	22329
870.45	22516
870.58	22485
870.71	22535
870.84	22588
870.97	22523
871.1	22550
871.23	22626
871.36	22752
871.489	22618
871.619	22672
871.749	22702
871.879	22679
872.008	22713
872.138	22736
872.267	22611
872.397	22596
872.526	22565
872.656	22554
872.785	22584
872.915	22626
873.044	22839
873.173	22755
873.303	22725
873.432	22790
873.561	22793
873.69	22767
873.819	22797
873.948	22839
874.077	22782
874.206	22778
874.335	22858
874.464	22877
874.593	22957
874.722	22835
874.851	22919
874.979	22938
875.108	22911
875.237	22892
875.365	22972
875.494	22984
875.623	23003
875.751	22873
875.88	22885
876.008	23086
876.136	23140
876.265	23387
876.393	23535
876.521	23486
876.65	23448
876.778	23227
876.906	23273
877.034	23345
877.162	23322
877.29	23315
877.418	23307
877.546	23326
877.674	23280
877.802	23261
877.93	23254
878.058	23235
878.185	23143
878.313	23326
878.441	23250
878.568	23174
878.696	23117
878.824	23349
878.951	23311
879.079	23474
879.206	23566
879.333	23524
879.461	23436
879.588	23425
879.715	23444
879.842	23421
879.97	23417
880.097	23242
880.224	23147
880.351	23197
880.478	23193
880.605	23064
880.732	23124
880.859	23345
880.986	23193
881.112	23189
881.239	23124
881.366	22847
881.493	22831
881.619	22725
881.746	22641
881.872	22637
881.999	22752
882.125	22660
882.252	22740
882.378	22615
882.505	22763
882.631	22626
882.757	22318
882.883	22413
883.01	22447
883.136	22234
883.262	22329
883.388	22234
883.514	22352
883.64	22306
883.766	22272
883.892	22196
884.018	22215
884.143	22192
884.269	22466
884.395	22032
884.52	22036
884.646	22067
884.772	21926
884.897	21975
885.023	21922
885.148	22086
885.274	22188
885.399	22078
885.524	22029
885.65	21987
885.775	21972
885.9	22040
886.025	22067
886.15	22029
886.275	22044
886.4	21816
886.525	21918
886.65	21831
886.775	21983
886.9	22105
887.025	22207
887.149	22002
887.274	21778
887.399	21747
887.523	21823
887.648	21770
887.773	21614
887.897	21793
888.021	21865
888.146	21709
888.27	21770
888.395	22006
888.519	21759
888.643	21816
888.767	21930
888.891	21637
889.015	21454
889.139	21614
889.263	21496
889.387	21724
889.511	21823
889.635	21747
889.759	21610
889.883	21439
890.006	21549
890.13	21671
890.254	21523
890.377	21545
890.501	21184
890.624	21192
890.748	21321
890.871	21192
890.995	21036
891.118	20979
891.241	21222
891.364	21173
891.488	21192
891.611	21173
891.734	21154
891.857	21195
891.98	21169
892.103	21233
892.226	21039
892.349	21093
892.471	20998
892.594	21009
892.717	21116
892.839	21039
892.962	20921
893.085	20967
893.207	20933
893.33	20921
893.452	20838
893.575	21100
893.697	20990
893.819	21192
893.941	21142
894.064	21199
894.186	20960
894.308	20960
894.43	21081
894.552	21058
894.674	20994
894.796	20880
894.918	20902
895.04	20872
895.161	21070
895.283	21142
895.405	20830
895.526	21100
895.648	20929
895.769	21100
895.891	21058
896.012	21043
896.134	21032
896.255	21013
896.376	21039
896.498	20994
896.619	21009
896.74	21017
896.861	21020
896.982	21340
897.103	21378
897.224	21275
897.345	21207
897.466	21119
897.587	21135
897.708	21298
897.828	21184
897.949	21089
898.07	20994
898.19	21093
898.311	21211
898.431	21195
898.552	21207
898.672	21146
898.792	21218
898.913	21161
899.033	21211
899.153	20979
899.273	20864
899.393	20952
899.513	20990
899.633	20929
899.753	21013
899.873	20762
899.993	20956
900.113	20910
900.232	20880
900.352	20838
900.472	20800
900.591	20526
900.711	20632
900.83	20686
900.95	20765
901.069	20857
901.189	20533
901.308	20343
901.427	20199
901.546	20271
901.665	20229
901.784	20229
901.904	20020
902.023	19883
902.141	19837
902.26	19894
902.379	19909
902.498	19811
902.617	19795
902.735	19799
902.854	19719
902.973	19734
903.091	19483
903.21	19499
903.328	19449
903.446	19346
903.565	19293
903.683	19187
903.801	19129
903.919	19206
904.038	19190
904.156	18970
904.274	19110
904.392	18905
904.51	18935
904.627	19004
904.745	18993
904.863	19046
904.981	18711
905.098	18661
905.216	18566
905.334	18684
905.451	18665
905.569	18631
905.686	18719
905.803	18642
905.921	18369
906.038	18574
906.155	18365
906.272	18285
906.389	18372
906.506	18117
906.623	18319
906.74	18182
906.857	18098
906.974	18049
907.091	18140
907.208	18391
907.324	18129
907.441	17999
907.557	17912
907.674	17920
907.79	17813
907.907	17958
908.023	17840
908.139	17923
908.256	17908
908.372	17840
908.488	17752
908.604	17585
908.72	17581
908.836	17630
908.952	17532
909.068	17619
909.184	17566
909.3	17611
909.415	17745
909.531	17627
909.647	17433
909.762	17326
909.878	17303
909.993	17398
910.108	17246
910.224	17185
910.339	17277
910.454	17124
910.57	17159
910.685	17071
910.8	17425
910.915	17307
911.03	17029
911.145	16919
911.259	16816
911.374	16892
911.489	16805
911.604	16729
911.718	16489
911.833	16698
911.947	16470
912.062	16512
912.176	16596
912.291	16740
912.405	16607
912.519	16752
912.633	16786
912.748	16645
912.862	16561
912.976	16394
913.09	16303
913.204	16424
913.318	16402
913.431	16459
913.545	16394
913.659	16584
913.772	16325
913.886	16268
914	16181
914.113	16253
914.226	16375
914.34	16211
914.453	16029
914.566	16211
914.68	16093
914.793	16029
914.906	15808
915.019	15812
915.132	15781
915.245	15785
915.358	15850
915.47	15793
915.583	15816
915.696	15800
915.809	15888
915.921	15945
916.034	15656
916.146	15633
916.259	15736
916.371	15835
916.483	15736
916.595	15580
916.708	15701
916.82	15690
916.932	15572
917.044	15538
917.156	15599
917.268	15526
917.38	15374
917.491	15454
917.603	15416
917.715	15488
917.826	15542
917.938	15291
918.049	15317
918.161	15363
918.272	15488
918.384	15507
918.495	15386
918.606	15192
918.717	15058
918.828	15260
918.939	15157
919.05	14986
919.161	15097
919.272	14902
919.383	14963
919.494	15211
919.604	15283
919.715	15066
919.826	15032
919.936	15154
920.047	15203
920.157	15146
920.267	15245
920.378	15214
920.488	15150
920.598	15218
920.708	15393
920.818	15180
920.928	15249
921.038	15492
921.148	15351
921.258	15142
921.368	15062
921.477	14906
921.587	14735
921.697	14712
921.806	14823
921.916	14765
922.025	14530
922.134	14507
922.244	14454
922.353	14583
922.462	14427
922.571	14305
922.68	14153
922.789	14176
922.898	14161
923.007	14100
923.116	14176
923.224	14119
923.333	14183
923.442	13944
923.55	14020
923.659	13982
923.767	14012
923.876	13852
923.984	13982
924.092	13845
924.201	13917
924.309	13830
924.417	13746
924.525	13772
924.633	13757
924.741	14545
924.849	13518
924.956	13761
925.064	13590
925.172	13381
925.279	13472
925.387	13548
925.494	13518
925.602	13605
925.709	13578
925.816	13464
925.924	13392
926.031	13567
926.138	13430
926.245	13537
926.352	13339
926.459	13460
926.566	13521
926.673	13362
926.779	13175
926.886	13259
926.993	13069
927.099	13023
927.206	13042
927.312	13031
927.419	13023
927.525	12962
927.631	13034
927.737	12852
927.843	12935
927.95	12840
928.056	12779
928.162	12905
928.267	12913
928.373	13426
928.479	12939
928.585	12707
928.69	12806
928.796	12890
928.901	12654
929.007	12620
929.112	12642
929.218	12722
929.323	12574
929.428	12551
929.533	12730
929.638	12578
929.743	12597
929.848	12544
929.953	12418
930.058	12353
930.163	12254
930.267	12334
930.372	12445
930.477	12296
930.581	12330
930.685	12292
930.79	12190
930.894	12102
930.998	12102
931.103	12224
931.207	11885
931.311	11760
931.415	11741
931.519	11509
931.623	11398
